Data from 2018-3-7_conc=3_n=3_RamanShift_04.txt Node
Date: Wed Mar 07 11:23:22 IST 2018
User: aro
Spectrometer: QEPB0276
Trigger mode: 0
Integration Time (sec): 3.000000E1
Scans to average: 1
Electric dark correction enabled: true
Nonlinearity correction enabled: false
Boxcar width: 0
XAxis mode: Raman Shifts
Number of Pixels in Spectrum: 1044
>>>>>Begin Spectral Data<<<<<
160.701	14.4
166.742	26.4
172.777	47.4
178.805	126.4
184.826	334.4
190.841	696.4
196.849	1147.4
202.85	1488.4
208.845	1636.4
214.833	1638.4
220.815	1616.4
226.789	1624.4
232.758	1637.4
238.719	1646.4
244.674	1618.4
250.623	1647.4
256.565	1607.4
262.5	1574.4
268.429	1578.4
274.351	1553.4
280.267	1553.4
286.176	1564.4
292.079	1559.4
297.975	1568.4
303.865	1578.4
309.748	1553.4
315.625	1563.4
321.495	1572.4
327.359	1571.4
333.217	1566.4
339.068	1581.4
344.912	1559.4
350.751	1580.4
356.583	1579.4
362.408	1585.4
368.227	1579.4
374.04	1603.4
379.847	1608.4
385.647	1601.4
391.44	1619.4
397.228	1639.4
403.009	1636.4
408.784	1635.4
414.553	1679.4
420.315	1661.4
426.071	1647.4
431.821	1650.4
437.565	1665.4
443.302	1650.4
449.033	1663.4
454.758	1647.4
460.477	1644.4
466.189	1606.4
471.896	1605.4
477.596	1573.4
483.29	1594.4
488.978	1577.4
494.66	1585.4
500.335	1531.4
506.005	1503.4
511.668	1417.4
517.325	1365.4
522.977	1295.4
528.622	1275.4
534.261	1246.4
539.894	1210.4
545.521	1221.4
551.141	1192.4
556.756	1179.4
562.365	1191.4
567.968	1166.4
573.565	1158.4
579.155	1154.4
584.74	1156.4
590.319	1147.4
595.892	1129.4
601.459	1147.4
607.02	1147.4
612.575	1135.4
618.124	1112.4
623.667	1102.4
629.204	1087.4
634.735	1072.4
640.261	1072.4
645.781	1077.4
651.294	1063.4
656.802	1046.4
662.304	1047.4
667.8	1051.4
673.29	1038.4
678.775	1035.4
684.254	1036.4
689.726	1030.4
695.193	1018.4
700.655	1018.4
706.11	1013.4
711.56	1012.4
717.004	1004.4
722.442	989.4
727.874	981.4
733.301	988.4
738.722	987.4
744.137	978.4
749.547	987.4
754.951	981.4
760.349	976.4
765.741	964.4
771.128	985.4
776.509	1000.4
781.885	1003.4
787.254	1029.4
792.618	1021.4
797.977	1011.4
803.33	1013.4
808.677	1005.4
814.019	987.4
819.355	984.4
824.686	961.4
830.011	970.4
835.33	957.4
840.644	966.4
845.952	953.4
851.255	949.4
856.552	958.4
861.844	944.4
867.13	922.4
872.41	927.4
877.686	914.4
882.955	931.4
888.219	897.4
893.478	898.4
898.731	878.4
903.979	855.4
909.221	856.4
914.458	847.4
919.69	858.4
924.916	864.4
930.136	863.4
935.351	856.4
940.561	853.4
945.766	860.4
950.965	851.4
956.158	863.4
961.347	835.4
966.529	823.4
971.707	808.4
976.879	788.4
982.046	800.4
987.208	789.4
992.364	789.4
997.515	794.4
1002.66	784.4
1007.801	810.4
1012.936	795.4
1018.066	824.4
1023.19	819.4
1028.309	816.4
1033.423	811.4
1038.532	809.4
1043.636	808.4
1048.734	794.4
1053.827	789.4
1058.915	793.4
1063.998	766.4
1069.075	760.4
1074.147	763.4
1079.214	781.4
1084.276	776.4
1089.333	777.4
1094.385	783.4
1099.431	774.4
1104.472	765.4
1109.509	767.4
1114.54	757.4
1119.565	753.4
1124.586	734.4
1129.602	723.4
1134.613	729.4
1139.618	714.4
1144.619	708.4
1149.614	721.4
1154.604	707.4
1159.589	716.4
1164.57	720.4
1169.545	725.4
1174.515	729.4
1179.48	725.4
1184.44	713.4
1189.395	720.4
1194.345	702.4
1199.29	698.4
1204.23	703.4
1209.165	697.4
1214.095	703.4
1219.021	702.4
1223.941	711.4
1228.856	721.4
1233.766	705.4
1238.672	720.4
1243.572	715.4
1248.467	711.4
1253.358	697.4
1258.244	684.4
1263.124	670.4
1268	664.4
1272.871	662.4
1277.737	651.4
1282.599	645.4
1287.455	650.4
1292.306	649.4
1297.153	645.4
1301.995	655.4
1306.832	659.4
1311.664	665.4
1316.491	659.4
1321.314	661.4
1326.132	658.4
1330.945	636.4
1335.753	628.4
1340.556	612.4
1345.354	610.4
1350.148	602.4
1354.937	587.4
1359.722	571.4
1364.501	563.4
1369.276	556.4
1374.046	541.4
1378.811	535.4
1383.572	547.4
1388.327	541.4
1393.079	534.4
1397.825	542.4
1402.567	536.4
1407.304	547.4
1412.036	546.4
1416.764	535.4
1421.487	544.4
1426.205	543.4
1430.919	543.4
1435.628	542.4
1440.333	552.4
1445.032	552.4
1449.727	569.4
1454.418	569.4
1459.104	561.4
1463.785	555.4
1468.462	530.4
1473.134	523.4
1477.802	508.4
1482.465	499.4
1487.123	491.4
1491.777	482.4
1496.426	473.4
1501.071	468.4
1505.711	468.4
1510.347	469.4
1514.978	466.4
1519.604	458.4
1524.226	454.4
1528.844	461.4
1533.457	454.4
1538.065	466.4
1542.669	447.4
1547.269	445.4
1551.864	449.4
1556.454	470.4
1561.041	470.4
1565.622	481.4
1570.199	466.4
1574.772	473.4
1579.34	469.4
1583.904	486.4
1588.464	487.4
1593.019	488.4
1597.569	490.4
1602.115	491.4
1606.657	490.4
1611.195	488.4
1615.728	492.4
1620.256	483.4
1624.78	481.4
1629.3	486.4
1633.816	480.4
1638.327	488.4
1642.834	482.4
1647.336	479.4
1651.834	477.4
1656.328	490.4
1660.817	476.4
1665.302	467.4
1669.783	458.4
1674.259	456.4
1678.732	443.4
1683.199	425.4
1687.663	408.4
1692.122	408.4
1696.577	382.4
1701.028	359.4
1705.474	345.4
1709.917	351.4
1714.355	337.4
1718.788	329.4
1723.218	329.4
1727.643	338.4
1732.064	336.4
1736.481	324.4
1740.893	320.4
1745.301	315.4
1749.705	322.4
1754.105	301.4
1758.501	289.4
1762.893	291.4
1767.28	282.4
1771.663	278.4
1776.042	282.4
1780.417	273.4
1784.787	269.4
1789.154	262.4
1793.516	252.4
1797.874	249.4
1802.228	258.4
1806.578	249.4
1810.924	244.4
1815.266	243.4
1819.603	244.4
1823.937	250.4
1828.266	251.4
1832.591	258.4
1836.913	253.4
1841.23	248.4
1845.543	247.4
1849.852	246.4
1854.156	261.4
1858.457	259.4
1862.754	262.4
1867.047	243.4
1871.335	254.4
1875.62	252.4
1879.9	247.4
1884.177	237.4
1888.449	237.4
1892.718	240.4
1896.982	227.4
1901.243	222.4
1905.499	226.4
1909.752	220.4
1914	220.4
1918.245	212.4
1922.485	205.4
1926.722	208.4
1930.954	213.4
1935.183	213.4
1939.408	207.4
1943.628	207.4
1947.845	204.4
1952.058	206.4
1956.267	199.4
1960.472	208.4
1964.673	192.4
1968.87	193.4
1973.063	192.4
1977.252	191.4
1981.438	184.4
1985.619	187.4
1989.797	187.4
1993.971	193.4
1998.14	192.4
2002.306	197.4
2006.469	198.4
2010.627	197.4
2014.781	201.4
2018.932	188.4
2023.078	196.4
2027.221	190.4
2031.36	187.4
2035.495	179.4
2039.627	169.4
2043.754	177.4
2047.878	178.4
2051.998	177.4
2056.114	176.4
2060.226	176.4
2064.334	173.4
2068.439	166.4
2072.54	169.4
2076.637	167.4
2080.73	166.4
2084.82	162.4
2088.906	170.4
2092.988	171.4
2097.066	158.4
2101.14	162.4
2105.211	156.4
2109.278	156.4
2113.342	153.4
2117.401	153.4
2121.457	152.4
2125.509	147.4
2129.558	145.4
2133.602	149.4
2137.643	153.4
2141.681	144.4
2145.714	159.4
2149.744	143.4
2153.77	149.4
2157.793	148.4
2161.812	156.4
2165.827	147.4
2169.838	143.4
2173.846	137.4
2177.851	141.4
2181.851	138.4
2185.848	140.4
2189.841	138.4
2193.831	136.4
2197.817	132.4
2201.799	132.4
2205.778	129.4
2209.753	130.4
2213.725	131.4
2217.693	137.4
2221.657	131.4
2225.618	129.4
2229.575	126.4
2233.529	127.4
2237.479	129.4
2241.425	124.4
2245.368	122.4
2249.307	131.4
2253.243	117.4
2257.175	125.4
2261.104	119.4
2265.029	115.4
2268.95	110.4
2272.868	114.4
2276.783	116.4
2280.694	106.4
2284.601	101.4
2288.505	112.4
2292.405	110.4
2296.302	114.4
2300.195	107.4
2304.085	102.4
2307.971	100.4
2311.854	93.4
2315.734	94.4
2319.609	106.4
2323.482	94.4
2327.351	103.4
2331.216	103.4
2335.078	126.4
2338.937	116.4
2342.792	106.4
2346.643	101.4
2350.492	104.4
2354.336	100.4
2358.178	98.4
2362.015	101.4
2365.85	96.4
2369.681	99.4
2373.508	98.4
2377.333	101.4
2381.153	96.4
2384.971	97.4
2388.785	90.4
2392.595	98.4
2396.402	94.4
2400.206	95.4
2404.007	91.4
2407.804	97.4
2411.597	93.4
2415.388	90.4
2419.174	100.4
2422.958	94.4
2426.738	90.4
2430.515	83.4
2434.289	91.4
2438.059	81.4
2441.825	87.4
2445.589	81.4
2449.349	87.4
2453.106	89.4
2456.859	84.4
2460.61	85.4
2464.356	82.4
2468.1	83.4
2471.84	83.4
2475.577	81.4
2479.311	73.4
2483.041	78.4
2486.768	69.4
2490.492	77.4
2494.213	71.4
2497.93	68.4
2501.644	70.4
2505.355	66.4
2509.062	72.4
2512.766	69.4
2516.467	69.4
2520.165	69.4
2523.859	72.4
2527.551	68.4
2531.239	70.4
2534.923	63.4
2538.605	54.4
2542.283	55.4
2545.958	54.4
2549.63	57.4
2553.299	59.4
2556.964	45.4
2560.626	57.4
2564.285	57.4
2567.941	57.4
2571.594	52.4
2575.243	56.4
2578.89	59.4
2582.533	52.4
2586.173	40.4
2589.809	58.4
2593.443	58.4
2597.073	51.4
2600.701	49.4
2604.325	39.4
2607.946	39.4
2611.564	43.4
2615.178	46.4
2618.79	50.4
2622.398	46.4
2626.004	43.4
2629.606	40.4
2633.205	46.4
2636.801	45.4
2640.394	46.4
2643.983	52.4
2647.57	39.4
2651.153	35.4
2654.734	39.4
2658.311	43.4
2661.885	44.4
2665.456	41.4
2669.025	38.4
2672.589	37.4
2676.151	35.4
2679.71	29.4
2683.266	36.4
2686.819	44.4
2690.368	36.4
2693.915	36.4
2697.458	30.4
2700.999	35.4
2704.536	39.4
2708.071	27.4
2711.602	27.4
2715.13	26.4
2718.656	28.4
2722.178	20.4
2725.697	31.4
2729.214	27.4
2732.727	33.4
2736.237	33.4
2739.744	23.4
2743.249	25.4
2746.75	31.4
2750.248	22.4
2753.743	18.4
2757.236	18.4
2760.725	16.4
2764.211	14.4
2767.695	16.4
2771.175	14.4
2774.652	21.4
2778.127	18.4
2781.598	18.4
2785.067	14.4
2788.532	12.4
2791.995	20.4
2795.455	14.4
2798.911	10.4
2802.365	23.4
2805.816	19.4
2809.264	20.4
2812.709	15.4
2816.151	22.4
2819.59	26.4
2823.026	17.4
2826.46	21.4
2829.89	17.4
2833.318	11.4
2836.742	22.4
2840.164	11.4
2843.583	21.4
2846.999	23.4
2850.412	27.4
2853.822	16.4
2857.229	18.4
2860.634	15.4
2864.035	19.4
2867.434	21.4
2870.83	22.4
2874.223	24.4
2877.613	22.4
2881	27.4
2884.385	32.4
2887.766	28.4
2891.145	26.4
2894.521	23.4
2897.894	26.4
2901.264	34.4
2904.631	29.4
2907.996	27.4
2911.358	36.4
2914.717	27.4
2918.073	30.4
2921.426	32.4
2924.777	36.4
2928.124	30.4
2931.469	33.4
2934.811	36.4
2938.15	37.4
2941.487	47.4
2944.821	40.4
2948.152	48.4
2951.48	37.4
2954.805	41.4
2958.128	37.4
2961.447	44.4
2964.765	34.4
2968.079	33.4
2971.39	36.4
2974.699	31.4
2978.005	41.4
2981.308	29.4
2984.609	29.4
2987.907	36.4
2991.202	35.4
2994.494	36.4
2997.784	31.4
3001.07	31.4
3004.355	41.4
3007.636	41.4
3010.915	49.4
3014.191	40.4
3017.464	39.4
3020.734	44.4
3024.002	47.4
3027.267	45.4
3030.53	42.4
3033.789	45.4
3037.046	41.4
3040.301	43.4
3043.552	47.4
3046.801	54.4
3050.048	51.4
3053.291	53.4
3056.532	52.4
3059.771	60.4
3063.006	62.4
3066.239	69.4
3069.469	74.4
3072.697	69.4
3075.922	70.4
3079.144	66.4
3082.364	78.4
3085.581	70.4
3088.795	83.4
3092.007	82.4
3095.216	80.4
3098.423	81.4
3101.627	82.4
3104.828	86.4
3108.026	94.4
3111.222	97.4
3114.416	98.4
3117.607	98.4
3120.795	96.4
3123.98	108.4
3127.163	110.4
3130.344	104.4
3133.521	111.4
3136.696	115.4
3139.869	123.4
3143.039	119.4
3146.206	118.4
3149.371	112.4
3152.533	135.4
3155.693	129.4
3158.85	127.4
3162.005	135.4
3165.157	132.4
3168.306	132.4
3171.453	125.4
3174.597	129.4
3177.739	137.4
3180.878	131.4
3184.014	131.4
3187.149	132.4
3190.28	134.4
3193.409	136.4
3196.536	135.4
3199.659	131.4
3202.781	135.4
3205.9	127.4
3209.016	127.4
3212.13	133.4
3215.241	143.4
3218.35	125.4
3221.456	136.4
3224.56	126.4
3227.661	119.4
3230.76	119.4
3233.856	118.4
3236.95	124.4
3240.041	114.4
3243.13	117.4
3246.216	102.4
3249.3	102.4
3252.382	107.4
3255.46	122.4
3258.537	106.4
3261.611	107.4
3264.682	103.4
3267.751	108.4
3270.818	91.4
3273.882	102.4
3276.943	98.4
3280.002	101.4
3283.059	91.4
3286.113	93.4
3289.165	89.4
3292.214	93.4
3295.261	94.4
3298.306	88.4
3301.348	92.4
3304.387	93.4
3307.425	89.4
3310.459	86.4
3313.492	89.4
3316.521	87.4
3319.549	88.4
3322.574	81.4
3325.597	81.4
3328.617	83.4
3331.635	82.4
3334.65	96.4
3337.663	75.4
3340.674	81.4
3343.682	81.4
3346.688	84.4
3349.691	86.4
3352.692	90.4
3355.691	89.4
3358.687	84.4
3361.681	85.4
3364.673	87.4
3367.662	89.4
3370.649	79.4
3373.633	74.4
3376.615	77.4
3379.595	67.4
3382.572	60.4
3385.547	76.4
3388.52	69.4
3391.49	60.4
3394.458	64.4
3397.424	70.4
3400.387	69.4
3403.348	61.4
3406.307	57.4
3409.263	62.4
3412.217	61.4
3415.168	61.4
3418.118	63.4
3421.065	48.4
3424.009	52.4
3426.951	53.4
3429.891	58.4
3432.829	54.4
3435.764	49.4
3438.697	48.4
3441.628	38.4
3444.557	40.4
3447.483	41.4
3450.407	36.4
3453.328	40.4
3456.247	33.4
3459.164	33.4
3462.079	25.4
3464.991	21.4
3467.902	23.4
3470.809	26.4
3473.715	14.4
3476.618	17.4
3479.519	17.4
3482.418	19.4
3485.315	9.4
3488.209	11.4
3491.101	5.4
3493.99	15.4
3496.878	5.4
3499.763	4.4
3502.646	8.4
3505.527	-1.6
3508.405	-2.6
3511.281	2.4
3514.155	1.4
3517.027	-6.6
3519.897	1.4
3522.764	-6.6
3525.629	-8.6
3528.492	-7.6
3531.352	-12.6
3534.211	-14.6
3537.067	-12.6
3539.921	-11.6
3542.773	-23.6
3545.622	-15.6
3548.469	-19.6
3551.315	-15.6
3554.157	-23.6
3556.998	-21.6
3559.837	-26.6
3562.673	-22.6
3565.507	-23.6
3568.339	-19.6
3571.169	-23.6
3573.996	-19.6
3576.822	-30.6
3579.645	-23.6
3582.466	-25.6
3585.285	-25.6
3588.101	-32.6
3590.916	-26.6
3593.728	-31.6
3596.538	-35.6
3599.346	-31.6
3602.152	-34.6
3604.956	-29.6
3607.757	-25.6
3610.556	-27.6
3613.354	-38.6
3616.149	-40.6
3618.942	-31.6
3621.732	-34.6
3624.521	-29.6
3627.307	-35.6
3630.092	-39.6
3632.874	-36.6
3635.654	-38.6
3638.432	-39.6
3641.208	-35.6
3643.982	-35.6
3646.753	-43.6
3649.523	-34.6
3652.29	-40.6
3655.055	-37.6
3657.818	-40.6
3660.579	-40.6
3663.338	-38.6
3666.095	-43.6
3668.849	-44.6
3671.602	-46.6
3674.352	-36.6
3677.101	-40.6
3679.847	-39.6
3682.591	-42.6
3685.333	-38.6
3688.073	-50.6
3690.811	-36.6
3693.547	-38.6
3696.281	-37.6
3699.013	-46.6
3701.742	-47.6
3704.47	-41.6
3707.195	-39.6
3709.919	-45.6
3712.64	-42.6
3715.359	-48.6
3718.076	-47.6
3720.792	-44.6
3723.505	-47.6
3726.216	-37.6
3728.925	-45.6
3731.632	-45.6
3734.336	-44.6
3737.039	-39.6
3739.74	-46.6
3742.439	-46.6
3745.136	-49.6
3747.83	-47.6
3750.523	-54.6
3753.213	-50.6
3755.902	-45.6
3758.589	-48.6
3761.273	-50.6
3763.956	-47.6
3766.636	-38.6
3769.315	-40.6
3771.991	-45.6
3774.665	-49.6
3777.338	-43.6
3780.008	-47.6
3782.677	-56.6
3785.343	-49.6
3788.007	-49.6
3790.67	-52.6
3793.33	-44.6
3795.989	-50.6
3798.645	-47.6
3801.299	-43.6
3803.952	-47.6
3806.602	-46.6
3809.251	-46.6
3811.897	-53.6
3814.542	-51.6
3817.184	-48.6
3819.825	-44.6
3822.463	-44.6
3825.1	-43.6
3827.735	-52.6
3830.367	-51.6
3832.998	-52.6
3835.627	-48.6
3838.253	-44.6
3840.878	-39.6
3843.501	-45.6
3846.122	-51.6
3848.741	-50.6
3851.358	-47.6
3853.973	-41.6
3856.586	-51.6
3859.197	-48.6
3861.806	-53.6
3864.414	-49.6
3867.019	-53.6
3869.622	-43.6
3872.224	-40.6
3874.823	-30.6
3877.421	-23.6
3880.016	-11.6
3882.61	3.4
3885.202	6.4
3887.792	-3.6
3890.38	-16.6
3892.966	-31.6
3895.55	-42.6
3898.132	-45.6
3900.713	-51.6
3903.291	-49.6
3905.868	-43.6
3908.442	-49.6
3911.015	-48.6
3913.586	-55.6
3916.155	-50.6
3918.722	-47.6
3921.287	-47.6
3923.85	-42.6
3926.411	-48.6
3928.971	-55.6
3931.528	-46.6
3934.084	-44.6
3936.638	-47.6
3939.19	-56.6
3941.74	-46.6
3944.288	-47.6
3946.834	-48.6
3949.378	-48.6
3951.921	-52.6
3954.462	-52.6
3957	-44.6
3959.537	-39.6
3962.072	-46.6
3964.606	-45.6
3967.137	-42.6
3969.667	-52.6
3972.194	-43.6
3974.72	-44.6
3977.244	-42.6
3979.766	-49.6
3982.286	-49.6
3984.805	-51.6
3987.321	-45.6
3989.836	-40.6
3992.349	-44.6
3994.86	-49.6
3997.369	-53.6
3999.877	-49.6
4002.382	-54.6
4004.886	-45.6
4007.388	-53.6
4009.888	-45.6
4012.386	-49.6
4014.883	-48.6
4017.377	-46.6
4019.87	-41.6
4022.361	-53.6
4024.85	-47.6
4027.338	-50.6
4029.823	-49.6
4032.307	-51.6
4034.789	-46.6
4037.269	-56.6
4039.747	-52.6
4042.224	-54.6
4044.699	-50.6
4047.172	-49.6
4049.643	-49.6
4052.112	-43.6
4054.58	-46.6
4057.046	-43.6
4059.51	-52.6
4061.972	-52.6
4064.432	-50.6
4066.891	-49.6
4069.348	-46.6
4071.803	-42.6
4074.256	-46.6
4076.708	-53.6
4079.158	-55.6
4081.606	-51.6
4084.052	-52.6
4086.497	-46.6
4088.939	-47.6
4091.38	-52.6
4093.819	-52.6
4096.257	-52.6
4098.693	-51.6
4101.127	-44.6
4103.559	-53.6
4105.989	16.4
4108.418	8.4
4110.845	9.4
4113.27	8.4
4115.694	14.4
4118.115	15.4
4120.535	-43.6
4122.954	-45.6
4125.37	-49.6
4127.785	-42.6
4130.198	-49.6
4132.609	-50.6
4135.019	-53.6
4137.427	-54.6
4139.833	-55.6
4142.237	-50.6
