Data from 2018-3-7_conc=3_n=8_RamanShift_03.txt Node
Date: Wed Mar 07 11:38:52 IST 2018
User: aro
Spectrometer: QEPB0276
Trigger mode: 0
Integration Time (sec): 3.000000E1
Scans to average: 1
Electric dark correction enabled: true
Nonlinearity correction enabled: false
Boxcar width: 0
XAxis mode: Raman Shifts
Number of Pixels in Spectrum: 1044
>>>>>Begin Spectral Data<<<<<
160.701	10.2
166.742	25.2
172.777	41.2
178.805	133.2
184.826	329.2
190.841	693.2
196.849	1152.2
202.85	1495.2
208.845	1649.2
214.833	1641.2
220.815	1629.2
226.789	1627.2
232.758	1632.2
238.719	1646.2
244.674	1627.2
250.623	1619.2
256.565	1598.2
262.5	1585.2
268.429	1573.2
274.351	1562.2
280.267	1546.2
286.176	1556.2
292.079	1561.2
297.975	1555.2
303.865	1561.2
309.748	1552.2
315.625	1548.2
321.495	1558.2
327.359	1554.2
333.217	1558.2
339.068	1553.2
344.912	1575.2
350.751	1578.2
356.583	1579.2
362.408	1586.2
368.227	1586.2
374.04	1594.2
379.847	1586.2
385.647	1609.2
391.44	1627.2
397.228	1618.2
403.009	1624.2
408.784	1644.2
414.553	1646.2
420.315	1659.2
426.071	1653.2
431.821	1650.2
437.565	1633.2
443.302	1641.2
449.033	1642.2
454.758	1626.2
460.477	1608.2
466.189	1599.2
471.896	1585.2
477.596	1577.2
483.29	1577.2
488.978	1550.2
494.66	1534.2
500.335	1523.2
506.005	1470.2
511.668	1401.2
517.325	1364.2
522.977	1306.2
528.622	1255.2
534.261	1239.2
539.894	1229.2
545.521	1211.2
551.141	1169.2
556.756	1178.2
562.365	1174.2
567.968	1172.2
573.565	1154.2
579.155	1153.2
584.74	1161.2
590.319	1135.2
595.892	1158.2
601.459	1153.2
607.02	1124.2
612.575	1116.2
618.124	1111.2
623.667	1092.2
629.204	1099.2
634.735	1075.2
640.261	1056.2
645.781	1063.2
651.294	1073.2
656.802	1041.2
662.304	1046.2
667.8	1037.2
673.29	1045.2
678.775	1042.2
684.254	1052.2
689.726	1027.2
695.193	1023.2
700.655	1021.2
706.11	1008.2
711.56	1002.2
717.004	997.2
722.442	978.2
727.874	984.2
733.301	985.2
738.722	969.2
744.137	981.2
749.547	978.2
754.951	972.2
760.349	985.2
765.741	982.2
771.128	972.2
776.509	999.2
781.885	998.2
787.254	1001.2
792.618	998.2
797.977	1020.2
803.33	985.2
808.677	979.2
814.019	995.2
819.355	976.2
824.686	965.2
830.011	971.2
835.33	966.2
840.644	956.2
845.952	957.2
851.255	937.2
856.552	947.2
861.844	926.2
867.13	919.2
872.41	926.2
877.686	914.2
882.955	916.2
888.219	910.2
893.478	899.2
898.731	864.2
903.979	856.2
909.221	856.2
914.458	852.2
919.69	855.2
924.916	848.2
930.136	858.2
935.351	864.2
940.561	862.2
945.766	848.2
950.965	850.2
956.158	841.2
961.347	822.2
966.529	829.2
971.707	806.2
976.879	804.2
982.046	787.2
987.208	796.2
992.364	805.2
997.515	787.2
1002.66	798.2
1007.801	814.2
1012.936	813.2
1018.066	820.2
1023.19	805.2
1028.309	807.2
1033.423	803.2
1038.532	798.2
1043.636	802.2
1048.734	797.2
1053.827	780.2
1058.915	781.2
1063.998	768.2
1069.075	756.2
1074.147	781.2
1079.214	776.2
1084.276	790.2
1089.333	788.2
1094.385	786.2
1099.431	774.2
1104.472	777.2
1109.509	776.2
1114.54	754.2
1119.565	756.2
1124.586	742.2
1129.602	722.2
1134.613	728.2
1139.618	725.2
1144.619	714.2
1149.614	728.2
1154.604	722.2
1159.589	730.2
1164.57	722.2
1169.545	715.2
1174.515	730.2
1179.48	724.2
1184.44	714.2
1189.395	715.2
1194.345	697.2
1199.29	697.2
1204.23	699.2
1209.165	687.2
1214.095	697.2
1219.021	711.2
1223.941	706.2
1228.856	713.2
1233.766	708.2
1238.672	701.2
1243.572	708.2
1248.467	707.2
1253.358	695.2
1258.244	696.2
1263.124	669.2
1268	672.2
1272.871	656.2
1277.737	656.2
1282.599	657.2
1287.455	645.2
1292.306	648.2
1297.153	650.2
1301.995	638.2
1306.832	665.2
1311.664	668.2
1316.491	669.2
1321.314	663.2
1326.132	657.2
1330.945	641.2
1335.753	620.2
1340.556	603.2
1345.354	604.2
1350.148	591.2
1354.937	585.2
1359.722	567.2
1364.501	549.2
1369.276	551.2
1374.046	552.2
1378.811	539.2
1383.572	535.2
1388.327	532.2
1393.079	531.2
1397.825	539.2
1402.567	542.2
1407.304	544.2
1412.036	556.2
1416.764	546.2
1421.487	552.2
1426.205	544.2
1430.919	541.2
1435.628	544.2
1440.333	559.2
1445.032	557.2
1449.727	559.2
1454.418	579.2
1459.104	557.2
1463.785	545.2
1468.462	544.2
1473.134	527.2
1477.802	515.2
1482.465	500.2
1487.123	491.2
1491.777	482.2
1496.426	475.2
1501.071	465.2
1505.711	463.2
1510.347	450.2
1514.978	451.2
1519.604	447.2
1524.226	444.2
1528.844	451.2
1533.457	438.2
1538.065	447.2
1542.669	459.2
1547.269	439.2
1551.864	451.2
1556.454	462.2
1561.041	475.2
1565.622	470.2
1570.199	459.2
1574.772	461.2
1579.34	477.2
1583.904	486.2
1588.464	489.2
1593.019	480.2
1597.569	484.2
1602.115	485.2
1606.657	491.2
1611.195	489.2
1615.728	489.2
1620.256	485.2
1624.78	488.2
1629.3	477.2
1633.816	482.2
1638.327	492.2
1642.834	491.2
1647.336	479.2
1651.834	475.2
1656.328	472.2
1660.817	473.2
1665.302	467.2
1669.783	454.2
1674.259	445.2
1678.732	432.2
1683.199	426.2
1687.663	411.2
1692.122	386.2
1696.577	377.2
1701.028	362.2
1705.474	338.2
1709.917	332.2
1714.355	332.2
1718.788	327.2
1723.218	330.2
1727.643	326.2
1732.064	336.2
1736.481	331.2
1740.893	313.2
1745.301	310.2
1749.705	307.2
1754.105	294.2
1758.501	290.2
1762.893	287.2
1767.28	277.2
1771.663	273.2
1776.042	276.2
1780.417	269.2
1784.787	263.2
1789.154	260.2
1793.516	250.2
1797.874	245.2
1802.228	249.2
1806.578	251.2
1810.924	239.2
1815.266	255.2
1819.603	244.2
1823.937	240.2
1828.266	235.2
1832.591	244.2
1836.913	242.2
1841.23	243.2
1845.543	237.2
1849.852	246.2
1854.156	244.2
1858.457	243.2
1862.754	248.2
1867.047	242.2
1871.335	247.2
1875.62	244.2
1879.9	247.2
1884.177	237.2
1888.449	238.2
1892.718	234.2
1896.982	230.2
1901.243	219.2
1905.499	221.2
1909.752	214.2
1914	216.2
1918.245	203.2
1922.485	205.2
1926.722	197.2
1930.954	197.2
1935.183	203.2
1939.408	205.2
1943.628	200.2
1947.845	199.2
1952.058	194.2
1956.267	192.2
1960.472	194.2
1964.673	179.2
1968.87	184.2
1973.063	194.2
1977.252	193.2
1981.438	185.2
1985.619	186.2
1989.797	189.2
1993.971	193.2
1998.14	189.2
2002.306	186.2
2006.469	192.2
2010.627	189.2
2014.781	183.2
2018.932	189.2
2023.078	192.2
2027.221	183.2
2031.36	191.2
2035.495	176.2
2039.627	170.2
2043.754	179.2
2047.878	179.2
2051.998	174.2
2056.114	168.2
2060.226	167.2
2064.334	170.2
2068.439	164.2
2072.54	164.2
2076.637	169.2
2080.73	166.2
2084.82	167.2
2088.906	162.2
2092.988	168.2
2097.066	161.2
2101.14	165.2
2105.211	161.2
2109.278	152.2
2113.342	142.2
2117.401	143.2
2121.457	148.2
2125.509	148.2
2129.558	140.2
2133.602	138.2
2137.643	147.2
2141.681	136.2
2145.714	148.2
2149.744	142.2
2153.77	151.2
2157.793	146.2
2161.812	152.2
2165.827	141.2
2169.838	142.2
2173.846	141.2
2177.851	134.2
2181.851	132.2
2185.848	138.2
2189.841	131.2
2193.831	134.2
2197.817	131.2
2201.799	127.2
2205.778	121.2
2209.753	131.2
2213.725	121.2
2217.693	133.2
2221.657	134.2
2225.618	136.2
2229.575	122.2
2233.529	128.2
2237.479	124.2
2241.425	123.2
2245.368	124.2
2249.307	122.2
2253.243	123.2
2257.175	121.2
2261.104	109.2
2265.029	116.2
2268.95	115.2
2272.868	105.2
2276.783	101.2
2280.694	96.2
2284.601	98.2
2288.505	107.2
2292.405	102.2
2296.302	110.2
2300.195	103.2
2304.085	102.2
2307.971	97.2
2311.854	96.2
2315.734	98.2
2319.609	99.2
2323.482	94.2
2327.351	101.2
2331.216	106.2
2335.078	117.2
2338.937	105.2
2342.792	99.2
2346.643	95.2
2350.492	101.2
2354.336	93.2
2358.178	86.2
2362.015	99.2
2365.85	91.2
2369.681	99.2
2373.508	98.2
2377.333	100.2
2381.153	95.2
2384.971	89.2
2388.785	90.2
2392.595	89.2
2396.402	99.2
2400.206	96.2
2404.007	90.2
2407.804	88.2
2411.597	87.2
2415.388	85.2
2419.174	89.2
2422.958	85.2
2426.738	94.2
2430.515	91.2
2434.289	86.2
2438.059	88.2
2441.825	79.2
2445.589	83.2
2449.349	79.2
2453.106	87.2
2456.859	77.2
2460.61	79.2
2464.356	73.2
2468.1	76.2
2471.84	87.2
2475.577	72.2
2479.311	73.2
2483.041	70.2
2486.768	72.2
2490.492	75.2
2494.213	70.2
2497.93	73.2
2501.644	71.2
2505.355	60.2
2509.062	63.2
2512.766	58.2
2516.467	62.2
2520.165	62.2
2523.859	65.2
2527.551	54.2
2531.239	63.2
2534.923	59.2
2538.605	53.2
2542.283	52.2
2545.958	63.2
2549.63	58.2
2553.299	55.2
2556.964	49.2
2560.626	50.2
2564.285	53.2
2567.941	46.2
2571.594	46.2
2575.243	50.2
2578.89	41.2
2582.533	45.2
2586.173	44.2
2589.809	50.2
2593.443	51.2
2597.073	47.2
2600.701	47.2
2604.325	40.2
2607.946	34.2
2611.564	44.2
2615.178	44.2
2618.79	40.2
2622.398	39.2
2626.004	42.2
2629.606	34.2
2633.205	38.2
2636.801	34.2
2640.394	46.2
2643.983	38.2
2647.57	35.2
2651.153	33.2
2654.734	34.2
2658.311	36.2
2661.885	40.2
2665.456	42.2
2669.025	36.2
2672.589	35.2
2676.151	33.2
2679.71	27.2
2683.266	27.2
2686.819	40.2
2690.368	36.2
2693.915	37.2
2697.458	24.2
2700.999	30.2
2704.536	33.2
2708.071	31.2
2711.602	26.2
2715.13	26.2
2718.656	29.2
2722.178	25.2
2725.697	24.2
2729.214	24.2
2732.727	28.2
2736.237	25.2
2739.744	22.2
2743.249	19.2
2746.75	15.2
2750.248	19.2
2753.743	16.2
2757.236	15.2
2760.725	11.2
2764.211	15.2
2767.695	10.2
2771.175	15.2
2774.652	18.2
2778.127	15.2
2781.598	21.2
2785.067	11.2
2788.532	16.2
2791.995	13.2
2795.455	11.2
2798.911	10.2
2802.365	16.2
2805.816	8.2
2809.264	13.2
2812.709	5.2
2816.151	16.2
2819.59	24.2
2823.026	17.2
2826.46	16.2
2829.89	15.2
2833.318	16.2
2836.742	24.2
2840.164	16.2
2843.583	12.2
2846.999	14.2
2850.412	13.2
2853.822	12.2
2857.229	19.2
2860.634	15.2
2864.035	12.2
2867.434	18.2
2870.83	23.2
2874.223	24.2
2877.613	24.2
2881	24.2
2884.385	26.2
2887.766	26.2
2891.145	25.2
2894.521	26.2
2897.894	27.2
2901.264	26.2
2904.631	26.2
2907.996	26.2
2911.358	33.2
2914.717	19.2
2918.073	24.2
2921.426	26.2
2924.777	30.2
2928.124	31.2
2931.469	36.2
2934.811	39.2
2938.15	43.2
2941.487	37.2
2944.821	33.2
2948.152	37.2
2951.48	35.2
2954.805	31.2
2958.128	34.2
2961.447	37.2
2964.765	30.2
2968.079	30.2
2971.39	36.2
2974.699	28.2
2978.005	38.2
2981.308	34.2
2984.609	36.2
2987.907	37.2
2991.202	38.2
2994.494	37.2
2997.784	30.2
3001.07	32.2
3004.355	41.2
3007.636	38.2
3010.915	34.2
3014.191	33.2
3017.464	35.2
3020.734	40.2
3024.002	41.2
3027.267	36.2
3030.53	43.2
3033.789	36.2
3037.046	38.2
3040.301	44.2
3043.552	49.2
3046.801	50.2
3050.048	51.2
3053.291	58.2
3056.532	55.2
3059.771	58.2
3063.006	60.2
3066.239	62.2
3069.469	65.2
3072.697	62.2
3075.922	74.2
3079.144	69.2
3082.364	75.2
3085.581	70.2
3088.795	88.2
3092.007	82.2
3095.216	80.2
3098.423	83.2
3101.627	80.2
3104.828	93.2
3108.026	88.2
3111.222	90.2
3114.416	96.2
3117.607	95.2
3120.795	98.2
3123.98	96.2
3127.163	109.2
3130.344	107.2
3133.521	108.2
3136.696	111.2
3139.869	107.2
3143.039	114.2
3146.206	123.2
3149.371	117.2
3152.533	124.2
3155.693	118.2
3158.85	119.2
3162.005	124.2
3165.157	127.2
3168.306	128.2
3171.453	124.2
3174.597	120.2
3177.739	138.2
3180.878	126.2
3184.014	123.2
3187.149	127.2
3190.28	124.2
3193.409	128.2
3196.536	119.2
3199.659	126.2
3202.781	123.2
3205.9	127.2
3209.016	130.2
3212.13	130.2
3215.241	125.2
3218.35	126.2
3221.456	128.2
3224.56	115.2
3227.661	118.2
3230.76	122.2
3233.856	120.2
3236.95	113.2
3240.041	110.2
3243.13	115.2
3246.216	108.2
3249.3	104.2
3252.382	109.2
3255.46	105.2
3258.537	112.2
3261.611	96.2
3264.682	101.2
3267.751	107.2
3270.818	87.2
3273.882	99.2
3276.943	91.2
3280.002	94.2
3283.059	98.2
3286.113	90.2
3289.165	90.2
3292.214	95.2
3295.261	97.2
3298.306	84.2
3301.348	89.2
3304.387	90.2
3307.425	86.2
3310.459	87.2
3313.492	84.2
3316.521	87.2
3319.549	90.2
3322.574	81.2
3325.597	86.2
3328.617	85.2
3331.635	91.2
3334.65	93.2
3337.663	78.2
3340.674	82.2
3343.682	88.2
3346.688	79.2
3349.691	87.2
3352.692	81.2
3355.691	80.2
3358.687	83.2
3361.681	76.2
3364.673	80.2
3367.662	77.2
3370.649	84.2
3373.633	74.2
3376.615	72.2
3379.595	73.2
3382.572	70.2
3385.547	68.2
3388.52	67.2
3391.49	67.2
3394.458	58.2
3397.424	65.2
3400.387	68.2
3403.348	58.2
3406.307	52.2
3409.263	58.2
3412.217	55.2
3415.168	61.2
3418.118	55.2
3421.065	51.2
3424.009	54.2
3426.951	52.2
3429.891	52.2
3432.829	54.2
3435.764	58.2
3438.697	43.2
3441.628	39.2
3444.557	37.2
3447.483	35.2
3450.407	31.2
3453.328	27.2
3456.247	32.2
3459.164	23.2
3462.079	20.2
3464.991	22.2
3467.902	21.2
3470.809	26.2
3473.715	17.2
3476.618	16.2
3479.519	13.2
3482.418	12.2
3485.315	17.2
3488.209	4.2
3491.101	5.2
3493.99	4.2
3496.878	2.2
3499.763	-0.8
3502.646	2.2
3505.527	-0.8
3508.405	-3.8
3511.281	-2.8
3514.155	-4.8
3517.027	-12.8
3519.897	-1.8
3522.764	-8.8
3525.629	-3.8
3528.492	-5.8
3531.352	-15.8
3534.211	-18.8
3537.067	-16.8
3539.921	-12.8
3542.773	-21.8
3545.622	-18.8
3548.469	-17.8
3551.315	-23.8
3554.157	-24.8
3556.998	-26.8
3559.837	-28.8
3562.673	-22.8
3565.507	-24.8
3568.339	-26.8
3571.169	-25.8
3573.996	-24.8
3576.822	-36.8
3579.645	-26.8
3582.466	-27.8
3585.285	-31.8
3588.101	-33.8
3590.916	-28.8
3593.728	-35.8
3596.538	-38.8
3599.346	-39.8
3602.152	-32.8
3604.956	-36.8
3607.757	-32.8
3610.556	-32.8
3613.354	-44.8
3616.149	-36.8
3618.942	-34.8
3621.732	-36.8
3624.521	-30.8
3627.307	-36.8
3630.092	-39.8
3632.874	-42.8
3635.654	-40.8
3638.432	-41.8
3641.208	-45.8
3643.982	-38.8
3646.753	-43.8
3649.523	-39.8
3652.29	-45.8
3655.055	-42.8
3657.818	-44.8
3660.579	-42.8
3663.338	-41.8
3666.095	-42.8
3668.849	-43.8
3671.602	-39.8
3674.352	-45.8
3677.101	-46.8
3679.847	-44.8
3682.591	-52.8
3685.333	-44.8
3688.073	-52.8
3690.811	-46.8
3693.547	-45.8
3696.281	-46.8
3699.013	-45.8
3701.742	-51.8
3704.47	-47.8
3707.195	-46.8
3709.919	-47.8
3712.64	-47.8
3715.359	-45.8
3718.076	-52.8
3720.792	-49.8
3723.505	-47.8
3726.216	-46.8
3728.925	-54.8
3731.632	-46.8
3734.336	-52.8
3737.039	-47.8
3739.74	-51.8
3742.439	-50.8
3745.136	-50.8
3747.83	-49.8
3750.523	-54.8
3753.213	-62.8
3755.902	-51.8
3758.589	-47.8
3761.273	-50.8
3763.956	-46.8
3766.636	-50.8
3769.315	-47.8
3771.991	-52.8
3774.665	-54.8
3777.338	-50.8
3780.008	-50.8
3782.677	-56.8
3785.343	-51.8
3788.007	-53.8
3790.67	-54.8
3793.33	-46.8
3795.989	-54.8
3798.645	-53.8
3801.299	-46.8
3803.952	-53.8
3806.602	-51.8
3809.251	-51.8
3811.897	-56.8
3814.542	-59.8
3817.184	-49.8
3819.825	-47.8
3822.463	-53.8
3825.1	-51.8
3827.735	-54.8
3830.367	-52.8
3832.998	-55.8
3835.627	-50.8
3838.253	-44.8
3840.878	-43.8
3843.501	-46.8
3846.122	-53.8
3848.741	-52.8
3851.358	-48.8
3853.973	-50.8
3856.586	-53.8
3859.197	-50.8
3861.806	-55.8
3864.414	-57.8
3867.019	-54.8
3869.622	-44.8
3872.224	-39.8
3874.823	-31.8
3877.421	-23.8
3880.016	-12.8
3882.61	3.2
3885.202	1.2
3887.792	-4.8
3890.38	-20.8
3892.966	-34.8
3895.55	-44.8
3898.132	-48.8
3900.713	-56.8
3903.291	-54.8
3905.868	-46.8
3908.442	-51.8
3911.015	-51.8
3913.586	-52.8
3916.155	-50.8
3918.722	-51.8
3921.287	-47.8
3923.85	-44.8
3926.411	-54.8
3928.971	-61.8
3931.528	-56.8
3934.084	-53.8
3936.638	-52.8
3939.19	-58.8
3941.74	-53.8
3944.288	-54.8
3946.834	-54.8
3949.378	-54.8
3951.921	-54.8
3954.462	-48.8
3957	-45.8
3959.537	-45.8
3962.072	-47.8
3964.606	-43.8
3967.137	-47.8
3969.667	-56.8
3972.194	-50.8
3974.72	-50.8
3977.244	-47.8
3979.766	-60.8
3982.286	-53.8
3984.805	-59.8
3987.321	-49.8
3989.836	-50.8
3992.349	-50.8
3994.86	-52.8
3997.369	-50.8
3999.877	-53.8
4002.382	-51.8
4004.886	-48.8
4007.388	-48.8
4009.888	-50.8
4012.386	-53.8
4014.883	-46.8
4017.377	-54.8
4019.87	-55.8
4022.361	-56.8
4024.85	-55.8
4027.338	-54.8
4029.823	-53.8
4032.307	-54.8
4034.789	-48.8
4037.269	-51.8
4039.747	-52.8
4042.224	-53.8
4044.699	-54.8
4047.172	-58.8
4049.643	-56.8
4052.112	-53.8
4054.58	-52.8
4057.046	-54.8
4059.51	-53.8
4061.972	-57.8
4064.432	-50.8
4066.891	-47.8
4069.348	-48.8
4071.803	-42.8
4074.256	-45.8
4076.708	-50.8
4079.158	-56.8
4081.606	-53.8
4084.052	-49.8
4086.497	-50.8
4088.939	-50.8
4091.38	-55.8
4093.819	-59.8
4096.257	-52.8
4098.693	-58.8
4101.127	-48.8
4103.559	-58.8
4105.989	20.2
4108.418	11.2
4110.845	9.2
4113.27	11.2
4115.694	19.2
4118.115	18.2
4120.535	-51.8
4122.954	-53.8
4125.37	-54.8
4127.785	-49.8
4130.198	-51.8
4132.609	-53.8
4135.019	-53.8
4137.427	-55.8
4139.833	-50.8
4142.237	-49.8
