Data from 2018-3-7_conc=2_n=5_RamanShift_05.txt Node
Date: Wed Mar 07 10:53:22 IST 2018
User: aro
Spectrometer: QEPB0276
Trigger mode: 0
Integration Time (sec): 3.000000E1
Scans to average: 1
Electric dark correction enabled: true
Nonlinearity correction enabled: false
Boxcar width: 0
XAxis mode: Raman Shifts
Number of Pixels in Spectrum: 1044
>>>>>Begin Spectral Data<<<<<
160.701	11.4
166.742	19.4
172.777	47.4
178.805	128.4
184.826	351.4
190.841	725.4
196.849	1194.4
202.85	1544.4
208.845	1697.4
214.833	1687.4
220.815	1675.4
226.789	1672.4
232.758	1690.4
238.719	1697.4
244.674	1691.4
250.623	1696.4
256.565	1671.4
262.5	1652.4
268.429	1649.4
274.351	1635.4
280.267	1637.4
286.176	1643.4
292.079	1632.4
297.975	1626.4
303.865	1633.4
309.748	1638.4
315.625	1626.4
321.495	1656.4
327.359	1653.4
333.217	1666.4
339.068	1677.4
344.912	1663.4
350.751	1653.4
356.583	1670.4
362.408	1670.4
368.227	1673.4
374.04	1690.4
379.847	1698.4
385.647	1705.4
391.44	1708.4
397.228	1728.4
403.009	1733.4
408.784	1736.4
414.553	1762.4
420.315	1757.4
426.071	1774.4
431.821	1744.4
437.565	1758.4
443.302	1751.4
449.033	1739.4
454.758	1727.4
460.477	1714.4
466.189	1688.4
471.896	1693.4
477.596	1685.4
483.29	1670.4
488.978	1672.4
494.66	1655.4
500.335	1611.4
506.005	1556.4
511.668	1490.4
517.325	1427.4
522.977	1352.4
528.622	1325.4
534.261	1289.4
539.894	1257.4
545.521	1246.4
551.141	1226.4
556.756	1222.4
562.365	1213.4
567.968	1187.4
573.565	1197.4
579.155	1162.4
584.74	1177.4
590.319	1167.4
595.892	1181.4
601.459	1175.4
607.02	1165.4
612.575	1159.4
618.124	1152.4
623.667	1133.4
629.204	1107.4
634.735	1105.4
640.261	1089.4
645.781	1088.4
651.294	1082.4
656.802	1082.4
662.304	1069.4
667.8	1072.4
673.29	1067.4
678.775	1071.4
684.254	1057.4
689.726	1051.4
695.193	1063.4
700.655	1056.4
706.11	1034.4
711.56	1027.4
717.004	1030.4
722.442	1013.4
727.874	995.4
733.301	1009.4
738.722	1004.4
744.137	1006.4
749.547	996.4
754.951	1007.4
760.349	1001.4
765.741	1023.4
771.128	996.4
776.509	1013.4
781.885	1039.4
787.254	1035.4
792.618	1032.4
797.977	1048.4
803.33	1024.4
808.677	1025.4
814.019	1034.4
819.355	1009.4
824.686	986.4
830.011	1005.4
835.33	985.4
840.644	976.4
845.952	981.4
851.255	966.4
856.552	978.4
861.844	960.4
867.13	937.4
872.41	952.4
877.686	947.4
882.955	941.4
888.219	938.4
893.478	921.4
898.731	894.4
903.979	872.4
909.221	886.4
914.458	862.4
919.69	869.4
924.916	863.4
930.136	882.4
935.351	859.4
940.561	880.4
945.766	871.4
950.965	865.4
956.158	861.4
961.347	861.4
966.529	843.4
971.707	812.4
976.879	805.4
982.046	799.4
987.208	817.4
992.364	798.4
997.515	797.4
1002.66	810.4
1007.801	832.4
1012.936	826.4
1018.066	835.4
1023.19	828.4
1028.309	836.4
1033.423	829.4
1038.532	815.4
1043.636	822.4
1048.734	819.4
1053.827	820.4
1058.915	794.4
1063.998	788.4
1069.075	791.4
1074.147	795.4
1079.214	783.4
1084.276	802.4
1089.333	792.4
1094.385	805.4
1099.431	786.4
1104.472	788.4
1109.509	784.4
1114.54	762.4
1119.565	761.4
1124.586	753.4
1129.602	752.4
1134.613	735.4
1139.618	726.4
1144.619	718.4
1149.614	737.4
1154.604	731.4
1159.589	737.4
1164.57	736.4
1169.545	737.4
1174.515	750.4
1179.48	733.4
1184.44	729.4
1189.395	723.4
1194.345	712.4
1199.29	706.4
1204.23	718.4
1209.165	717.4
1214.095	720.4
1219.021	723.4
1223.941	727.4
1228.856	731.4
1233.766	720.4
1238.672	737.4
1243.572	736.4
1248.467	733.4
1253.358	716.4
1258.244	710.4
1263.124	687.4
1268	671.4
1272.871	661.4
1277.737	659.4
1282.599	665.4
1287.455	657.4
1292.306	657.4
1297.153	656.4
1301.995	668.4
1306.832	664.4
1311.664	668.4
1316.491	682.4
1321.314	673.4
1326.132	672.4
1330.945	652.4
1335.753	637.4
1340.556	625.4
1345.354	608.4
1350.148	594.4
1354.937	591.4
1359.722	584.4
1364.501	560.4
1369.276	560.4
1374.046	548.4
1378.811	551.4
1383.572	548.4
1388.327	553.4
1393.079	549.4
1397.825	550.4
1402.567	543.4
1407.304	559.4
1412.036	552.4
1416.764	553.4
1421.487	554.4
1426.205	557.4
1430.919	546.4
1435.628	566.4
1440.333	557.4
1445.032	551.4
1449.727	587.4
1454.418	567.4
1459.104	568.4
1463.785	559.4
1468.462	551.4
1473.134	539.4
1477.802	524.4
1482.465	507.4
1487.123	507.4
1491.777	491.4
1496.426	477.4
1501.071	471.4
1505.711	475.4
1510.347	473.4
1514.978	456.4
1519.604	455.4
1524.226	464.4
1528.844	453.4
1533.457	460.4
1538.065	460.4
1542.669	449.4
1547.269	453.4
1551.864	463.4
1556.454	482.4
1561.041	487.4
1565.622	482.4
1570.199	475.4
1574.772	472.4
1579.34	494.4
1583.904	483.4
1588.464	492.4
1593.019	506.4
1597.569	514.4
1602.115	493.4
1606.657	501.4
1611.195	494.4
1615.728	488.4
1620.256	483.4
1624.78	493.4
1629.3	491.4
1633.816	497.4
1638.327	492.4
1642.834	486.4
1647.336	482.4
1651.834	496.4
1656.328	488.4
1660.817	488.4
1665.302	473.4
1669.783	460.4
1674.259	462.4
1678.732	444.4
1683.199	424.4
1687.663	412.4
1692.122	398.4
1696.577	382.4
1701.028	373.4
1705.474	347.4
1709.917	346.4
1714.355	350.4
1718.788	332.4
1723.218	335.4
1727.643	329.4
1732.064	330.4
1736.481	325.4
1740.893	317.4
1745.301	319.4
1749.705	314.4
1754.105	291.4
1758.501	299.4
1762.893	298.4
1767.28	284.4
1771.663	286.4
1776.042	286.4
1780.417	278.4
1784.787	265.4
1789.154	268.4
1793.516	258.4
1797.874	257.4
1802.228	253.4
1806.578	261.4
1810.924	258.4
1815.266	249.4
1819.603	249.4
1823.937	258.4
1828.266	247.4
1832.591	259.4
1836.913	254.4
1841.23	253.4
1845.543	247.4
1849.852	251.4
1854.156	255.4
1858.457	250.4
1862.754	246.4
1867.047	248.4
1871.335	257.4
1875.62	255.4
1879.9	255.4
1884.177	240.4
1888.449	239.4
1892.718	249.4
1896.982	238.4
1901.243	232.4
1905.499	228.4
1909.752	216.4
1914	217.4
1918.245	215.4
1922.485	211.4
1926.722	212.4
1930.954	206.4
1935.183	212.4
1939.408	210.4
1943.628	198.4
1947.845	208.4
1952.058	203.4
1956.267	203.4
1960.472	205.4
1964.673	190.4
1968.87	186.4
1973.063	199.4
1977.252	200.4
1981.438	195.4
1985.619	191.4
1989.797	196.4
1993.971	195.4
1998.14	199.4
2002.306	199.4
2006.469	205.4
2010.627	200.4
2014.781	199.4
2018.932	183.4
2023.078	191.4
2027.221	193.4
2031.36	197.4
2035.495	187.4
2039.627	183.4
2043.754	185.4
2047.878	173.4
2051.998	180.4
2056.114	175.4
2060.226	174.4
2064.334	175.4
2068.439	171.4
2072.54	165.4
2076.637	165.4
2080.73	173.4
2084.82	167.4
2088.906	170.4
2092.988	168.4
2097.066	165.4
2101.14	166.4
2105.211	160.4
2109.278	164.4
2113.342	148.4
2117.401	163.4
2121.457	155.4
2125.509	152.4
2129.558	152.4
2133.602	148.4
2137.643	148.4
2141.681	142.4
2145.714	149.4
2149.744	152.4
2153.77	156.4
2157.793	153.4
2161.812	159.4
2165.827	148.4
2169.838	145.4
2173.846	144.4
2177.851	131.4
2181.851	140.4
2185.848	137.4
2189.841	136.4
2193.831	136.4
2197.817	138.4
2201.799	134.4
2205.778	131.4
2209.753	145.4
2213.725	141.4
2217.693	142.4
2221.657	127.4
2225.618	127.4
2229.575	126.4
2233.529	126.4
2237.479	133.4
2241.425	125.4
2245.368	128.4
2249.307	122.4
2253.243	127.4
2257.175	126.4
2261.104	114.4
2265.029	123.4
2268.95	118.4
2272.868	117.4
2276.783	110.4
2280.694	109.4
2284.601	103.4
2288.505	111.4
2292.405	110.4
2296.302	115.4
2300.195	100.4
2304.085	107.4
2307.971	108.4
2311.854	104.4
2315.734	92.4
2319.609	105.4
2323.482	97.4
2327.351	103.4
2331.216	117.4
2335.078	125.4
2338.937	116.4
2342.792	107.4
2346.643	103.4
2350.492	104.4
2354.336	99.4
2358.178	96.4
2362.015	102.4
2365.85	94.4
2369.681	98.4
2373.508	105.4
2377.333	99.4
2381.153	104.4
2384.971	93.4
2388.785	92.4
2392.595	102.4
2396.402	103.4
2400.206	98.4
2404.007	98.4
2407.804	99.4
2411.597	95.4
2415.388	91.4
2419.174	91.4
2422.958	100.4
2426.738	90.4
2430.515	90.4
2434.289	89.4
2438.059	84.4
2441.825	80.4
2445.589	87.4
2449.349	90.4
2453.106	95.4
2456.859	85.4
2460.61	85.4
2464.356	81.4
2468.1	80.4
2471.84	75.4
2475.577	73.4
2479.311	77.4
2483.041	81.4
2486.768	71.4
2490.492	78.4
2494.213	73.4
2497.93	79.4
2501.644	81.4
2505.355	70.4
2509.062	75.4
2512.766	67.4
2516.467	67.4
2520.165	69.4
2523.859	60.4
2527.551	66.4
2531.239	64.4
2534.923	59.4
2538.605	59.4
2542.283	55.4
2545.958	67.4
2549.63	60.4
2553.299	61.4
2556.964	53.4
2560.626	52.4
2564.285	56.4
2567.941	47.4
2571.594	51.4
2575.243	54.4
2578.89	47.4
2582.533	52.4
2586.173	50.4
2589.809	58.4
2593.443	60.4
2597.073	47.4
2600.701	51.4
2604.325	42.4
2607.946	41.4
2611.564	43.4
2615.178	49.4
2618.79	41.4
2622.398	46.4
2626.004	47.4
2629.606	40.4
2633.205	48.4
2636.801	47.4
2640.394	47.4
2643.983	44.4
2647.57	41.4
2651.153	39.4
2654.734	39.4
2658.311	41.4
2661.885	43.4
2665.456	46.4
2669.025	41.4
2672.589	39.4
2676.151	42.4
2679.71	36.4
2683.266	32.4
2686.819	40.4
2690.368	33.4
2693.915	31.4
2697.458	30.4
2700.999	37.4
2704.536	39.4
2708.071	36.4
2711.602	31.4
2715.13	28.4
2718.656	31.4
2722.178	30.4
2725.697	27.4
2729.214	26.4
2732.727	30.4
2736.237	27.4
2739.744	18.4
2743.249	30.4
2746.75	27.4
2750.248	24.4
2753.743	22.4
2757.236	22.4
2760.725	24.4
2764.211	18.4
2767.695	13.4
2771.175	19.4
2774.652	15.4
2778.127	20.4
2781.598	17.4
2785.067	12.4
2788.532	14.4
2791.995	23.4
2795.455	13.4
2798.911	20.4
2802.365	22.4
2805.816	11.4
2809.264	14.4
2812.709	12.4
2816.151	19.4
2819.59	28.4
2823.026	18.4
2826.46	18.4
2829.89	18.4
2833.318	13.4
2836.742	25.4
2840.164	21.4
2843.583	17.4
2846.999	25.4
2850.412	20.4
2853.822	15.4
2857.229	26.4
2860.634	14.4
2864.035	15.4
2867.434	25.4
2870.83	31.4
2874.223	31.4
2877.613	30.4
2881	29.4
2884.385	34.4
2887.766	31.4
2891.145	22.4
2894.521	35.4
2897.894	31.4
2901.264	27.4
2904.631	24.4
2907.996	24.4
2911.358	35.4
2914.717	29.4
2918.073	31.4
2921.426	30.4
2924.777	36.4
2928.124	42.4
2931.469	35.4
2934.811	40.4
2938.15	49.4
2941.487	50.4
2944.821	40.4
2948.152	43.4
2951.48	42.4
2954.805	41.4
2958.128	46.4
2961.447	47.4
2964.765	37.4
2968.079	37.4
2971.39	38.4
2974.699	33.4
2978.005	37.4
2981.308	38.4
2984.609	42.4
2987.907	37.4
2991.202	37.4
2994.494	34.4
2997.784	34.4
3001.07	41.4
3004.355	43.4
3007.636	48.4
3010.915	44.4
3014.191	36.4
3017.464	43.4
3020.734	45.4
3024.002	47.4
3027.267	47.4
3030.53	43.4
3033.789	52.4
3037.046	42.4
3040.301	46.4
3043.552	52.4
3046.801	53.4
3050.048	49.4
3053.291	55.4
3056.532	56.4
3059.771	53.4
3063.006	64.4
3066.239	69.4
3069.469	69.4
3072.697	70.4
3075.922	78.4
3079.144	76.4
3082.364	76.4
3085.581	75.4
3088.795	81.4
3092.007	87.4
3095.216	80.4
3098.423	86.4
3101.627	83.4
3104.828	90.4
3108.026	93.4
3111.222	94.4
3114.416	99.4
3117.607	100.4
3120.795	102.4
3123.98	103.4
3127.163	115.4
3130.344	113.4
3133.521	107.4
3136.696	112.4
3139.869	116.4
3143.039	112.4
3146.206	126.4
3149.371	126.4
3152.533	138.4
3155.693	121.4
3158.85	131.4
3162.005	139.4
3165.157	132.4
3168.306	127.4
3171.453	126.4
3174.597	122.4
3177.739	130.4
3180.878	138.4
3184.014	133.4
3187.149	130.4
3190.28	134.4
3193.409	135.4
3196.536	129.4
3199.659	136.4
3202.781	135.4
3205.9	131.4
3209.016	129.4
3212.13	131.4
3215.241	133.4
3218.35	122.4
3221.456	132.4
3224.56	118.4
3227.661	119.4
3230.76	116.4
3233.856	120.4
3236.95	115.4
3240.041	112.4
3243.13	119.4
3246.216	104.4
3249.3	112.4
3252.382	109.4
3255.46	112.4
3258.537	109.4
3261.611	106.4
3264.682	108.4
3267.751	104.4
3270.818	88.4
3273.882	104.4
3276.943	103.4
3280.002	106.4
3283.059	106.4
3286.113	90.4
3289.165	93.4
3292.214	99.4
3295.261	89.4
3298.306	98.4
3301.348	86.4
3304.387	88.4
3307.425	88.4
3310.459	81.4
3313.492	86.4
3316.521	84.4
3319.549	92.4
3322.574	82.4
3325.597	85.4
3328.617	87.4
3331.635	97.4
3334.65	89.4
3337.663	75.4
3340.674	83.4
3343.682	82.4
3346.688	82.4
3349.691	89.4
3352.692	86.4
3355.691	91.4
3358.687	85.4
3361.681	78.4
3364.673	81.4
3367.662	80.4
3370.649	83.4
3373.633	73.4
3376.615	73.4
3379.595	60.4
3382.572	67.4
3385.547	76.4
3388.52	67.4
3391.49	66.4
3394.458	64.4
3397.424	72.4
3400.387	67.4
3403.348	58.4
3406.307	62.4
3409.263	57.4
3412.217	60.4
3415.168	63.4
3418.118	49.4
3421.065	48.4
3424.009	54.4
3426.951	48.4
3429.891	54.4
3432.829	48.4
3435.764	56.4
3438.697	48.4
3441.628	34.4
3444.557	51.4
3447.483	34.4
3450.407	29.4
3453.328	35.4
3456.247	30.4
3459.164	32.4
3462.079	23.4
3464.991	28.4
3467.902	23.4
3470.809	25.4
3473.715	21.4
3476.618	20.4
3479.519	15.4
3482.418	16.4
3485.315	14.4
3488.209	8.4
3491.101	5.4
3493.99	3.4
3496.878	6.4
3499.763	0.4
3502.646	2.4
3505.527	-1.6
3508.405	3.4
3511.281	4.4
3514.155	-2.6
3517.027	-7.6
3519.897	-0.6
3522.764	-3.6
3525.629	-5.6
3528.492	-13.6
3531.352	-16.6
3534.211	-17.6
3537.067	-20.6
3539.921	-10.6
3542.773	-18.6
3545.622	-16.6
3548.469	-12.6
3551.315	-8.6
3554.157	-20.6
3556.998	-19.6
3559.837	-21.6
3562.673	-21.6
3565.507	-21.6
3568.339	-23.6
3571.169	-27.6
3573.996	-24.6
3576.822	-35.6
3579.645	-28.6
3582.466	-23.6
3585.285	-26.6
3588.101	-32.6
3590.916	-22.6
3593.728	-30.6
3596.538	-34.6
3599.346	-31.6
3602.152	-29.6
3604.956	-32.6
3607.757	-29.6
3610.556	-30.6
3613.354	-37.6
3616.149	-37.6
3618.942	-31.6
3621.732	-35.6
3624.521	-28.6
3627.307	-32.6
3630.092	-37.6
3632.874	-38.6
3635.654	-41.6
3638.432	-33.6
3641.208	-37.6
3643.982	-38.6
3646.753	-41.6
3649.523	-32.6
3652.29	-40.6
3655.055	-36.6
3657.818	-39.6
3660.579	-42.6
3663.338	-38.6
3666.095	-42.6
3668.849	-39.6
3671.602	-42.6
3674.352	-41.6
3677.101	-45.6
3679.847	-37.6
3682.591	-44.6
3685.333	-38.6
3688.073	-42.6
3690.811	-41.6
3693.547	-39.6
3696.281	-41.6
3699.013	-46.6
3701.742	-42.6
3704.47	-42.6
3707.195	-47.6
3709.919	-45.6
3712.64	-43.6
3715.359	-44.6
3718.076	-45.6
3720.792	-45.6
3723.505	-48.6
3726.216	-40.6
3728.925	-47.6
3731.632	-44.6
3734.336	-46.6
3737.039	-45.6
3739.74	-46.6
3742.439	-48.6
3745.136	-45.6
3747.83	-37.6
3750.523	-47.6
3753.213	-55.6
3755.902	-48.6
3758.589	-45.6
3761.273	-47.6
3763.956	-50.6
3766.636	-46.6
3769.315	-40.6
3771.991	-52.6
3774.665	-50.6
3777.338	-48.6
3780.008	-46.6
3782.677	-54.6
3785.343	-42.6
3788.007	-44.6
3790.67	-46.6
3793.33	-43.6
3795.989	-51.6
3798.645	-51.6
3801.299	-51.6
3803.952	-48.6
3806.602	-54.6
3809.251	-55.6
3811.897	-52.6
3814.542	-57.6
3817.184	-49.6
3819.825	-42.6
3822.463	-44.6
3825.1	-40.6
3827.735	-51.6
3830.367	-46.6
3832.998	-52.6
3835.627	-52.6
3838.253	-47.6
3840.878	-46.6
3843.501	-47.6
3846.122	-45.6
3848.741	-46.6
3851.358	-44.6
3853.973	-44.6
3856.586	-42.6
3859.197	-44.6
3861.806	-52.6
3864.414	-51.6
3867.019	-51.6
3869.622	-42.6
3872.224	-40.6
3874.823	-31.6
3877.421	-28.6
3880.016	-21.6
3882.61	-3.6
3885.202	-9.6
3887.792	-11.6
3890.38	-22.6
3892.966	-41.6
3895.55	-49.6
3898.132	-48.6
3900.713	-49.6
3903.291	-50.6
3905.868	-46.6
3908.442	-46.6
3911.015	-47.6
3913.586	-54.6
3916.155	-51.6
3918.722	-52.6
3921.287	-50.6
3923.85	-43.6
3926.411	-53.6
3928.971	-56.6
3931.528	-50.6
3934.084	-45.6
3936.638	-47.6
3939.19	-55.6
3941.74	-45.6
3944.288	-43.6
3946.834	-46.6
3949.378	-51.6
3951.921	-49.6
3954.462	-50.6
3957	-46.6
3959.537	-43.6
3962.072	-47.6
3964.606	-47.6
3967.137	-45.6
3969.667	-44.6
3972.194	-45.6
3974.72	-43.6
3977.244	-46.6
3979.766	-44.6
3982.286	-50.6
3984.805	-55.6
3987.321	-45.6
3989.836	-44.6
3992.349	-51.6
3994.86	-53.6
3997.369	-50.6
3999.877	-51.6
4002.382	-47.6
4004.886	-43.6
4007.388	-43.6
4009.888	-47.6
4012.386	-50.6
4014.883	-48.6
4017.377	-45.6
4019.87	-48.6
4022.361	-49.6
4024.85	-47.6
4027.338	-49.6
4029.823	-52.6
4032.307	-50.6
4034.789	-44.6
4037.269	-48.6
4039.747	-51.6
4042.224	-54.6
4044.699	-53.6
4047.172	-53.6
4049.643	-52.6
4052.112	-47.6
4054.58	-49.6
4057.046	-44.6
4059.51	-50.6
4061.972	-51.6
4064.432	-46.6
4066.891	-45.6
4069.348	-43.6
4071.803	-42.6
4074.256	-45.6
4076.708	-48.6
4079.158	-51.6
4081.606	-48.6
4084.052	-49.6
4086.497	-43.6
4088.939	-46.6
4091.38	-51.6
4093.819	-50.6
4096.257	-54.6
4098.693	-52.6
4101.127	-46.6
4103.559	-52.6
4105.989	18.4
4108.418	18.4
4110.845	5.4
4113.27	13.4
4115.694	12.4
4118.115	14.4
4120.535	-52.6
4122.954	-43.6
4125.37	-50.6
4127.785	-42.6
4130.198	-48.6
4132.609	-52.6
4135.019	-51.6
4137.427	-55.6
4139.833	-49.6
4142.237	-49.6
