Data from 2018-3-7_conc=3_n=7_RamanShift_01.txt Node
Date: Wed Mar 07 11:34:52 IST 2018
User: aro
Spectrometer: QEPB0276
Trigger mode: 0
Integration Time (sec): 3.000000E1
Scans to average: 1
Electric dark correction enabled: true
Nonlinearity correction enabled: false
Boxcar width: 0
XAxis mode: Raman Shifts
Number of Pixels in Spectrum: 1044
>>>>>Begin Spectral Data<<<<<
160.701	18.8
166.742	23.8
172.777	45.8
178.805	140.8
184.826	342.8
190.841	725.8
196.849	1176.8
202.85	1552.8
208.845	1693.8
214.833	1701.8
220.815	1676.8
226.789	1655.8
232.758	1669.8
238.719	1674.8
244.674	1663.8
250.623	1647.8
256.565	1635.8
262.5	1623.8
268.429	1604.8
274.351	1578.8
280.267	1573.8
286.176	1577.8
292.079	1584.8
297.975	1575.8
303.865	1592.8
309.748	1567.8
315.625	1577.8
321.495	1578.8
327.359	1578.8
333.217	1583.8
339.068	1588.8
344.912	1596.8
350.751	1591.8
356.583	1595.8
362.408	1595.8
368.227	1606.8
374.04	1612.8
379.847	1610.8
385.647	1614.8
391.44	1648.8
397.228	1630.8
403.009	1659.8
408.784	1666.8
414.553	1676.8
420.315	1646.8
426.071	1671.8
431.821	1678.8
437.565	1680.8
443.302	1668.8
449.033	1652.8
454.758	1669.8
460.477	1641.8
466.189	1619.8
471.896	1609.8
477.596	1593.8
483.29	1600.8
488.978	1583.8
494.66	1581.8
500.335	1546.8
506.005	1483.8
511.668	1429.8
517.325	1370.8
522.977	1316.8
528.622	1276.8
534.261	1258.8
539.894	1233.8
545.521	1217.8
551.141	1213.8
556.756	1189.8
562.365	1204.8
567.968	1175.8
573.565	1154.8
579.155	1153.8
584.74	1141.8
590.319	1139.8
595.892	1167.8
601.459	1136.8
607.02	1138.8
612.575	1124.8
618.124	1115.8
623.667	1117.8
629.204	1107.8
634.735	1076.8
640.261	1080.8
645.781	1080.8
651.294	1067.8
656.802	1064.8
662.304	1061.8
667.8	1060.8
673.29	1053.8
678.775	1060.8
684.254	1052.8
689.726	1024.8
695.193	1033.8
700.655	1020.8
706.11	1026.8
711.56	1019.8
717.004	1006.8
722.442	1000.8
727.874	997.8
733.301	1013.8
738.722	987.8
744.137	994.8
749.547	991.8
754.951	981.8
760.349	970.8
765.741	993.8
771.128	972.8
776.509	1007.8
781.885	1018.8
787.254	1029.8
792.618	1026.8
797.977	1014.8
803.33	996.8
808.677	1005.8
814.019	1001.8
819.355	989.8
824.686	973.8
830.011	992.8
835.33	969.8
840.644	976.8
845.952	958.8
851.255	963.8
856.552	961.8
861.844	943.8
867.13	912.8
872.41	922.8
877.686	920.8
882.955	931.8
888.219	916.8
893.478	895.8
898.731	892.8
903.979	872.8
909.221	876.8
914.458	849.8
919.69	864.8
924.916	866.8
930.136	861.8
935.351	861.8
940.561	859.8
945.766	849.8
950.965	855.8
956.158	851.8
961.347	830.8
966.529	838.8
971.707	801.8
976.879	793.8
982.046	800.8
987.208	795.8
992.364	796.8
997.515	796.8
1002.66	791.8
1007.801	809.8
1012.936	825.8
1018.066	821.8
1023.19	819.8
1028.309	813.8
1033.423	807.8
1038.532	807.8
1043.636	813.8
1048.734	803.8
1053.827	792.8
1058.915	793.8
1063.998	775.8
1069.075	776.8
1074.147	782.8
1079.214	774.8
1084.276	789.8
1089.333	781.8
1094.385	787.8
1099.431	779.8
1104.472	772.8
1109.509	781.8
1114.54	764.8
1119.565	742.8
1124.586	740.8
1129.602	722.8
1134.613	732.8
1139.618	722.8
1144.619	722.8
1149.614	728.8
1154.604	720.8
1159.589	724.8
1164.57	726.8
1169.545	732.8
1174.515	724.8
1179.48	731.8
1184.44	723.8
1189.395	702.8
1194.345	709.8
1199.29	691.8
1204.23	699.8
1209.165	699.8
1214.095	693.8
1219.021	708.8
1223.941	706.8
1228.856	712.8
1233.766	710.8
1238.672	721.8
1243.572	731.8
1248.467	734.8
1253.358	713.8
1258.244	697.8
1263.124	677.8
1268	672.8
1272.871	661.8
1277.737	648.8
1282.599	648.8
1287.455	650.8
1292.306	650.8
1297.153	661.8
1301.995	653.8
1306.832	659.8
1311.664	663.8
1316.491	669.8
1321.314	670.8
1326.132	667.8
1330.945	650.8
1335.753	632.8
1340.556	619.8
1345.354	605.8
1350.148	606.8
1354.937	585.8
1359.722	567.8
1364.501	558.8
1369.276	551.8
1374.046	538.8
1378.811	546.8
1383.572	552.8
1388.327	540.8
1393.079	545.8
1397.825	542.8
1402.567	542.8
1407.304	553.8
1412.036	543.8
1416.764	550.8
1421.487	549.8
1426.205	548.8
1430.919	551.8
1435.628	546.8
1440.333	563.8
1445.032	553.8
1449.727	564.8
1454.418	573.8
1459.104	556.8
1463.785	549.8
1468.462	531.8
1473.134	532.8
1477.802	517.8
1482.465	513.8
1487.123	495.8
1491.777	477.8
1496.426	478.8
1501.071	473.8
1505.711	465.8
1510.347	460.8
1514.978	463.8
1519.604	460.8
1524.226	462.8
1528.844	464.8
1533.457	455.8
1538.065	449.8
1542.669	441.8
1547.269	449.8
1551.864	460.8
1556.454	468.8
1561.041	473.8
1565.622	475.8
1570.199	475.8
1574.772	481.8
1579.34	487.8
1583.904	483.8
1588.464	503.8
1593.019	496.8
1597.569	498.8
1602.115	487.8
1606.657	491.8
1611.195	491.8
1615.728	488.8
1620.256	477.8
1624.78	492.8
1629.3	500.8
1633.816	480.8
1638.327	502.8
1642.834	488.8
1647.336	480.8
1651.834	494.8
1656.328	490.8
1660.817	486.8
1665.302	471.8
1669.783	468.8
1674.259	458.8
1678.732	442.8
1683.199	434.8
1687.663	412.8
1692.122	390.8
1696.577	380.8
1701.028	361.8
1705.474	345.8
1709.917	343.8
1714.355	340.8
1718.788	336.8
1723.218	328.8
1727.643	318.8
1732.064	330.8
1736.481	330.8
1740.893	313.8
1745.301	311.8
1749.705	308.8
1754.105	296.8
1758.501	277.8
1762.893	285.8
1767.28	275.8
1771.663	277.8
1776.042	278.8
1780.417	274.8
1784.787	271.8
1789.154	257.8
1793.516	258.8
1797.874	245.8
1802.228	251.8
1806.578	245.8
1810.924	240.8
1815.266	243.8
1819.603	241.8
1823.937	235.8
1828.266	243.8
1832.591	244.8
1836.913	243.8
1841.23	240.8
1845.543	243.8
1849.852	252.8
1854.156	251.8
1858.457	247.8
1862.754	254.8
1867.047	248.8
1871.335	245.8
1875.62	249.8
1879.9	242.8
1884.177	234.8
1888.449	232.8
1892.718	231.8
1896.982	225.8
1901.243	223.8
1905.499	219.8
1909.752	211.8
1914	219.8
1918.245	213.8
1922.485	204.8
1926.722	196.8
1930.954	199.8
1935.183	200.8
1939.408	201.8
1943.628	197.8
1947.845	196.8
1952.058	186.8
1956.267	185.8
1960.472	188.8
1964.673	181.8
1968.87	190.8
1973.063	187.8
1977.252	198.8
1981.438	191.8
1985.619	184.8
1989.797	179.8
1993.971	190.8
1998.14	193.8
2002.306	195.8
2006.469	196.8
2010.627	189.8
2014.781	185.8
2018.932	187.8
2023.078	185.8
2027.221	186.8
2031.36	188.8
2035.495	183.8
2039.627	176.8
2043.754	178.8
2047.878	177.8
2051.998	170.8
2056.114	172.8
2060.226	163.8
2064.334	168.8
2068.439	163.8
2072.54	165.8
2076.637	165.8
2080.73	168.8
2084.82	162.8
2088.906	160.8
2092.988	159.8
2097.066	150.8
2101.14	154.8
2105.211	158.8
2109.278	156.8
2113.342	143.8
2117.401	148.8
2121.457	146.8
2125.509	145.8
2129.558	150.8
2133.602	142.8
2137.643	147.8
2141.681	134.8
2145.714	149.8
2149.744	142.8
2153.77	145.8
2157.793	149.8
2161.812	151.8
2165.827	152.8
2169.838	130.8
2173.846	137.8
2177.851	135.8
2181.851	130.8
2185.848	128.8
2189.841	135.8
2193.831	131.8
2197.817	132.8
2201.799	133.8
2205.778	128.8
2209.753	133.8
2213.725	129.8
2217.693	130.8
2221.657	133.8
2225.618	130.8
2229.575	121.8
2233.529	125.8
2237.479	124.8
2241.425	120.8
2245.368	119.8
2249.307	124.8
2253.243	117.8
2257.175	112.8
2261.104	109.8
2265.029	109.8
2268.95	113.8
2272.868	105.8
2276.783	100.8
2280.694	99.8
2284.601	98.8
2288.505	105.8
2292.405	112.8
2296.302	112.8
2300.195	97.8
2304.085	98.8
2307.971	96.8
2311.854	98.8
2315.734	88.8
2319.609	93.8
2323.482	94.8
2327.351	95.8
2331.216	103.8
2335.078	119.8
2338.937	107.8
2342.792	97.8
2346.643	95.8
2350.492	97.8
2354.336	96.8
2358.178	90.8
2362.015	93.8
2365.85	89.8
2369.681	100.8
2373.508	98.8
2377.333	90.8
2381.153	93.8
2384.971	91.8
2388.785	83.8
2392.595	86.8
2396.402	88.8
2400.206	94.8
2404.007	90.8
2407.804	82.8
2411.597	84.8
2415.388	83.8
2419.174	90.8
2422.958	91.8
2426.738	85.8
2430.515	84.8
2434.289	84.8
2438.059	86.8
2441.825	84.8
2445.589	78.8
2449.349	79.8
2453.106	83.8
2456.859	71.8
2460.61	71.8
2464.356	76.8
2468.1	73.8
2471.84	68.8
2475.577	69.8
2479.311	72.8
2483.041	79.8
2486.768	70.8
2490.492	70.8
2494.213	69.8
2497.93	70.8
2501.644	67.8
2505.355	57.8
2509.062	64.8
2512.766	64.8
2516.467	55.8
2520.165	55.8
2523.859	67.8
2527.551	57.8
2531.239	55.8
2534.923	58.8
2538.605	54.8
2542.283	59.8
2545.958	56.8
2549.63	52.8
2553.299	53.8
2556.964	46.8
2560.626	49.8
2564.285	47.8
2567.941	49.8
2571.594	50.8
2575.243	46.8
2578.89	46.8
2582.533	49.8
2586.173	43.8
2589.809	50.8
2593.443	51.8
2597.073	43.8
2600.701	47.8
2604.325	37.8
2607.946	38.8
2611.564	43.8
2615.178	43.8
2618.79	32.8
2622.398	44.8
2626.004	39.8
2629.606	29.8
2633.205	32.8
2636.801	35.8
2640.394	32.8
2643.983	33.8
2647.57	29.8
2651.153	27.8
2654.734	34.8
2658.311	34.8
2661.885	46.8
2665.456	35.8
2669.025	29.8
2672.589	34.8
2676.151	28.8
2679.71	30.8
2683.266	26.8
2686.819	39.8
2690.368	31.8
2693.915	24.8
2697.458	22.8
2700.999	28.8
2704.536	28.8
2708.071	30.8
2711.602	17.8
2715.13	22.8
2718.656	23.8
2722.178	23.8
2725.697	27.8
2729.214	17.8
2732.727	25.8
2736.237	22.8
2739.744	19.8
2743.249	23.8
2746.75	22.8
2750.248	21.8
2753.743	18.8
2757.236	8.8
2760.725	19.8
2764.211	13.8
2767.695	7.8
2771.175	9.8
2774.652	11.8
2778.127	10.8
2781.598	11.8
2785.067	12.8
2788.532	14.8
2791.995	11.8
2795.455	6.8
2798.911	12.8
2802.365	17.8
2805.816	8.8
2809.264	18.8
2812.709	6.8
2816.151	8.8
2819.59	21.8
2823.026	11.8
2826.46	15.8
2829.89	8.8
2833.318	10.8
2836.742	10.8
2840.164	10.8
2843.583	10.8
2846.999	16.8
2850.412	16.8
2853.822	15.8
2857.229	14.8
2860.634	9.8
2864.035	11.8
2867.434	10.8
2870.83	19.8
2874.223	11.8
2877.613	25.8
2881	20.8
2884.385	28.8
2887.766	26.8
2891.145	20.8
2894.521	22.8
2897.894	27.8
2901.264	31.8
2904.631	25.8
2907.996	28.8
2911.358	33.8
2914.717	25.8
2918.073	26.8
2921.426	24.8
2924.777	30.8
2928.124	33.8
2931.469	30.8
2934.811	42.8
2938.15	36.8
2941.487	42.8
2944.821	35.8
2948.152	44.8
2951.48	35.8
2954.805	40.8
2958.128	33.8
2961.447	37.8
2964.765	35.8
2968.079	34.8
2971.39	36.8
2974.699	29.8
2978.005	41.8
2981.308	27.8
2984.609	31.8
2987.907	31.8
2991.202	34.8
2994.494	31.8
2997.784	24.8
3001.07	39.8
3004.355	40.8
3007.636	40.8
3010.915	41.8
3014.191	34.8
3017.464	40.8
3020.734	37.8
3024.002	44.8
3027.267	46.8
3030.53	45.8
3033.789	40.8
3037.046	44.8
3040.301	35.8
3043.552	49.8
3046.801	54.8
3050.048	44.8
3053.291	51.8
3056.532	56.8
3059.771	57.8
3063.006	60.8
3066.239	64.8
3069.469	73.8
3072.697	64.8
3075.922	78.8
3079.144	70.8
3082.364	75.8
3085.581	75.8
3088.795	78.8
3092.007	75.8
3095.216	85.8
3098.423	88.8
3101.627	81.8
3104.828	97.8
3108.026	93.8
3111.222	96.8
3114.416	103.8
3117.607	103.8
3120.795	100.8
3123.98	101.8
3127.163	121.8
3130.344	114.8
3133.521	112.8
3136.696	118.8
3139.869	114.8
3143.039	115.8
3146.206	123.8
3149.371	124.8
3152.533	129.8
3155.693	130.8
3158.85	134.8
3162.005	133.8
3165.157	130.8
3168.306	129.8
3171.453	130.8
3174.597	129.8
3177.739	138.8
3180.878	137.8
3184.014	129.8
3187.149	129.8
3190.28	133.8
3193.409	133.8
3196.536	128.8
3199.659	137.8
3202.781	137.8
3205.9	133.8
3209.016	139.8
3212.13	137.8
3215.241	133.8
3218.35	130.8
3221.456	134.8
3224.56	138.8
3227.661	132.8
3230.76	120.8
3233.856	131.8
3236.95	118.8
3240.041	112.8
3243.13	121.8
3246.216	111.8
3249.3	103.8
3252.382	109.8
3255.46	114.8
3258.537	109.8
3261.611	105.8
3264.682	101.8
3267.751	107.8
3270.818	94.8
3273.882	109.8
3276.943	92.8
3280.002	104.8
3283.059	101.8
3286.113	92.8
3289.165	98.8
3292.214	95.8
3295.261	98.8
3298.306	93.8
3301.348	92.8
3304.387	96.8
3307.425	88.8
3310.459	89.8
3313.492	89.8
3316.521	91.8
3319.549	101.8
3322.574	92.8
3325.597	90.8
3328.617	81.8
3331.635	93.8
3334.65	97.8
3337.663	74.8
3340.674	86.8
3343.682	87.8
3346.688	76.8
3349.691	90.8
3352.692	88.8
3355.691	91.8
3358.687	81.8
3361.681	82.8
3364.673	92.8
3367.662	84.8
3370.649	87.8
3373.633	72.8
3376.615	78.8
3379.595	72.8
3382.572	69.8
3385.547	75.8
3388.52	69.8
3391.49	61.8
3394.458	60.8
3397.424	68.8
3400.387	68.8
3403.348	60.8
3406.307	63.8
3409.263	66.8
3412.217	63.8
3415.168	68.8
3418.118	58.8
3421.065	58.8
3424.009	54.8
3426.951	54.8
3429.891	49.8
3432.829	48.8
3435.764	53.8
3438.697	44.8
3441.628	38.8
3444.557	38.8
3447.483	45.8
3450.407	37.8
3453.328	42.8
3456.247	33.8
3459.164	28.8
3462.079	27.8
3464.991	28.8
3467.902	24.8
3470.809	25.8
3473.715	18.8
3476.618	10.8
3479.519	11.8
3482.418	8.8
3485.315	10.8
3488.209	3.8
3491.101	0.8
3493.99	15.8
3496.878	8.8
3499.763	-0.2
3502.646	-0.2
3505.527	3.8
3508.405	-2.2
3511.281	-0.2
3514.155	-5.2
3517.027	-10.2
3519.897	-7.2
3522.764	-9.2
3525.629	-4.2
3528.492	-12.2
3531.352	-16.2
3534.211	-20.2
3537.067	-19.2
3539.921	-11.2
3542.773	-26.2
3545.622	-19.2
3548.469	-22.2
3551.315	-22.2
3554.157	-20.2
3556.998	-22.2
3559.837	-22.2
3562.673	-30.2
3565.507	-33.2
3568.339	-21.2
3571.169	-32.2
3573.996	-25.2
3576.822	-33.2
3579.645	-35.2
3582.466	-32.2
3585.285	-31.2
3588.101	-34.2
3590.916	-27.2
3593.728	-38.2
3596.538	-36.2
3599.346	-36.2
3602.152	-36.2
3604.956	-33.2
3607.757	-36.2
3610.556	-35.2
3613.354	-43.2
3616.149	-45.2
3618.942	-36.2
3621.732	-43.2
3624.521	-37.2
3627.307	-40.2
3630.092	-37.2
3632.874	-45.2
3635.654	-44.2
3638.432	-40.2
3641.208	-41.2
3643.982	-39.2
3646.753	-42.2
3649.523	-41.2
3652.29	-44.2
3655.055	-43.2
3657.818	-51.2
3660.579	-48.2
3663.338	-40.2
3666.095	-43.2
3668.849	-45.2
3671.602	-47.2
3674.352	-39.2
3677.101	-41.2
3679.847	-49.2
3682.591	-48.2
3685.333	-45.2
3688.073	-54.2
3690.811	-52.2
3693.547	-49.2
3696.281	-52.2
3699.013	-49.2
3701.742	-50.2
3704.47	-50.2
3707.195	-54.2
3709.919	-54.2
3712.64	-52.2
3715.359	-48.2
3718.076	-49.2
3720.792	-52.2
3723.505	-55.2
3726.216	-49.2
3728.925	-55.2
3731.632	-49.2
3734.336	-55.2
3737.039	-51.2
3739.74	-51.2
3742.439	-57.2
3745.136	-56.2
3747.83	-51.2
3750.523	-57.2
3753.213	-64.2
3755.902	-48.2
3758.589	-51.2
3761.273	-52.2
3763.956	-56.2
3766.636	-51.2
3769.315	-49.2
3771.991	-52.2
3774.665	-60.2
3777.338	-52.2
3780.008	-57.2
3782.677	-54.2
3785.343	-54.2
3788.007	-51.2
3790.67	-57.2
3793.33	-55.2
3795.989	-59.2
3798.645	-58.2
3801.299	-51.2
3803.952	-53.2
3806.602	-54.2
3809.251	-53.2
3811.897	-61.2
3814.542	-60.2
3817.184	-52.2
3819.825	-55.2
3822.463	-51.2
3825.1	-54.2
3827.735	-57.2
3830.367	-60.2
3832.998	-58.2
3835.627	-53.2
3838.253	-49.2
3840.878	-49.2
3843.501	-46.2
3846.122	-55.2
3848.741	-51.2
3851.358	-56.2
3853.973	-54.2
3856.586	-51.2
3859.197	-56.2
3861.806	-55.2
3864.414	-57.2
3867.019	-57.2
3869.622	-45.2
3872.224	-43.2
3874.823	-31.2
3877.421	-29.2
3880.016	-11.2
3882.61	8.8
3885.202	8.8
3887.792	1.8
3890.38	-15.2
3892.966	-36.2
3895.55	-45.2
3898.132	-49.2
3900.713	-49.2
3903.291	-62.2
3905.868	-51.2
3908.442	-55.2
3911.015	-56.2
3913.586	-57.2
3916.155	-55.2
3918.722	-54.2
3921.287	-58.2
3923.85	-50.2
3926.411	-61.2
3928.971	-66.2
3931.528	-56.2
3934.084	-48.2
3936.638	-51.2
3939.19	-59.2
3941.74	-49.2
3944.288	-54.2
3946.834	-53.2
3949.378	-57.2
3951.921	-58.2
3954.462	-57.2
3957	-52.2
3959.537	-49.2
3962.072	-54.2
3964.606	-57.2
3967.137	-55.2
3969.667	-58.2
3972.194	-54.2
3974.72	-51.2
3977.244	-47.2
3979.766	-56.2
3982.286	-55.2
3984.805	-61.2
3987.321	-52.2
3989.836	-53.2
3992.349	-56.2
3994.86	-57.2
3997.369	-59.2
3999.877	-58.2
4002.382	-58.2
4004.886	-56.2
4007.388	-56.2
4009.888	-54.2
4012.386	-56.2
4014.883	-50.2
4017.377	-54.2
4019.87	-55.2
4022.361	-56.2
4024.85	-50.2
4027.338	-56.2
4029.823	-59.2
4032.307	-60.2
4034.789	-48.2
4037.269	-55.2
4039.747	-58.2
4042.224	-61.2
4044.699	-59.2
4047.172	-59.2
4049.643	-56.2
4052.112	-55.2
4054.58	-57.2
4057.046	-53.2
4059.51	-53.2
4061.972	-59.2
4064.432	-50.2
4066.891	-54.2
4069.348	-51.2
4071.803	-50.2
4074.256	-54.2
4076.708	-56.2
4079.158	-60.2
4081.606	-55.2
4084.052	-56.2
4086.497	-53.2
4088.939	-56.2
4091.38	-56.2
4093.819	-62.2
4096.257	-59.2
4098.693	-58.2
4101.127	-54.2
4103.559	-57.2
4105.989	28.8
4108.418	20.8
4110.845	17.8
4113.27	17.8
4115.694	18.8
4118.115	22.8
4120.535	-54.2
4122.954	-53.2
4125.37	-57.2
4127.785	-52.2
4130.198	-52.2
4132.609	-57.2
4135.019	-53.2
4137.427	-59.2
4139.833	-55.2
4142.237	-61.2
