Data from 2018-3-7 Ethanol_RamanShift_05.txt Node
Date: Wed Mar 07 09:58:23 IST 2018
User: aro
Spectrometer: QEPB0276
Trigger mode: 0
Integration Time (sec): 3.000000E1
Scans to average: 1
Electric dark correction enabled: true
Nonlinearity correction enabled: false
Boxcar width: 0
XAxis mode: Raman Shifts
Number of Pixels in Spectrum: 1044
>>>>>Begin Spectral Data<<<<<
160.701	10.5
166.742	29.5
172.777	90.5
178.805	263.5
184.826	687.5
190.841	1467.5
196.849	2418.5
202.85	3144.5
208.845	3412.5
214.833	3361.5
220.815	3250.5
226.789	3210.5
232.758	3189.5
238.719	3153.5
244.674	3080.5
250.623	3061.5
256.565	3000.5
262.5	2941.5
268.429	2945.5
274.351	2907.5
280.267	2864.5
286.176	2799.5
292.079	2765.5
297.975	2690.5
303.865	2636.5
309.748	2577.5
315.625	2530.5
321.495	2507.5
327.359	2493.5
333.217	2487.5
339.068	2472.5
344.912	2486.5
350.751	2469.5
356.583	2477.5
362.408	2512.5
368.227	2547.5
374.04	2567.5
379.847	2630.5
385.647	2676.5
391.44	2732.5
397.228	2784.5
403.009	2928.5
408.784	3048.5
414.553	3273.5
420.315	3622.5
426.071	4116.5
431.821	4739.5
437.565	5326.5
443.302	5479.5
449.033	5118.5
454.758	4512.5
460.477	3908.5
466.189	3459.5
471.896	3168.5
477.596	2950.5
483.29	2825.5
488.978	2745.5
494.66	2676.5
500.335	2570.5
506.005	2435.5
511.668	2279.5
517.325	2146.5
522.977	2037.5
528.622	1930.5
534.261	1870.5
539.894	1842.5
545.521	1782.5
551.141	1752.5
556.756	1726.5
562.365	1688.5
567.968	1702.5
573.565	1655.5
579.155	1639.5
584.74	1629.5
590.319	1620.5
595.892	1607.5
601.459	1616.5
607.02	1597.5
612.575	1603.5
618.124	1561.5
623.667	1547.5
629.204	1516.5
634.735	1499.5
640.261	1471.5
645.781	1478.5
651.294	1449.5
656.802	1462.5
662.304	1440.5
667.8	1432.5
673.29	1430.5
678.775	1418.5
684.254	1421.5
689.726	1412.5
695.193	1407.5
700.655	1410.5
706.11	1399.5
711.56	1382.5
717.004	1375.5
722.442	1387.5
727.874	1388.5
733.301	1392.5
738.722	1374.5
744.137	1365.5
749.547	1399.5
754.951	1395.5
760.349	1409.5
765.741	1443.5
771.128	1451.5
776.509	1498.5
781.885	1549.5
787.254	1587.5
792.618	1618.5
797.977	1665.5
803.33	1723.5
808.677	1781.5
814.019	1832.5
819.355	1836.5
824.686	1851.5
830.011	1864.5
835.33	1940.5
840.644	2042.5
845.952	2188.5
851.255	2403.5
856.552	2789.5
861.844	3465.5
867.13	4846.5
872.41	7847.5
877.686	13355.5
882.955	20262.5
888.219	23776.5
893.478	20313.5
898.731	12790.5
903.979	6993.5
909.221	4206.5
914.458	3022.5
919.69	2450.5
924.916	2124.5
930.136	1909.5
935.351	1779.5
940.561	1679.5
945.766	1633.5
950.965	1566.5
956.158	1528.5
961.347	1472.5
966.529	1455.5
971.707	1446.5
976.879	1444.5
982.046	1475.5
987.208	1510.5
992.364	1556.5
997.515	1641.5
1002.66	1769.5
1007.801	2002.5
1012.936	2290.5
1018.066	2690.5
1023.19	3165.5
1028.309	3686.5
1033.423	4233.5
1038.532	5041.5
1043.636	6242.5
1048.734	7782.5
1053.827	8966.5
1058.915	8835.5
1063.998	7663.5
1069.075	6280.5
1074.147	5660.5
1079.214	5895.5
1084.276	6748.5
1089.333	7969.5
1094.385	8971.5
1099.431	9088.5
1104.472	7978.5
1109.509	6191.5
1114.54	4791.5
1119.565	4036.5
1124.586	3666.5
1129.602	3346.5
1134.613	2999.5
1139.618	2633.5
1144.619	2310.5
1149.614	2045.5
1154.604	1897.5
1159.589	1787.5
1164.57	1697.5
1169.545	1583.5
1174.515	1505.5
1179.48	1409.5
1184.44	1336.5
1189.395	1306.5
1194.345	1270.5
1199.29	1248.5
1204.23	1243.5
1209.165	1235.5
1214.095	1256.5
1219.021	1273.5
1223.941	1323.5
1228.856	1349.5
1233.766	1436.5
1238.672	1500.5
1243.572	1566.5
1248.467	1675.5
1253.358	1758.5
1258.244	1946.5
1263.124	2157.5
1268	2576.5
1272.871	3172.5
1277.737	3930.5
1282.599	4475.5
1287.455	4332.5
1292.306	3687.5
1297.153	2967.5
1301.995	2439.5
1306.832	2170.5
1311.664	1983.5
1316.491	1889.5
1321.314	1794.5
1326.132	1764.5
1330.945	1698.5
1335.753	1679.5
1340.556	1639.5
1345.354	1621.5
1350.148	1607.5
1354.937	1610.5
1359.722	1587.5
1364.501	1626.5
1369.276	1647.5
1374.046	1715.5
1378.811	1837.5
1383.572	2038.5
1388.327	2193.5
1393.079	2345.5
1397.825	2400.5
1402.567	2512.5
1407.304	2606.5
1412.036	2819.5
1416.764	3013.5
1421.487	3263.5
1426.205	3574.5
1430.919	3876.5
1435.628	4349.5
1440.333	5005.5
1445.032	5955.5
1449.727	7574.5
1454.418	9564.5
1459.104	11151.5
1463.785	10904.5
1468.462	9001.5
1473.134	6862.5
1477.802	5440.5
1482.465	4825.5
1487.123	4612.5
1491.777	4320.5
1496.426	3805.5
1501.071	3118.5
1505.711	2553.5
1510.347	2189.5
1514.978	1933.5
1519.604	1743.5
1524.226	1615.5
1528.844	1491.5
1533.457	1392.5
1538.065	1327.5
1542.669	1255.5
1547.269	1195.5
1551.864	1163.5
1556.454	1124.5
1561.041	1087.5
1565.622	1050.5
1570.199	1016.5
1574.772	967.5
1579.34	966.5
1583.904	938.5
1588.464	912.5
1593.019	887.5
1597.569	880.5
1602.115	858.5
1606.657	833.5
1611.195	825.5
1615.728	842.5
1620.256	825.5
1624.78	830.5
1629.3	827.5
1633.816	816.5
1638.327	788.5
1642.834	752.5
1647.336	730.5
1651.834	709.5
1656.328	708.5
1660.817	698.5
1665.302	683.5
1669.783	649.5
1674.259	637.5
1678.732	611.5
1683.199	600.5
1687.663	579.5
1692.122	550.5
1696.577	517.5
1701.028	488.5
1705.474	457.5
1709.917	438.5
1714.355	436.5
1718.788	438.5
1723.218	429.5
1727.643	426.5
1732.064	414.5
1736.481	412.5
1740.893	384.5
1745.301	384.5
1749.705	375.5
1754.105	354.5
1758.501	334.5
1762.893	326.5
1767.28	310.5
1771.663	301.5
1776.042	297.5
1780.417	282.5
1784.787	271.5
1789.154	262.5
1793.516	251.5
1797.874	243.5
1802.228	239.5
1806.578	242.5
1810.924	247.5
1815.266	235.5
1819.603	241.5
1823.937	232.5
1828.266	237.5
1832.591	241.5
1836.913	234.5
1841.23	234.5
1845.543	240.5
1849.852	240.5
1854.156	242.5
1858.457	236.5
1862.754	242.5
1867.047	240.5
1871.335	235.5
1875.62	244.5
1879.9	234.5
1884.177	234.5
1888.449	239.5
1892.718	226.5
1896.982	219.5
1901.243	214.5
1905.499	207.5
1909.752	204.5
1914	200.5
1918.245	198.5
1922.485	185.5
1926.722	181.5
1930.954	185.5
1935.183	173.5
1939.408	180.5
1943.628	174.5
1947.845	173.5
1952.058	171.5
1956.267	178.5
1960.472	173.5
1964.673	168.5
1968.87	174.5
1973.063	176.5
1977.252	176.5
1981.438	177.5
1985.619	169.5
1989.797	176.5
1993.971	182.5
1998.14	183.5
2002.306	175.5
2006.469	181.5
2010.627	175.5
2014.781	186.5
2018.932	181.5
2023.078	181.5
2027.221	175.5
2031.36	178.5
2035.495	171.5
2039.627	165.5
2043.754	168.5
2047.878	171.5
2051.998	171.5
2056.114	163.5
2060.226	161.5
2064.334	164.5
2068.439	170.5
2072.54	163.5
2076.637	172.5
2080.73	171.5
2084.82	175.5
2088.906	171.5
2092.988	179.5
2097.066	169.5
2101.14	172.5
2105.211	167.5
2109.278	155.5
2113.342	148.5
2117.401	151.5
2121.457	148.5
2125.509	154.5
2129.558	157.5
2133.602	143.5
2137.643	155.5
2141.681	165.5
2145.714	157.5
2149.744	165.5
2153.77	172.5
2157.793	160.5
2161.812	164.5
2165.827	167.5
2169.838	160.5
2173.846	162.5
2177.851	165.5
2181.851	165.5
2185.848	159.5
2189.841	152.5
2193.831	152.5
2197.817	167.5
2201.799	156.5
2205.778	160.5
2209.753	161.5
2213.725	154.5
2217.693	165.5
2221.657	160.5
2225.618	161.5
2229.575	163.5
2233.529	158.5
2237.479	164.5
2241.425	166.5
2245.368	179.5
2249.307	178.5
2253.243	177.5
2257.175	182.5
2261.104	178.5
2265.029	180.5
2268.95	174.5
2272.868	174.5
2276.783	164.5
2280.694	175.5
2284.601	177.5
2288.505	185.5
2292.405	187.5
2296.302	178.5
2300.195	170.5
2304.085	162.5
2307.971	154.5
2311.854	151.5
2315.734	144.5
2319.609	154.5
2323.482	141.5
2327.351	141.5
2331.216	161.5
2335.078	178.5
2338.937	161.5
2342.792	146.5
2346.643	142.5
2350.492	136.5
2354.336	135.5
2358.178	130.5
2362.015	139.5
2365.85	137.5
2369.681	138.5
2373.508	134.5
2377.333	137.5
2381.153	122.5
2384.971	122.5
2388.785	122.5
2392.595	131.5
2396.402	131.5
2400.206	135.5
2404.007	130.5
2407.804	131.5
2411.597	141.5
2415.388	131.5
2419.174	144.5
2422.958	145.5
2426.738	143.5
2430.515	141.5
2434.289	148.5
2438.059	141.5
2441.825	149.5
2445.589	158.5
2449.349	149.5
2453.106	153.5
2456.859	150.5
2460.61	156.5
2464.356	146.5
2468.1	160.5
2471.84	163.5
2475.577	147.5
2479.311	154.5
2483.041	160.5
2486.768	153.5
2490.492	156.5
2494.213	145.5
2497.93	149.5
2501.644	163.5
2505.355	158.5
2509.062	154.5
2512.766	159.5
2516.467	154.5
2520.165	160.5
2523.859	173.5
2527.551	167.5
2531.239	172.5
2534.923	174.5
2538.605	193.5
2542.283	203.5
2545.958	216.5
2549.63	220.5
2553.299	229.5
2556.964	224.5
2560.626	218.5
2564.285	213.5
2567.941	206.5
2571.594	207.5
2575.243	198.5
2578.89	198.5
2582.533	184.5
2586.173	196.5
2589.809	200.5
2593.443	197.5
2597.073	201.5
2600.701	208.5
2604.325	197.5
2607.946	197.5
2611.564	206.5
2615.178	216.5
2618.79	215.5
2622.398	209.5
2626.004	216.5
2629.606	216.5
2633.205	213.5
2636.801	226.5
2640.394	226.5
2643.983	227.5
2647.57	240.5
2651.153	238.5
2654.734	248.5
2658.311	264.5
2661.885	265.5
2665.456	282.5
2669.025	289.5
2672.589	300.5
2676.151	313.5
2679.71	331.5
2683.266	354.5
2686.819	400.5
2690.368	416.5
2693.915	444.5
2697.458	487.5
2700.999	539.5
2704.536	605.5
2708.071	680.5
2711.602	740.5
2715.13	805.5
2718.656	849.5
2722.178	891.5
2725.697	910.5
2729.214	895.5
2732.727	871.5
2736.237	827.5
2739.744	786.5
2743.249	755.5
2746.75	730.5
2750.248	710.5
2753.743	686.5
2757.236	685.5
2760.725	684.5
2764.211	646.5
2767.695	627.5
2771.175	615.5
2774.652	593.5
2778.127	593.5
2781.598	574.5
2785.067	607.5
2788.532	623.5
2791.995	650.5
2795.455	675.5
2798.911	726.5
2802.365	771.5
2805.816	821.5
2809.264	877.5
2812.709	943.5
2816.151	1022.5
2819.59	1115.5
2823.026	1207.5
2826.46	1352.5
2829.89	1463.5
2833.318	1624.5
2836.742	1778.5
2840.164	1942.5
2843.583	2085.5
2846.999	2190.5
2850.412	2311.5
2853.822	2427.5
2857.229	2595.5
2860.634	2794.5
2864.035	3062.5
2867.434	3406.5
2870.83	3857.5
2874.223	4354.5
2877.613	4942.5
2881	5491.5
2884.385	5867.5
2887.766	5988.5
2891.145	5985.5
2894.521	5895.5
2897.894	5794.5
2901.264	5640.5
2904.631	5493.5
2907.996	5391.5
2911.358	5341.5
2914.717	5381.5
2918.073	5548.5
2921.426	5871.5
2924.777	6447.5
2928.124	7164.5
2931.469	8018.5
2934.811	8545.5
2938.15	8481.5
2941.487	7878.5
2944.821	7073.5
2948.152	6271.5
2951.48	5524.5
2954.805	4901.5
2958.128	4385.5
2961.447	4039.5
2964.765	3787.5
2968.079	3679.5
2971.39	3648.5
2974.699	3660.5
2978.005	3646.5
2981.308	3551.5
2984.609	3315.5
2987.907	3044.5
2991.202	2674.5
2994.494	2337.5
2997.784	2027.5
3001.07	1785.5
3004.355	1580.5
3007.636	1394.5
3010.915	1248.5
3014.191	1134.5
3017.464	1029.5
3020.734	983.5
3024.002	892.5
3027.267	836.5
3030.53	773.5
3033.789	737.5
3037.046	677.5
3040.301	656.5
3043.552	625.5
3046.801	590.5
3050.048	563.5
3053.291	547.5
3056.532	535.5
3059.771	497.5
3063.006	504.5
3066.239	489.5
3069.469	482.5
3072.697	463.5
3075.922	445.5
3079.144	440.5
3082.364	430.5
3085.581	411.5
3088.795	411.5
3092.007	397.5
3095.216	379.5
3098.423	371.5
3101.627	365.5
3104.828	367.5
3108.026	369.5
3111.222	358.5
3114.416	358.5
3117.607	339.5
3120.795	365.5
3123.98	348.5
3127.163	352.5
3130.344	351.5
3133.521	362.5
3136.696	341.5
3139.869	351.5
3143.039	352.5
3146.206	358.5
3149.371	356.5
3152.533	368.5
3155.693	359.5
3158.85	355.5
3162.005	359.5
3165.157	358.5
3168.306	347.5
3171.453	346.5
3174.597	354.5
3177.739	368.5
3180.878	352.5
3184.014	351.5
3187.149	362.5
3190.28	362.5
3193.409	358.5
3196.536	353.5
3199.659	364.5
3202.781	367.5
3205.9	361.5
3209.016	373.5
3212.13	366.5
3215.241	363.5
3218.35	355.5
3221.456	354.5
3224.56	340.5
3227.661	337.5
3230.76	331.5
3233.856	332.5
3236.95	310.5
3240.041	300.5
3243.13	310.5
3246.216	299.5
3249.3	293.5
3252.382	294.5
3255.46	294.5
3258.537	278.5
3261.611	275.5
3264.682	283.5
3267.751	279.5
3270.818	269.5
3273.882	268.5
3276.943	270.5
3280.002	265.5
3283.059	263.5
3286.113	261.5
3289.165	263.5
3292.214	265.5
3295.261	259.5
3298.306	255.5
3301.348	248.5
3304.387	254.5
3307.425	258.5
3310.459	251.5
3313.492	249.5
3316.521	244.5
3319.549	257.5
3322.574	246.5
3325.597	244.5
3328.617	242.5
3331.635	257.5
3334.65	256.5
3337.663	244.5
3340.674	249.5
3343.682	243.5
3346.688	242.5
3349.691	237.5
3352.692	242.5
3355.691	248.5
3358.687	244.5
3361.681	239.5
3364.673	235.5
3367.662	228.5
3370.649	229.5
3373.633	223.5
3376.615	218.5
3379.595	216.5
3382.572	202.5
3385.547	214.5
3388.52	203.5
3391.49	206.5
3394.458	196.5
3397.424	200.5
3400.387	192.5
3403.348	182.5
3406.307	184.5
3409.263	179.5
3412.217	184.5
3415.168	188.5
3418.118	170.5
3421.065	162.5
3424.009	159.5
3426.951	163.5
3429.891	160.5
3432.829	152.5
3435.764	156.5
3438.697	145.5
3441.628	126.5
3444.557	122.5
3447.483	124.5
3450.407	109.5
3453.328	114.5
3456.247	103.5
3459.164	107.5
3462.079	91.5
3464.991	87.5
3467.902	84.5
3470.809	81.5
3473.715	71.5
3476.618	71.5
3479.519	57.5
3482.418	53.5
3485.315	52.5
3488.209	42.5
3491.101	42.5
3493.99	43.5
3496.878	43.5
3499.763	25.5
3502.646	27.5
3505.527	25.5
3508.405	24.5
3511.281	11.5
3514.155	12.5
3517.027	6.5
3519.897	8.5
3522.764	-1.5
3525.629	-6.5
3528.492	-8.5
3531.352	-12.5
3534.211	-17.5
3537.067	-14.5
3539.921	-20.5
3542.773	-26.5
3545.622	-27.5
3548.469	-33.5
3551.315	-28.5
3554.157	-28.5
3556.998	-31.5
3559.837	-39.5
3562.673	-39.5
3565.507	-46.5
3568.339	-40.5
3571.169	-41.5
3573.996	-42.5
3576.822	-46.5
3579.645	-46.5
3582.466	-50.5
3585.285	-57.5
3588.101	-51.5
3590.916	-53.5
3593.728	-54.5
3596.538	-61.5
3599.346	-56.5
3602.152	-63.5
3604.956	-62.5
3607.757	-56.5
3610.556	-56.5
3613.354	-65.5
3616.149	-67.5
3618.942	-69.5
3621.732	-72.5
3624.521	-65.5
3627.307	-68.5
3630.092	-70.5
3632.874	-65.5
3635.654	-71.5
3638.432	-68.5
3641.208	-68.5
3643.982	-67.5
3646.753	-74.5
3649.523	-71.5
3652.29	-75.5
3655.055	-74.5
3657.818	-80.5
3660.579	-84.5
3663.338	-71.5
3666.095	-82.5
3668.849	-83.5
3671.602	-78.5
3674.352	-75.5
3677.101	-78.5
3679.847	-71.5
3682.591	-84.5
3685.333	-76.5
3688.073	-79.5
3690.811	-83.5
3693.547	-78.5
3696.281	-79.5
3699.013	-81.5
3701.742	-83.5
3704.47	-81.5
3707.195	-77.5
3709.919	-86.5
3712.64	-79.5
3715.359	-82.5
3718.076	-89.5
3720.792	-85.5
3723.505	-86.5
3726.216	-85.5
3728.925	-86.5
3731.632	-82.5
3734.336	-84.5
3737.039	-80.5
3739.74	-93.5
3742.439	-90.5
3745.136	-86.5
3747.83	-82.5
3750.523	-93.5
3753.213	-100.5
3755.902	-90.5
3758.589	-86.5
3761.273	-87.5
3763.956	-91.5
3766.636	-86.5
3769.315	-85.5
3771.991	-94.5
3774.665	-91.5
3777.338	-83.5
3780.008	-87.5
3782.677	-96.5
3785.343	-89.5
3788.007	-88.5
3790.67	-88.5
3793.33	-89.5
3795.989	-89.5
3798.645	-92.5
3801.299	-86.5
3803.952	-84.5
3806.602	-89.5
3809.251	-89.5
3811.897	-93.5
3814.542	-98.5
3817.184	-93.5
3819.825	-85.5
3822.463	-89.5
3825.1	-89.5
3827.735	-96.5
3830.367	-93.5
3832.998	-93.5
3835.627	-90.5
3838.253	-82.5
3840.878	-82.5
3843.501	-83.5
3846.122	-96.5
3848.741	-99.5
3851.358	-92.5
3853.973	-87.5
3856.586	-90.5
3859.197	-88.5
3861.806	-92.5
3864.414	-94.5
3867.019	-93.5
3869.622	-82.5
3872.224	-77.5
3874.823	-70.5
3877.421	-64.5
3880.016	-53.5
3882.61	-31.5
3885.202	-36.5
3887.792	-36.5
3890.38	-53.5
3892.966	-75.5
3895.55	-83.5
3898.132	-88.5
3900.713	-97.5
3903.291	-93.5
3905.868	-94.5
3908.442	-95.5
3911.015	-89.5
3913.586	-94.5
3916.155	-99.5
3918.722	-93.5
3921.287	-92.5
3923.85	-88.5
3926.411	-93.5
3928.971	-96.5
3931.528	-92.5
3934.084	-93.5
3936.638	-92.5
3939.19	-101.5
3941.74	-93.5
3944.288	-95.5
3946.834	-92.5
3949.378	-96.5
3951.921	-96.5
3954.462	-97.5
3957	-92.5
3959.537	-82.5
3962.072	-88.5
3964.606	-95.5
3967.137	-94.5
3969.667	-96.5
3972.194	-92.5
3974.72	-87.5
3977.244	-89.5
3979.766	-93.5
3982.286	-92.5
3984.805	-103.5
3987.321	-90.5
3989.836	-94.5
3992.349	-93.5
3994.86	-94.5
3997.369	-93.5
3999.877	-90.5
4002.382	-92.5
4004.886	-92.5
4007.388	-93.5
4009.888	-93.5
4012.386	-92.5
4014.883	-90.5
4017.377	-86.5
4019.87	-89.5
4022.361	-101.5
4024.85	-91.5
4027.338	-90.5
4029.823	-84.5
4032.307	-93.5
4034.789	-92.5
4037.269	-91.5
4039.747	-96.5
4042.224	-95.5
4044.699	-96.5
4047.172	-94.5
4049.643	-94.5
4052.112	-94.5
4054.58	-89.5
4057.046	-89.5
4059.51	-96.5
4061.972	-95.5
4064.432	-90.5
4066.891	-91.5
4069.348	-89.5
4071.803	-87.5
4074.256	-89.5
4076.708	-93.5
4079.158	-86.5
4081.606	-88.5
4084.052	-89.5
4086.497	-85.5
4088.939	-83.5
4091.38	-99.5
4093.819	-95.5
4096.257	-95.5
4098.693	-98.5
4101.127	-90.5
4103.559	-101.5
4105.989	25.5
4108.418	20.5
4110.845	11.5
4113.27	10.5
4115.694	13.5
4118.115	13.5
4120.535	-86.5
4122.954	-89.5
4125.37	-88.5
4127.785	-86.5
4130.198	-94.5
4132.609	-91.5
4135.019	-98.5
4137.427	-98.5
4139.833	-98.5
4142.237	-98.5
