Data from 2018-3-7_conc=4_n=9_RamanShift_01.txt Node
Date: Wed Mar 07 12:15:22 IST 2018
User: aro
Spectrometer: QEPB0276
Trigger mode: 0
Integration Time (sec): 3.000000E1
Scans to average: 1
Electric dark correction enabled: true
Nonlinearity correction enabled: false
Boxcar width: 0
XAxis mode: Raman Shifts
Number of Pixels in Spectrum: 1044
>>>>>Begin Spectral Data<<<<<
160.701	15.8
166.742	26.8
172.777	61.8
178.805	170.8
184.826	438.8
190.841	940.8
196.849	1570.8
202.85	2052.8
208.845	2252.8
214.833	2236.8
220.815	2219.8
226.789	2213.8
232.758	2234.8
238.719	2222.8
244.674	2211.8
250.623	2189.8
256.565	2152.8
262.5	2127.8
268.429	2093.8
274.351	2082.8
280.267	2057.8
286.176	2056.8
292.079	2057.8
297.975	2054.8
303.865	2054.8
309.748	2033.8
315.625	2048.8
321.495	2039.8
327.359	2035.8
333.217	2028.8
339.068	2038.8
344.912	2056.8
350.751	2042.8
356.583	2026.8
362.408	2050.8
368.227	2042.8
374.04	2069.8
379.847	2067.8
385.647	2061.8
391.44	2058.8
397.228	2083.8
403.009	2098.8
408.784	2107.8
414.553	2122.8
420.315	2127.8
426.071	2111.8
431.821	2101.8
437.565	2134.8
443.302	2122.8
449.033	2104.8
454.758	2099.8
460.477	2086.8
466.189	2078.8
471.896	2047.8
477.596	2055.8
483.29	2008.8
488.978	2039.8
494.66	2018.8
500.335	1990.8
506.005	1915.8
511.668	1870.8
517.325	1810.8
522.977	1773.8
528.622	1723.8
534.261	1724.8
539.894	1672.8
545.521	1665.8
551.141	1657.8
556.756	1634.8
562.365	1656.8
567.968	1629.8
573.565	1615.8
579.155	1612.8
584.74	1598.8
590.319	1580.8
595.892	1593.8
601.459	1586.8
607.02	1578.8
612.575	1576.8
618.124	1566.8
623.667	1537.8
629.204	1522.8
634.735	1505.8
640.261	1500.8
645.781	1498.8
651.294	1498.8
656.802	1476.8
662.304	1477.8
667.8	1468.8
673.29	1473.8
678.775	1460.8
684.254	1457.8
689.726	1468.8
695.193	1450.8
700.655	1445.8
706.11	1433.8
711.56	1416.8
717.004	1395.8
722.442	1390.8
727.874	1372.8
733.301	1378.8
738.722	1393.8
744.137	1373.8
749.547	1377.8
754.951	1380.8
760.349	1377.8
765.741	1376.8
771.128	1382.8
776.509	1408.8
781.885	1417.8
787.254	1414.8
792.618	1415.8
797.977	1406.8
803.33	1399.8
808.677	1404.8
814.019	1385.8
819.355	1364.8
824.686	1349.8
830.011	1348.8
835.33	1346.8
840.644	1339.8
845.952	1331.8
851.255	1330.8
856.552	1344.8
861.844	1327.8
867.13	1306.8
872.41	1300.8
877.686	1305.8
882.955	1290.8
888.219	1278.8
893.478	1269.8
898.731	1243.8
903.979	1217.8
909.221	1218.8
914.458	1219.8
919.69	1209.8
924.916	1228.8
930.136	1207.8
935.351	1219.8
940.561	1209.8
945.766	1216.8
950.965	1219.8
956.158	1190.8
961.347	1194.8
966.529	1188.8
971.707	1169.8
976.879	1137.8
982.046	1125.8
987.208	1126.8
992.364	1134.8
997.515	1126.8
1002.66	1136.8
1007.801	1142.8
1012.936	1163.8
1018.066	1164.8
1023.19	1154.8
1028.309	1166.8
1033.423	1155.8
1038.532	1158.8
1043.636	1151.8
1048.734	1133.8
1053.827	1124.8
1058.915	1109.8
1063.998	1097.8
1069.075	1094.8
1074.147	1081.8
1079.214	1097.8
1084.276	1097.8
1089.333	1102.8
1094.385	1108.8
1099.431	1100.8
1104.472	1103.8
1109.509	1096.8
1114.54	1066.8
1119.565	1060.8
1124.586	1049.8
1129.602	1025.8
1134.613	1024.8
1139.618	1016.8
1144.619	1021.8
1149.614	1026.8
1154.604	1027.8
1159.589	1018.8
1164.57	1028.8
1169.545	1010.8
1174.515	1036.8
1179.48	1024.8
1184.44	1026.8
1189.395	1020.8
1194.345	1001.8
1199.29	1004.8
1204.23	1000.8
1209.165	996.8
1214.095	1005.8
1219.021	1010.8
1223.941	1004.8
1228.856	1029.8
1233.766	1025.8
1238.672	1017.8
1243.572	1019.8
1248.467	1014.8
1253.358	996.8
1258.244	1001.8
1263.124	969.8
1268	954.8
1272.871	934.8
1277.737	915.8
1282.599	934.8
1287.455	932.8
1292.306	929.8
1297.153	933.8
1301.995	941.8
1306.832	936.8
1311.664	957.8
1316.491	957.8
1321.314	950.8
1326.132	950.8
1330.945	915.8
1335.753	909.8
1340.556	882.8
1345.354	870.8
1350.148	860.8
1354.937	849.8
1359.722	818.8
1364.501	793.8
1369.276	786.8
1374.046	777.8
1378.811	758.8
1383.572	776.8
1388.327	765.8
1393.079	759.8
1397.825	769.8
1402.567	776.8
1407.304	785.8
1412.036	773.8
1416.764	782.8
1421.487	786.8
1426.205	791.8
1430.919	779.8
1435.628	793.8
1440.333	800.8
1445.032	788.8
1449.727	805.8
1454.418	812.8
1459.104	798.8
1463.785	804.8
1468.462	772.8
1473.134	770.8
1477.802	728.8
1482.465	716.8
1487.123	709.8
1491.777	688.8
1496.426	679.8
1501.071	677.8
1505.711	653.8
1510.347	654.8
1514.978	644.8
1519.604	642.8
1524.226	639.8
1528.844	640.8
1533.457	641.8
1538.065	643.8
1542.669	632.8
1547.269	627.8
1551.864	643.8
1556.454	652.8
1561.041	664.8
1565.622	673.8
1570.199	672.8
1574.772	676.8
1579.34	681.8
1583.904	689.8
1588.464	704.8
1593.019	701.8
1597.569	702.8
1602.115	703.8
1606.657	705.8
1611.195	702.8
1615.728	703.8
1620.256	693.8
1624.78	689.8
1629.3	706.8
1633.816	697.8
1638.327	723.8
1642.834	698.8
1647.336	686.8
1651.834	699.8
1656.328	693.8
1660.817	698.8
1665.302	683.8
1669.783	653.8
1674.259	652.8
1678.732	630.8
1683.199	601.8
1687.663	578.8
1692.122	554.8
1696.577	534.8
1701.028	501.8
1705.474	476.8
1709.917	474.8
1714.355	460.8
1718.788	445.8
1723.218	457.8
1727.643	457.8
1732.064	459.8
1736.481	479.8
1740.893	524.8
1745.301	614.8
1749.705	428.8
1754.105	416.8
1758.501	404.8
1762.893	400.8
1767.28	390.8
1771.663	388.8
1776.042	380.8
1780.417	379.8
1784.787	369.8
1789.154	351.8
1793.516	351.8
1797.874	345.8
1802.228	329.8
1806.578	328.8
1810.924	331.8
1815.266	335.8
1819.603	327.8
1823.937	339.8
1828.266	331.8
1832.591	344.8
1836.913	339.8
1841.23	334.8
1845.543	346.8
1849.852	350.8
1854.156	344.8
1858.457	347.8
1862.754	351.8
1867.047	346.8
1871.335	345.8
1875.62	345.8
1879.9	343.8
1884.177	343.8
1888.449	322.8
1892.718	324.8
1896.982	319.8
1901.243	305.8
1905.499	307.8
1909.752	296.8
1914	292.8
1918.245	284.8
1922.485	287.8
1926.722	268.8
1930.954	263.8
1935.183	269.8
1939.408	270.8
1943.628	266.8
1947.845	265.8
1952.058	263.8
1956.267	260.8
1960.472	264.8
1964.673	252.8
1968.87	247.8
1973.063	252.8
1977.252	249.8
1981.438	259.8
1985.619	245.8
1989.797	251.8
1993.971	255.8
1998.14	259.8
2002.306	260.8
2006.469	267.8
2010.627	268.8
2014.781	261.8
2018.932	262.8
2023.078	259.8
2027.221	251.8
2031.36	258.8
2035.495	251.8
2039.627	242.8
2043.754	247.8
2047.878	241.8
2051.998	242.8
2056.114	240.8
2060.226	232.8
2064.334	226.8
2068.439	232.8
2072.54	223.8
2076.637	233.8
2080.73	224.8
2084.82	232.8
2088.906	216.8
2092.988	216.8
2097.066	217.8
2101.14	216.8
2105.211	209.8
2109.278	212.8
2113.342	198.8
2117.401	206.8
2121.457	198.8
2125.509	205.8
2129.558	202.8
2133.602	202.8
2137.643	199.8
2141.681	191.8
2145.714	200.8
2149.744	202.8
2153.77	194.8
2157.793	211.8
2161.812	207.8
2165.827	205.8
2169.838	187.8
2173.846	194.8
2177.851	194.8
2181.851	185.8
2185.848	186.8
2189.841	187.8
2193.831	180.8
2197.817	187.8
2201.799	184.8
2205.778	183.8
2209.753	181.8
2213.725	174.8
2217.693	186.8
2221.657	181.8
2225.618	178.8
2229.575	174.8
2233.529	171.8
2237.479	173.8
2241.425	171.8
2245.368	173.8
2249.307	170.8
2253.243	165.8
2257.175	167.8
2261.104	161.8
2265.029	162.8
2268.95	170.8
2272.868	156.8
2276.783	144.8
2280.694	153.8
2284.601	146.8
2288.505	153.8
2292.405	149.8
2296.302	152.8
2300.195	143.8
2304.085	137.8
2307.971	134.8
2311.854	135.8
2315.734	129.8
2319.609	146.8
2323.482	134.8
2327.351	141.8
2331.216	141.8
2335.078	162.8
2338.937	148.8
2342.792	134.8
2346.643	139.8
2350.492	137.8
2354.336	138.8
2358.178	131.8
2362.015	139.8
2365.85	134.8
2369.681	134.8
2373.508	144.8
2377.333	135.8
2381.153	138.8
2384.971	131.8
2388.785	130.8
2392.595	131.8
2396.402	138.8
2400.206	127.8
2404.007	137.8
2407.804	132.8
2411.597	133.8
2415.388	133.8
2419.174	140.8
2422.958	126.8
2426.738	133.8
2430.515	127.8
2434.289	122.8
2438.059	122.8
2441.825	115.8
2445.589	119.8
2449.349	117.8
2453.106	121.8
2456.859	112.8
2460.61	114.8
2464.356	114.8
2468.1	112.8
2471.84	113.8
2475.577	107.8
2479.311	101.8
2483.041	108.8
2486.768	103.8
2490.492	110.8
2494.213	109.8
2497.93	111.8
2501.644	108.8
2505.355	98.8
2509.062	102.8
2512.766	102.8
2516.467	94.8
2520.165	101.8
2523.859	98.8
2527.551	92.8
2531.239	90.8
2534.923	77.8
2538.605	86.8
2542.283	76.8
2545.958	81.8
2549.63	80.8
2553.299	78.8
2556.964	76.8
2560.626	82.8
2564.285	81.8
2567.941	72.8
2571.594	73.8
2575.243	79.8
2578.89	74.8
2582.533	73.8
2586.173	58.8
2589.809	75.8
2593.443	75.8
2597.073	69.8
2600.701	64.8
2604.325	57.8
2607.946	56.8
2611.564	65.8
2615.178	63.8
2618.79	62.8
2622.398	68.8
2626.004	63.8
2629.606	60.8
2633.205	59.8
2636.801	64.8
2640.394	65.8
2643.983	61.8
2647.57	60.8
2651.153	54.8
2654.734	51.8
2658.311	53.8
2661.885	52.8
2665.456	59.8
2669.025	48.8
2672.589	44.8
2676.151	53.8
2679.71	58.8
2683.266	53.8
2686.819	53.8
2690.368	55.8
2693.915	55.8
2697.458	46.8
2700.999	48.8
2704.536	50.8
2708.071	43.8
2711.602	43.8
2715.13	38.8
2718.656	45.8
2722.178	34.8
2725.697	36.8
2729.214	34.8
2732.727	46.8
2736.237	35.8
2739.744	33.8
2743.249	35.8
2746.75	27.8
2750.248	27.8
2753.743	27.8
2757.236	22.8
2760.725	22.8
2764.211	23.8
2767.695	18.8
2771.175	22.8
2774.652	17.8
2778.127	23.8
2781.598	22.8
2785.067	22.8
2788.532	23.8
2791.995	31.8
2795.455	15.8
2798.911	21.8
2802.365	26.8
2805.816	28.8
2809.264	26.8
2812.709	24.8
2816.151	28.8
2819.59	32.8
2823.026	29.8
2826.46	28.8
2829.89	27.8
2833.318	27.8
2836.742	29.8
2840.164	31.8
2843.583	30.8
2846.999	27.8
2850.412	28.8
2853.822	28.8
2857.229	33.8
2860.634	28.8
2864.035	29.8
2867.434	29.8
2870.83	32.8
2874.223	32.8
2877.613	33.8
2881	39.8
2884.385	43.8
2887.766	39.8
2891.145	37.8
2894.521	44.8
2897.894	40.8
2901.264	45.8
2904.631	32.8
2907.996	43.8
2911.358	46.8
2914.717	49.8
2918.073	44.8
2921.426	49.8
2924.777	52.8
2928.124	55.8
2931.469	54.8
2934.811	63.8
2938.15	55.8
2941.487	66.8
2944.821	56.8
2948.152	58.8
2951.48	58.8
2954.805	61.8
2958.128	57.8
2961.447	66.8
2964.765	52.8
2968.079	50.8
2971.39	51.8
2974.699	56.8
2978.005	58.8
2981.308	59.8
2984.609	49.8
2987.907	55.8
2991.202	55.8
2994.494	51.8
2997.784	48.8
3001.07	59.8
3004.355	55.8
3007.636	58.8
3010.915	53.8
3014.191	55.8
3017.464	57.8
3020.734	63.8
3024.002	62.8
3027.267	67.8
3030.53	72.8
3033.789	71.8
3037.046	67.8
3040.301	66.8
3043.552	79.8
3046.801	84.8
3050.048	79.8
3053.291	86.8
3056.532	87.8
3059.771	94.8
3063.006	92.8
3066.239	104.8
3069.469	108.8
3072.697	107.8
3075.922	120.8
3079.144	116.8
3082.364	117.8
3085.581	124.8
3088.795	132.8
3092.007	129.8
3095.216	136.8
3098.423	131.8
3101.627	129.8
3104.828	147.8
3108.026	148.8
3111.222	143.8
3114.416	147.8
3117.607	156.8
3120.795	160.8
3123.98	164.8
3127.163	170.8
3130.344	168.8
3133.521	171.8
3136.696	175.8
3139.869	177.8
3143.039	176.8
3146.206	185.8
3149.371	190.8
3152.533	192.8
3155.693	198.8
3158.85	188.8
3162.005	199.8
3165.157	196.8
3168.306	192.8
3171.453	200.8
3174.597	202.8
3177.739	201.8
3180.878	205.8
3184.014	197.8
3187.149	210.8
3190.28	203.8
3193.409	205.8
3196.536	210.8
3199.659	198.8
3202.781	207.8
3205.9	210.8
3209.016	205.8
3212.13	199.8
3215.241	208.8
3218.35	200.8
3221.456	200.8
3224.56	193.8
3227.661	191.8
3230.76	186.8
3233.856	191.8
3236.95	179.8
3240.041	184.8
3243.13	172.8
3246.216	173.8
3249.3	165.8
3252.382	163.8
3255.46	164.8
3258.537	160.8
3261.611	156.8
3264.682	162.8
3267.751	155.8
3270.818	145.8
3273.882	154.8
3276.943	155.8
3280.002	156.8
3283.059	154.8
3286.113	150.8
3289.165	153.8
3292.214	146.8
3295.261	142.8
3298.306	144.8
3301.348	138.8
3304.387	140.8
3307.425	143.8
3310.459	132.8
3313.492	144.8
3316.521	134.8
3319.549	146.8
3322.574	139.8
3325.597	137.8
3328.617	133.8
3331.635	145.8
3334.65	143.8
3337.663	128.8
3340.674	135.8
3343.682	136.8
3346.688	132.8
3349.691	142.8
3352.692	132.8
3355.691	135.8
3358.687	130.8
3361.681	130.8
3364.673	125.8
3367.662	132.8
3370.649	128.8
3373.633	125.8
3376.615	125.8
3379.595	117.8
3382.572	115.8
3385.547	125.8
3388.52	119.8
3391.49	105.8
3394.458	102.8
3397.424	107.8
3400.387	110.8
3403.348	100.8
3406.307	97.8
3409.263	103.8
3412.217	97.8
3415.168	98.8
3418.118	94.8
3421.065	95.8
3424.009	87.8
3426.951	87.8
3429.891	89.8
3432.829	86.8
3435.764	85.8
3438.697	87.8
3441.628	66.8
3444.557	70.8
3447.483	70.8
3450.407	55.8
3453.328	64.8
3456.247	56.8
3459.164	52.8
3462.079	51.8
3464.991	42.8
3467.902	44.8
3470.809	41.8
3473.715	39.8
3476.618	30.8
3479.519	26.8
3482.418	29.8
3485.315	25.8
3488.209	15.8
3491.101	14.8
3493.99	23.8
3496.878	14.8
3499.763	12.8
3502.646	9.8
3505.527	13.8
3508.405	6.8
3511.281	5.8
3514.155	1.8
3517.027	-6.2
3519.897	-0.2
3522.764	-6.2
3525.629	-8.2
3528.492	-7.2
3531.352	-11.2
3534.211	-14.2
3537.067	-13.2
3539.921	-14.2
3542.773	-25.2
3545.622	-14.2
3548.469	-22.2
3551.315	-16.2
3554.157	-29.2
3556.998	-24.2
3559.837	-29.2
3562.673	-29.2
3565.507	-25.2
3568.339	-23.2
3571.169	-29.2
3573.996	-34.2
3576.822	-34.2
3579.645	-32.2
3582.466	-33.2
3585.285	-37.2
3588.101	-36.2
3590.916	-32.2
3593.728	-34.2
3596.538	-40.2
3599.346	-44.2
3602.152	-41.2
3604.956	-46.2
3607.757	-39.2
3610.556	-36.2
3613.354	-46.2
3616.149	-50.2
3618.942	-47.2
3621.732	-49.2
3624.521	-43.2
3627.307	-49.2
3630.092	-44.2
3632.874	-49.2
3635.654	-47.2
3638.432	-49.2
3641.208	-45.2
3643.982	-48.2
3646.753	-52.2
3649.523	-48.2
3652.29	-53.2
3655.055	-47.2
3657.818	-53.2
3660.579	-56.2
3663.338	-51.2
3666.095	-55.2
3668.849	-57.2
3671.602	-55.2
3674.352	-55.2
3677.101	-54.2
3679.847	-53.2
3682.591	-62.2
3685.333	-54.2
3688.073	-61.2
3690.811	-54.2
3693.547	-59.2
3696.281	-55.2
3699.013	-59.2
3701.742	-56.2
3704.47	-53.2
3707.195	-61.2
3709.919	-60.2
3712.64	-58.2
3715.359	-60.2
3718.076	-63.2
3720.792	-61.2
3723.505	-63.2
3726.216	-62.2
3728.925	-68.2
3731.632	-64.2
3734.336	-61.2
3737.039	-60.2
3739.74	-61.2
3742.439	-72.2
3745.136	-64.2
3747.83	-64.2
3750.523	-62.2
3753.213	-66.2
3755.902	-67.2
3758.589	-63.2
3761.273	-64.2
3763.956	-68.2
3766.636	-57.2
3769.315	-61.2
3771.991	-59.2
3774.665	-69.2
3777.338	-66.2
3780.008	-65.2
3782.677	-69.2
3785.343	-66.2
3788.007	-69.2
3790.67	-68.2
3793.33	-65.2
3795.989	-66.2
3798.645	-69.2
3801.299	-66.2
3803.952	-65.2
3806.602	-70.2
3809.251	-66.2
3811.897	-68.2
3814.542	-69.2
3817.184	-64.2
3819.825	-59.2
3822.463	-64.2
3825.1	-61.2
3827.735	-69.2
3830.367	-68.2
3832.998	-70.2
3835.627	-65.2
3838.253	-64.2
3840.878	-66.2
3843.501	-67.2
3846.122	-73.2
3848.741	-69.2
3851.358	-64.2
3853.973	-59.2
3856.586	-67.2
3859.197	-61.2
3861.806	-73.2
3864.414	-66.2
3867.019	-66.2
3869.622	-59.2
3872.224	-53.2
3874.823	-45.2
3877.421	-29.2
3880.016	-15.2
3882.61	12.8
3885.202	6.8
3887.792	-4.2
3890.38	-30.2
3892.966	-47.2
3895.55	-58.2
3898.132	-64.2
3900.713	-64.2
3903.291	-68.2
3905.868	-65.2
3908.442	-63.2
3911.015	-66.2
3913.586	-65.2
3916.155	-64.2
3918.722	-66.2
3921.287	-74.2
3923.85	-62.2
3926.411	-68.2
3928.971	-80.2
3931.528	-66.2
3934.084	-65.2
3936.638	-68.2
3939.19	-76.2
3941.74	-70.2
3944.288	-74.2
3946.834	-69.2
3949.378	-66.2
3951.921	-71.2
3954.462	-68.2
3957	-63.2
3959.537	-55.2
3962.072	-62.2
3964.606	-63.2
3967.137	-61.2
3969.667	-61.2
3972.194	-62.2
3974.72	-65.2
3977.244	-65.2
3979.766	-69.2
3982.286	-71.2
3984.805	-78.2
3987.321	-67.2
3989.836	-61.2
3992.349	-67.2
3994.86	-70.2
3997.369	-71.2
3999.877	-68.2
4002.382	-65.2
4004.886	-63.2
4007.388	-73.2
4009.888	-65.2
4012.386	-63.2
4014.883	-66.2
4017.377	-66.2
4019.87	-64.2
4022.361	-71.2
4024.85	-64.2
4027.338	-67.2
4029.823	-65.2
4032.307	-70.2
4034.789	-63.2
4037.269	-67.2
4039.747	-67.2
4042.224	-68.2
4044.699	-69.2
4047.172	-69.2
4049.643	-70.2
4052.112	-66.2
4054.58	-67.2
4057.046	-64.2
4059.51	-70.2
4061.972	-69.2
4064.432	-68.2
4066.891	-63.2
4069.348	-69.2
4071.803	-57.2
4074.256	-64.2
4076.708	-67.2
4079.158	-73.2
4081.606	-68.2
4084.052	-69.2
4086.497	-63.2
4088.939	-67.2
4091.38	-69.2
4093.819	-75.2
4096.257	-72.2
4098.693	-72.2
4101.127	-64.2
4103.559	-70.2
4105.989	36.8
4108.418	24.8
4110.845	16.8
4113.27	19.8
4115.694	22.8
4118.115	22.8
4120.535	-70.2
4122.954	-66.2
4125.37	-66.2
4127.785	-66.2
4130.198	-65.2
4132.609	-68.2
4135.019	-68.2
4137.427	-71.2
4139.833	-64.2
4142.237	-71.2
