Data from 2018-3-7_conc=3_n=3_RamanShift_05.txt Node
Date: Wed Mar 07 11:23:52 IST 2018
User: aro
Spectrometer: QEPB0276
Trigger mode: 0
Integration Time (sec): 3.000000E1
Scans to average: 1
Electric dark correction enabled: true
Nonlinearity correction enabled: false
Boxcar width: 0
XAxis mode: Raman Shifts
Number of Pixels in Spectrum: 1044
>>>>>Begin Spectral Data<<<<<
160.701	12.5
166.742	25.5
172.777	46.5
178.805	133.5
184.826	334.5
190.841	699.5
196.849	1147.5
202.85	1488.5
208.845	1638.5
214.833	1624.5
220.815	1606.5
226.789	1615.5
232.758	1628.5
238.719	1636.5
244.674	1626.5
250.623	1615.5
256.565	1613.5
262.5	1587.5
268.429	1567.5
274.351	1568.5
280.267	1559.5
286.176	1552.5
292.079	1556.5
297.975	1573.5
303.865	1576.5
309.748	1558.5
315.625	1583.5
321.495	1558.5
327.359	1574.5
333.217	1578.5
339.068	1591.5
344.912	1612.5
350.751	1585.5
356.583	1576.5
362.408	1584.5
368.227	1606.5
374.04	1606.5
379.847	1610.5
385.647	1616.5
391.44	1623.5
397.228	1637.5
403.009	1644.5
408.784	1668.5
414.553	1673.5
420.315	1673.5
426.071	1646.5
431.821	1642.5
437.565	1670.5
443.302	1666.5
449.033	1659.5
454.758	1638.5
460.477	1620.5
466.189	1628.5
471.896	1595.5
477.596	1598.5
483.29	1568.5
488.978	1596.5
494.66	1585.5
500.335	1545.5
506.005	1489.5
511.668	1430.5
517.325	1373.5
522.977	1304.5
528.622	1278.5
534.261	1251.5
539.894	1225.5
545.521	1235.5
551.141	1193.5
556.756	1187.5
562.365	1184.5
567.968	1172.5
573.565	1171.5
579.155	1156.5
584.74	1150.5
590.319	1145.5
595.892	1149.5
601.459	1126.5
607.02	1134.5
612.575	1120.5
618.124	1107.5
623.667	1101.5
629.204	1084.5
634.735	1075.5
640.261	1063.5
645.781	1075.5
651.294	1058.5
656.802	1050.5
662.304	1057.5
667.8	1061.5
673.29	1048.5
678.775	1027.5
684.254	1050.5
689.726	1056.5
695.193	1015.5
700.655	1023.5
706.11	1015.5
711.56	1011.5
717.004	1012.5
722.442	983.5
727.874	999.5
733.301	999.5
738.722	982.5
744.137	984.5
749.547	976.5
754.951	963.5
760.349	979.5
765.741	977.5
771.128	983.5
776.509	995.5
781.885	1009.5
787.254	1016.5
792.618	1009.5
797.977	1017.5
803.33	1016.5
808.677	1010.5
814.019	1000.5
819.355	987.5
824.686	978.5
830.011	969.5
835.33	958.5
840.644	963.5
845.952	972.5
851.255	944.5
856.552	956.5
861.844	944.5
867.13	929.5
872.41	919.5
877.686	922.5
882.955	920.5
888.219	911.5
893.478	897.5
898.731	876.5
903.979	864.5
909.221	868.5
914.458	865.5
919.69	859.5
924.916	850.5
930.136	858.5
935.351	856.5
940.561	862.5
945.766	858.5
950.965	840.5
956.158	849.5
961.347	843.5
966.529	828.5
971.707	817.5
976.879	801.5
982.046	790.5
987.208	803.5
992.364	797.5
997.515	790.5
1002.66	801.5
1007.801	803.5
1012.936	821.5
1018.066	829.5
1023.19	824.5
1028.309	820.5
1033.423	817.5
1038.532	820.5
1043.636	810.5
1048.734	793.5
1053.827	788.5
1058.915	782.5
1063.998	775.5
1069.075	764.5
1074.147	773.5
1079.214	774.5
1084.276	785.5
1089.333	787.5
1094.385	787.5
1099.431	788.5
1104.472	780.5
1109.509	766.5
1114.54	758.5
1119.565	752.5
1124.586	750.5
1129.602	730.5
1134.613	729.5
1139.618	728.5
1144.619	721.5
1149.614	724.5
1154.604	722.5
1159.589	735.5
1164.57	730.5
1169.545	730.5
1174.515	730.5
1179.48	725.5
1184.44	729.5
1189.395	713.5
1194.345	711.5
1199.29	707.5
1204.23	707.5
1209.165	708.5
1214.095	703.5
1219.021	728.5
1223.941	715.5
1228.856	720.5
1233.766	720.5
1238.672	724.5
1243.572	720.5
1248.467	717.5
1253.358	714.5
1258.244	687.5
1263.124	670.5
1268	674.5
1272.871	661.5
1277.737	646.5
1282.599	664.5
1287.455	663.5
1292.306	647.5
1297.153	647.5
1301.995	663.5
1306.832	661.5
1311.664	670.5
1316.491	670.5
1321.314	670.5
1326.132	664.5
1330.945	644.5
1335.753	640.5
1340.556	627.5
1345.354	614.5
1350.148	609.5
1354.937	591.5
1359.722	578.5
1364.501	564.5
1369.276	552.5
1374.046	552.5
1378.811	539.5
1383.572	546.5
1388.327	529.5
1393.079	535.5
1397.825	545.5
1402.567	561.5
1407.304	548.5
1412.036	552.5
1416.764	556.5
1421.487	561.5
1426.205	548.5
1430.919	543.5
1435.628	569.5
1440.333	574.5
1445.032	560.5
1449.727	571.5
1454.418	574.5
1459.104	571.5
1463.785	552.5
1468.462	543.5
1473.134	523.5
1477.802	514.5
1482.465	493.5
1487.123	493.5
1491.777	493.5
1496.426	485.5
1501.071	478.5
1505.711	473.5
1510.347	464.5
1514.978	463.5
1519.604	467.5
1524.226	461.5
1528.844	459.5
1533.457	459.5
1538.065	451.5
1542.669	455.5
1547.269	444.5
1551.864	460.5
1556.454	469.5
1561.041	487.5
1565.622	487.5
1570.199	485.5
1574.772	476.5
1579.34	477.5
1583.904	477.5
1588.464	499.5
1593.019	505.5
1597.569	494.5
1602.115	493.5
1606.657	494.5
1611.195	488.5
1615.728	500.5
1620.256	480.5
1624.78	488.5
1629.3	482.5
1633.816	485.5
1638.327	491.5
1642.834	486.5
1647.336	487.5
1651.834	481.5
1656.328	481.5
1660.817	482.5
1665.302	466.5
1669.783	461.5
1674.259	459.5
1678.732	450.5
1683.199	433.5
1687.663	423.5
1692.122	390.5
1696.577	381.5
1701.028	373.5
1705.474	344.5
1709.917	347.5
1714.355	338.5
1718.788	334.5
1723.218	336.5
1727.643	330.5
1732.064	325.5
1736.481	334.5
1740.893	321.5
1745.301	317.5
1749.705	311.5
1754.105	307.5
1758.501	294.5
1762.893	293.5
1767.28	287.5
1771.663	283.5
1776.042	274.5
1780.417	267.5
1784.787	275.5
1789.154	260.5
1793.516	256.5
1797.874	259.5
1802.228	263.5
1806.578	250.5
1810.924	244.5
1815.266	256.5
1819.603	251.5
1823.937	251.5
1828.266	255.5
1832.591	263.5
1836.913	255.5
1841.23	259.5
1845.543	253.5
1849.852	258.5
1854.156	261.5
1858.457	264.5
1862.754	260.5
1867.047	255.5
1871.335	250.5
1875.62	256.5
1879.9	249.5
1884.177	242.5
1888.449	247.5
1892.718	247.5
1896.982	238.5
1901.243	227.5
1905.499	235.5
1909.752	216.5
1914	221.5
1918.245	221.5
1922.485	215.5
1926.722	204.5
1930.954	213.5
1935.183	209.5
1939.408	213.5
1943.628	206.5
1947.845	203.5
1952.058	205.5
1956.267	194.5
1960.472	200.5
1964.673	188.5
1968.87	187.5
1973.063	195.5
1977.252	195.5
1981.438	198.5
1985.619	190.5
1989.797	184.5
1993.971	200.5
1998.14	196.5
2002.306	201.5
2006.469	201.5
2010.627	193.5
2014.781	197.5
2018.932	189.5
2023.078	198.5
2027.221	194.5
2031.36	191.5
2035.495	187.5
2039.627	180.5
2043.754	187.5
2047.878	179.5
2051.998	180.5
2056.114	174.5
2060.226	176.5
2064.334	176.5
2068.439	165.5
2072.54	176.5
2076.637	166.5
2080.73	165.5
2084.82	168.5
2088.906	165.5
2092.988	160.5
2097.066	158.5
2101.14	166.5
2105.211	166.5
2109.278	161.5
2113.342	152.5
2117.401	150.5
2121.457	151.5
2125.509	154.5
2129.558	148.5
2133.602	146.5
2137.643	149.5
2141.681	159.5
2145.714	153.5
2149.744	149.5
2153.77	151.5
2157.793	145.5
2161.812	158.5
2165.827	158.5
2169.838	146.5
2173.846	149.5
2177.851	143.5
2181.851	138.5
2185.848	138.5
2189.841	136.5
2193.831	141.5
2197.817	137.5
2201.799	134.5
2205.778	133.5
2209.753	133.5
2213.725	132.5
2217.693	140.5
2221.657	133.5
2225.618	132.5
2229.575	125.5
2233.529	128.5
2237.479	139.5
2241.425	121.5
2245.368	131.5
2249.307	135.5
2253.243	126.5
2257.175	127.5
2261.104	106.5
2265.029	121.5
2268.95	116.5
2272.868	118.5
2276.783	113.5
2280.694	109.5
2284.601	108.5
2288.505	113.5
2292.405	115.5
2296.302	110.5
2300.195	110.5
2304.085	109.5
2307.971	106.5
2311.854	98.5
2315.734	94.5
2319.609	106.5
2323.482	102.5
2327.351	110.5
2331.216	109.5
2335.078	128.5
2338.937	119.5
2342.792	104.5
2346.643	97.5
2350.492	105.5
2354.336	104.5
2358.178	99.5
2362.015	96.5
2365.85	95.5
2369.681	106.5
2373.508	102.5
2377.333	103.5
2381.153	101.5
2384.971	98.5
2388.785	93.5
2392.595	91.5
2396.402	101.5
2400.206	103.5
2404.007	96.5
2407.804	98.5
2411.597	101.5
2415.388	96.5
2419.174	101.5
2422.958	92.5
2426.738	93.5
2430.515	92.5
2434.289	94.5
2438.059	83.5
2441.825	85.5
2445.589	86.5
2449.349	86.5
2453.106	92.5
2456.859	80.5
2460.61	93.5
2464.356	83.5
2468.1	79.5
2471.84	80.5
2475.577	76.5
2479.311	80.5
2483.041	75.5
2486.768	77.5
2490.492	83.5
2494.213	71.5
2497.93	75.5
2501.644	77.5
2505.355	74.5
2509.062	70.5
2512.766	71.5
2516.467	68.5
2520.165	66.5
2523.859	78.5
2527.551	60.5
2531.239	67.5
2534.923	56.5
2538.605	62.5
2542.283	58.5
2545.958	63.5
2549.63	63.5
2553.299	58.5
2556.964	53.5
2560.626	60.5
2564.285	64.5
2567.941	56.5
2571.594	62.5
2575.243	55.5
2578.89	50.5
2582.533	54.5
2586.173	52.5
2589.809	59.5
2593.443	55.5
2597.073	47.5
2600.701	47.5
2604.325	44.5
2607.946	44.5
2611.564	51.5
2615.178	54.5
2618.79	54.5
2622.398	48.5
2626.004	49.5
2629.606	41.5
2633.205	43.5
2636.801	40.5
2640.394	51.5
2643.983	45.5
2647.57	37.5
2651.153	36.5
2654.734	44.5
2658.311	39.5
2661.885	41.5
2665.456	49.5
2669.025	44.5
2672.589	41.5
2676.151	41.5
2679.71	31.5
2683.266	38.5
2686.819	46.5
2690.368	42.5
2693.915	40.5
2697.458	26.5
2700.999	38.5
2704.536	37.5
2708.071	34.5
2711.602	29.5
2715.13	26.5
2718.656	29.5
2722.178	29.5
2725.697	30.5
2729.214	31.5
2732.727	28.5
2736.237	29.5
2739.744	25.5
2743.249	25.5
2746.75	22.5
2750.248	22.5
2753.743	22.5
2757.236	22.5
2760.725	21.5
2764.211	10.5
2767.695	22.5
2771.175	18.5
2774.652	27.5
2778.127	17.5
2781.598	20.5
2785.067	9.5
2788.532	14.5
2791.995	18.5
2795.455	14.5
2798.911	12.5
2802.365	23.5
2805.816	19.5
2809.264	14.5
2812.709	12.5
2816.151	20.5
2819.59	34.5
2823.026	29.5
2826.46	27.5
2829.89	25.5
2833.318	18.5
2836.742	23.5
2840.164	20.5
2843.583	14.5
2846.999	19.5
2850.412	14.5
2853.822	21.5
2857.229	21.5
2860.634	18.5
2864.035	15.5
2867.434	23.5
2870.83	26.5
2874.223	27.5
2877.613	27.5
2881	29.5
2884.385	31.5
2887.766	29.5
2891.145	29.5
2894.521	29.5
2897.894	31.5
2901.264	26.5
2904.631	21.5
2907.996	31.5
2911.358	34.5
2914.717	25.5
2918.073	24.5
2921.426	29.5
2924.777	38.5
2928.124	35.5
2931.469	37.5
2934.811	46.5
2938.15	44.5
2941.487	43.5
2944.821	36.5
2948.152	38.5
2951.48	40.5
2954.805	40.5
2958.128	35.5
2961.447	40.5
2964.765	33.5
2968.079	36.5
2971.39	36.5
2974.699	28.5
2978.005	43.5
2981.308	39.5
2984.609	37.5
2987.907	35.5
2991.202	32.5
2994.494	36.5
2997.784	34.5
3001.07	36.5
3004.355	34.5
3007.636	36.5
3010.915	42.5
3014.191	32.5
3017.464	30.5
3020.734	49.5
3024.002	47.5
3027.267	41.5
3030.53	44.5
3033.789	41.5
3037.046	44.5
3040.301	38.5
3043.552	49.5
3046.801	58.5
3050.048	54.5
3053.291	56.5
3056.532	49.5
3059.771	55.5
3063.006	59.5
3066.239	59.5
3069.469	69.5
3072.697	63.5
3075.922	73.5
3079.144	66.5
3082.364	75.5
3085.581	75.5
3088.795	81.5
3092.007	84.5
3095.216	87.5
3098.423	86.5
3101.627	85.5
3104.828	93.5
3108.026	88.5
3111.222	92.5
3114.416	95.5
3117.607	92.5
3120.795	99.5
3123.98	93.5
3127.163	107.5
3130.344	113.5
3133.521	117.5
3136.696	111.5
3139.869	110.5
3143.039	122.5
3146.206	122.5
3149.371	113.5
3152.533	127.5
3155.693	126.5
3158.85	124.5
3162.005	123.5
3165.157	122.5
3168.306	125.5
3171.453	123.5
3174.597	127.5
3177.739	132.5
3180.878	136.5
3184.014	127.5
3187.149	126.5
3190.28	133.5
3193.409	132.5
3196.536	126.5
3199.659	133.5
3202.781	129.5
3205.9	127.5
3209.016	129.5
3212.13	129.5
3215.241	127.5
3218.35	131.5
3221.456	128.5
3224.56	124.5
3227.661	124.5
3230.76	117.5
3233.856	122.5
3236.95	112.5
3240.041	118.5
3243.13	113.5
3246.216	108.5
3249.3	104.5
3252.382	105.5
3255.46	108.5
3258.537	110.5
3261.611	98.5
3264.682	105.5
3267.751	101.5
3270.818	92.5
3273.882	94.5
3276.943	98.5
3280.002	104.5
3283.059	97.5
3286.113	93.5
3289.165	87.5
3292.214	90.5
3295.261	96.5
3298.306	88.5
3301.348	91.5
3304.387	90.5
3307.425	87.5
3310.459	76.5
3313.492	86.5
3316.521	90.5
3319.549	91.5
3322.574	79.5
3325.597	78.5
3328.617	86.5
3331.635	81.5
3334.65	95.5
3337.663	79.5
3340.674	80.5
3343.682	85.5
3346.688	76.5
3349.691	84.5
3352.692	84.5
3355.691	89.5
3358.687	76.5
3361.681	81.5
3364.673	74.5
3367.662	77.5
3370.649	77.5
3373.633	71.5
3376.615	74.5
3379.595	65.5
3382.572	73.5
3385.547	70.5
3388.52	69.5
3391.49	65.5
3394.458	62.5
3397.424	72.5
3400.387	60.5
3403.348	56.5
3406.307	53.5
3409.263	55.5
3412.217	55.5
3415.168	58.5
3418.118	57.5
3421.065	51.5
3424.009	50.5
3426.951	51.5
3429.891	53.5
3432.829	54.5
3435.764	52.5
3438.697	54.5
3441.628	38.5
3444.557	36.5
3447.483	40.5
3450.407	23.5
3453.328	37.5
3456.247	31.5
3459.164	29.5
3462.079	24.5
3464.991	23.5
3467.902	25.5
3470.809	19.5
3473.715	23.5
3476.618	17.5
3479.519	15.5
3482.418	17.5
3485.315	9.5
3488.209	-1.5
3491.101	3.5
3493.99	8.5
3496.878	3.5
3499.763	0.5
3502.646	0.5
3505.527	5.5
3508.405	-1.5
3511.281	4.5
3514.155	3.5
3517.027	-8.5
3519.897	-4.5
3522.764	-5.5
3525.629	-6.5
3528.492	-13.5
3531.352	-20.5
3534.211	-13.5
3537.067	-18.5
3539.921	-15.5
3542.773	-22.5
3545.622	-17.5
3548.469	-20.5
3551.315	-15.5
3554.157	-23.5
3556.998	-18.5
3559.837	-22.5
3562.673	-23.5
3565.507	-23.5
3568.339	-21.5
3571.169	-22.5
3573.996	-21.5
3576.822	-32.5
3579.645	-33.5
3582.466	-28.5
3585.285	-34.5
3588.101	-27.5
3590.916	-29.5
3593.728	-33.5
3596.538	-30.5
3599.346	-35.5
3602.152	-32.5
3604.956	-32.5
3607.757	-28.5
3610.556	-32.5
3613.354	-39.5
3616.149	-37.5
3618.942	-34.5
3621.732	-38.5
3624.521	-36.5
3627.307	-39.5
3630.092	-34.5
3632.874	-39.5
3635.654	-34.5
3638.432	-33.5
3641.208	-37.5
3643.982	-38.5
3646.753	-37.5
3649.523	-36.5
3652.29	-42.5
3655.055	-34.5
3657.818	-47.5
3660.579	-43.5
3663.338	-33.5
3666.095	-43.5
3668.849	-44.5
3671.602	-42.5
3674.352	-39.5
3677.101	-41.5
3679.847	-41.5
3682.591	-42.5
3685.333	-41.5
3688.073	-47.5
3690.811	-39.5
3693.547	-46.5
3696.281	-44.5
3699.013	-47.5
3701.742	-46.5
3704.47	-43.5
3707.195	-41.5
3709.919	-45.5
3712.64	-45.5
3715.359	-44.5
3718.076	-46.5
3720.792	-43.5
3723.505	-48.5
3726.216	-40.5
3728.925	-45.5
3731.632	-43.5
3734.336	-49.5
3737.039	-42.5
3739.74	-53.5
3742.439	-52.5
3745.136	-52.5
3747.83	-45.5
3750.523	-50.5
3753.213	-40.5
3755.902	-46.5
3758.589	-47.5
3761.273	-47.5
3763.956	-48.5
3766.636	-45.5
3769.315	-42.5
3771.991	-49.5
3774.665	-51.5
3777.338	-48.5
3780.008	-43.5
3782.677	-53.5
3785.343	-49.5
3788.007	-48.5
3790.67	-48.5
3793.33	-47.5
3795.989	-44.5
3798.645	-53.5
3801.299	-48.5
3803.952	-51.5
3806.602	-52.5
3809.251	-51.5
3811.897	-52.5
3814.542	-57.5
3817.184	-55.5
3819.825	-44.5
3822.463	-48.5
3825.1	-51.5
3827.735	-53.5
3830.367	-50.5
3832.998	-46.5
3835.627	-50.5
3838.253	-45.5
3840.878	-45.5
3843.501	-43.5
3846.122	-50.5
3848.741	-52.5
3851.358	-48.5
3853.973	-51.5
3856.586	-46.5
3859.197	-48.5
3861.806	-52.5
3864.414	-53.5
3867.019	-49.5
3869.622	-40.5
3872.224	-39.5
3874.823	-28.5
3877.421	-26.5
3880.016	-13.5
3882.61	2.5
3885.202	2.5
3887.792	-5.5
3890.38	-25.5
3892.966	-39.5
3895.55	-44.5
3898.132	-46.5
3900.713	-49.5
3903.291	-48.5
3905.868	-45.5
3908.442	-48.5
3911.015	-43.5
3913.586	-53.5
3916.155	-50.5
3918.722	-55.5
3921.287	-50.5
3923.85	-45.5
3926.411	-54.5
3928.971	-59.5
3931.528	-51.5
3934.084	-51.5
3936.638	-47.5
3939.19	-55.5
3941.74	-48.5
3944.288	-49.5
3946.834	-49.5
3949.378	-45.5
3951.921	-52.5
3954.462	-49.5
3957	-47.5
3959.537	-44.5
3962.072	-46.5
3964.606	-44.5
3967.137	-49.5
3969.667	-57.5
3972.194	-48.5
3974.72	-46.5
3977.244	-49.5
3979.766	-52.5
3982.286	-48.5
3984.805	-61.5
3987.321	-44.5
3989.836	-43.5
3992.349	-48.5
3994.86	-55.5
3997.369	-51.5
3999.877	-52.5
4002.382	-51.5
4004.886	-47.5
4007.388	-49.5
4009.888	-48.5
4012.386	-49.5
4014.883	-46.5
4017.377	-44.5
4019.87	-49.5
4022.361	-54.5
4024.85	-46.5
4027.338	-49.5
4029.823	-49.5
4032.307	-50.5
4034.789	-50.5
4037.269	-51.5
4039.747	-51.5
4042.224	-52.5
4044.699	-56.5
4047.172	-56.5
4049.643	-48.5
4052.112	-49.5
4054.58	-48.5
4057.046	-46.5
4059.51	-48.5
4061.972	-54.5
4064.432	-51.5
4066.891	-46.5
4069.348	-47.5
4071.803	-42.5
4074.256	-51.5
4076.708	-50.5
4079.158	-53.5
4081.606	-52.5
4084.052	-50.5
4086.497	-45.5
4088.939	-48.5
4091.38	-53.5
4093.819	-53.5
4096.257	-47.5
4098.693	-49.5
4101.127	-46.5
4103.559	-54.5
4105.989	12.5
4108.418	9.5
4110.845	-0.5
4113.27	8.5
4115.694	7.5
4118.115	8.5
4120.535	-44.5
4122.954	-51.5
4125.37	-48.5
4127.785	-41.5
4130.198	-51.5
4132.609	-51.5
4135.019	-51.5
4137.427	-56.5
4139.833	-53.5
4142.237	-56.5
