Data from 2018-3-7_conc=6_n=10_RamanShift_04.txt Node
Date: Wed Mar 07 13:27:21 IST 2018
User: aro
Spectrometer: QEPB0276
Trigger mode: 0
Integration Time (sec): 3.000000E1
Scans to average: 1
Electric dark correction enabled: true
Nonlinearity correction enabled: false
Boxcar width: 0
XAxis mode: Raman Shifts
Number of Pixels in Spectrum: 1044
>>>>>Begin Spectral Data<<<<<
160.701	7.4
166.742	18.4
172.777	50.4
178.805	146.4
184.826	398.4
190.841	843.4
196.849	1418.4
202.85	1876.4
208.845	2053.4
214.833	2054.4
220.815	2021.4
226.789	1989.4
232.758	2005.4
238.719	2004.4
244.674	1998.4
250.623	1972.4
256.565	1938.4
262.5	1893.4
268.429	1903.4
274.351	1876.4
280.267	1846.4
286.176	1842.4
292.079	1860.4
297.975	1820.4
303.865	1828.4
309.748	1822.4
315.625	1826.4
321.495	1825.4
327.359	1821.4
333.217	1820.4
339.068	1839.4
344.912	1823.4
350.751	1832.4
356.583	1829.4
362.408	1821.4
368.227	1817.4
374.04	1825.4
379.847	1854.4
385.647	1855.4
391.44	1853.4
397.228	1843.4
403.009	1881.4
408.784	1853.4
414.553	1895.4
420.315	1882.4
426.071	1893.4
431.821	1883.4
437.565	1889.4
443.302	1876.4
449.033	1846.4
454.758	1873.4
460.477	1843.4
466.189	1826.4
471.896	1840.4
477.596	1814.4
483.29	1807.4
488.978	1817.4
494.66	1810.4
500.335	1772.4
506.005	1732.4
511.668	1667.4
517.325	1634.4
522.977	1586.4
528.622	1538.4
534.261	1526.4
539.894	1501.4
545.521	1504.4
551.141	1473.4
556.756	1472.4
562.365	1472.4
567.968	1481.4
573.565	1441.4
579.155	1438.4
584.74	1437.4
590.319	1432.4
595.892	1425.4
601.459	1420.4
607.02	1412.4
612.575	1415.4
618.124	1394.4
623.667	1405.4
629.204	1350.4
634.735	1360.4
640.261	1353.4
645.781	1318.4
651.294	1326.4
656.802	1323.4
662.304	1326.4
667.8	1337.4
673.29	1317.4
678.775	1321.4
684.254	1314.4
689.726	1311.4
695.193	1316.4
700.655	1300.4
706.11	1295.4
711.56	1288.4
717.004	1276.4
722.442	1266.4
727.874	1251.4
733.301	1254.4
738.722	1248.4
744.137	1250.4
749.547	1255.4
754.951	1255.4
760.349	1232.4
765.741	1246.4
771.128	1251.4
776.509	1262.4
781.885	1278.4
787.254	1275.4
792.618	1254.4
797.977	1257.4
803.33	1248.4
808.677	1257.4
814.019	1236.4
819.355	1230.4
824.686	1229.4
830.011	1213.4
835.33	1205.4
840.644	1202.4
845.952	1202.4
851.255	1216.4
856.552	1212.4
861.844	1199.4
867.13	1185.4
872.41	1165.4
877.686	1164.4
882.955	1174.4
888.219	1156.4
893.478	1137.4
898.731	1122.4
903.979	1117.4
909.221	1099.4
914.458	1098.4
919.69	1100.4
924.916	1099.4
930.136	1092.4
935.351	1099.4
940.561	1100.4
945.766	1104.4
950.965	1110.4
956.158	1082.4
961.347	1067.4
966.529	1067.4
971.707	1051.4
976.879	1040.4
982.046	1025.4
987.208	1034.4
992.364	1016.4
997.515	1022.4
1002.66	1021.4
1007.801	1050.4
1012.936	1034.4
1018.066	1061.4
1023.19	1041.4
1028.309	1044.4
1033.423	1048.4
1038.532	1045.4
1043.636	1049.4
1048.734	1023.4
1053.827	1017.4
1058.915	1011.4
1063.998	1005.4
1069.075	983.4
1074.147	999.4
1079.214	997.4
1084.276	989.4
1089.333	1001.4
1094.385	1006.4
1099.431	999.4
1104.472	1009.4
1109.509	990.4
1114.54	973.4
1119.565	964.4
1124.586	952.4
1129.602	941.4
1134.613	938.4
1139.618	931.4
1144.619	943.4
1149.614	933.4
1154.604	923.4
1159.589	946.4
1164.57	933.4
1169.545	942.4
1174.515	944.4
1179.48	924.4
1184.44	938.4
1189.395	920.4
1194.345	905.4
1199.29	901.4
1204.23	907.4
1209.165	901.4
1214.095	896.4
1219.021	905.4
1223.941	914.4
1228.856	927.4
1233.766	933.4
1238.672	926.4
1243.572	923.4
1248.467	903.4
1253.358	913.4
1258.244	908.4
1263.124	872.4
1268	879.4
1272.871	864.4
1277.737	842.4
1282.599	848.4
1287.455	857.4
1292.306	852.4
1297.153	849.4
1301.995	862.4
1306.832	856.4
1311.664	857.4
1316.491	882.4
1321.314	863.4
1326.132	858.4
1330.945	847.4
1335.753	829.4
1340.556	804.4
1345.354	796.4
1350.148	794.4
1354.937	784.4
1359.722	744.4
1364.501	743.4
1369.276	724.4
1374.046	703.4
1378.811	713.4
1383.572	698.4
1388.327	704.4
1393.079	704.4
1397.825	687.4
1402.567	698.4
1407.304	714.4
1412.036	722.4
1416.764	718.4
1421.487	718.4
1426.205	711.4
1430.919	709.4
1435.628	718.4
1440.333	723.4
1445.032	737.4
1449.727	751.4
1454.418	728.4
1459.104	733.4
1463.785	728.4
1468.462	715.4
1473.134	694.4
1477.802	680.4
1482.465	660.4
1487.123	653.4
1491.777	638.4
1496.426	632.4
1501.071	626.4
1505.711	608.4
1510.347	613.4
1514.978	602.4
1519.604	599.4
1524.226	588.4
1528.844	598.4
1533.457	581.4
1538.065	581.4
1542.669	586.4
1547.269	591.4
1551.864	592.4
1556.454	603.4
1561.041	602.4
1565.622	610.4
1570.199	616.4
1574.772	617.4
1579.34	643.4
1583.904	638.4
1588.464	656.4
1593.019	646.4
1597.569	655.4
1602.115	665.4
1606.657	675.4
1611.195	633.4
1615.728	651.4
1620.256	647.4
1624.78	654.4
1629.3	648.4
1633.816	653.4
1638.327	646.4
1642.834	650.4
1647.336	652.4
1651.834	643.4
1656.328	648.4
1660.817	639.4
1665.302	632.4
1669.783	610.4
1674.259	602.4
1678.732	593.4
1683.199	575.4
1687.663	555.4
1692.122	524.4
1696.577	488.4
1701.028	477.4
1705.474	440.4
1709.917	436.4
1714.355	435.4
1718.788	417.4
1723.218	421.4
1727.643	435.4
1732.064	428.4
1736.481	432.4
1740.893	414.4
1745.301	412.4
1749.705	398.4
1754.105	389.4
1758.501	386.4
1762.893	373.4
1767.28	365.4
1771.663	372.4
1776.042	362.4
1780.417	354.4
1784.787	350.4
1789.154	344.4
1793.516	323.4
1797.874	316.4
1802.228	315.4
1806.578	309.4
1810.924	307.4
1815.266	293.4
1819.603	308.4
1823.937	315.4
1828.266	313.4
1832.591	321.4
1836.913	321.4
1841.23	322.4
1845.543	321.4
1849.852	333.4
1854.156	332.4
1858.457	329.4
1862.754	328.4
1867.047	319.4
1871.335	323.4
1875.62	322.4
1879.9	328.4
1884.177	310.4
1888.449	312.4
1892.718	313.4
1896.982	296.4
1901.243	298.4
1905.499	294.4
1909.752	284.4
1914	284.4
1918.245	279.4
1922.485	270.4
1926.722	265.4
1930.954	262.4
1935.183	266.4
1939.408	267.4
1943.628	250.4
1947.845	252.4
1952.058	251.4
1956.267	243.4
1960.472	250.4
1964.673	235.4
1968.87	234.4
1973.063	238.4
1977.252	246.4
1981.438	242.4
1985.619	240.4
1989.797	245.4
1993.971	245.4
1998.14	242.4
2002.306	244.4
2006.469	254.4
2010.627	251.4
2014.781	249.4
2018.932	250.4
2023.078	256.4
2027.221	252.4
2031.36	242.4
2035.495	240.4
2039.627	227.4
2043.754	245.4
2047.878	237.4
2051.998	239.4
2056.114	225.4
2060.226	230.4
2064.334	229.4
2068.439	225.4
2072.54	225.4
2076.637	219.4
2080.73	228.4
2084.82	224.4
2088.906	217.4
2092.988	215.4
2097.066	202.4
2101.14	204.4
2105.211	208.4
2109.278	198.4
2113.342	191.4
2117.401	198.4
2121.457	188.4
2125.509	197.4
2129.558	196.4
2133.602	196.4
2137.643	195.4
2141.681	190.4
2145.714	197.4
2149.744	199.4
2153.77	207.4
2157.793	195.4
2161.812	195.4
2165.827	188.4
2169.838	191.4
2173.846	194.4
2177.851	183.4
2181.851	183.4
2185.848	185.4
2189.841	182.4
2193.831	173.4
2197.817	181.4
2201.799	180.4
2205.778	167.4
2209.753	176.4
2213.725	181.4
2217.693	183.4
2221.657	182.4
2225.618	172.4
2229.575	179.4
2233.529	172.4
2237.479	184.4
2241.425	168.4
2245.368	177.4
2249.307	167.4
2253.243	167.4
2257.175	169.4
2261.104	153.4
2265.029	158.4
2268.95	157.4
2272.868	151.4
2276.783	149.4
2280.694	148.4
2284.601	144.4
2288.505	149.4
2292.405	145.4
2296.302	155.4
2300.195	143.4
2304.085	144.4
2307.971	136.4
2311.854	134.4
2315.734	132.4
2319.609	138.4
2323.482	134.4
2327.351	144.4
2331.216	142.4
2335.078	154.4
2338.937	147.4
2342.792	141.4
2346.643	137.4
2350.492	139.4
2354.336	140.4
2358.178	132.4
2362.015	136.4
2365.85	132.4
2369.681	138.4
2373.508	137.4
2377.333	133.4
2381.153	133.4
2384.971	135.4
2388.785	129.4
2392.595	136.4
2396.402	138.4
2400.206	138.4
2404.007	135.4
2407.804	137.4
2411.597	131.4
2415.388	127.4
2419.174	142.4
2422.958	135.4
2426.738	134.4
2430.515	130.4
2434.289	127.4
2438.059	125.4
2441.825	119.4
2445.589	121.4
2449.349	121.4
2453.106	129.4
2456.859	116.4
2460.61	118.4
2464.356	118.4
2468.1	119.4
2471.84	110.4
2475.577	114.4
2479.311	113.4
2483.041	111.4
2486.768	114.4
2490.492	116.4
2494.213	100.4
2497.93	114.4
2501.644	113.4
2505.355	106.4
2509.062	103.4
2512.766	105.4
2516.467	103.4
2520.165	103.4
2523.859	103.4
2527.551	100.4
2531.239	95.4
2534.923	89.4
2538.605	85.4
2542.283	87.4
2545.958	91.4
2549.63	91.4
2553.299	82.4
2556.964	81.4
2560.626	86.4
2564.285	85.4
2567.941	79.4
2571.594	78.4
2575.243	83.4
2578.89	79.4
2582.533	77.4
2586.173	77.4
2589.809	83.4
2593.443	84.4
2597.073	74.4
2600.701	76.4
2604.325	66.4
2607.946	60.4
2611.564	73.4
2615.178	68.4
2618.79	68.4
2622.398	73.4
2626.004	67.4
2629.606	63.4
2633.205	71.4
2636.801	63.4
2640.394	71.4
2643.983	71.4
2647.57	68.4
2651.153	56.4
2654.734	59.4
2658.311	65.4
2661.885	68.4
2665.456	67.4
2669.025	67.4
2672.589	55.4
2676.151	57.4
2679.71	54.4
2683.266	59.4
2686.819	55.4
2690.368	55.4
2693.915	54.4
2697.458	46.4
2700.999	57.4
2704.536	57.4
2708.071	54.4
2711.602	45.4
2715.13	42.4
2718.656	46.4
2722.178	44.4
2725.697	51.4
2729.214	47.4
2732.727	48.4
2736.237	44.4
2739.744	43.4
2743.249	43.4
2746.75	38.4
2750.248	35.4
2753.743	37.4
2757.236	30.4
2760.725	33.4
2764.211	24.4
2767.695	25.4
2771.175	31.4
2774.652	24.4
2778.127	35.4
2781.598	29.4
2785.067	28.4
2788.532	29.4
2791.995	34.4
2795.455	32.4
2798.911	37.4
2802.365	32.4
2805.816	33.4
2809.264	35.4
2812.709	28.4
2816.151	42.4
2819.59	44.4
2823.026	34.4
2826.46	35.4
2829.89	32.4
2833.318	30.4
2836.742	32.4
2840.164	29.4
2843.583	32.4
2846.999	35.4
2850.412	35.4
2853.822	37.4
2857.229	38.4
2860.634	34.4
2864.035	33.4
2867.434	45.4
2870.83	44.4
2874.223	39.4
2877.613	46.4
2881	50.4
2884.385	51.4
2887.766	50.4
2891.145	48.4
2894.521	46.4
2897.894	49.4
2901.264	47.4
2904.631	41.4
2907.996	46.4
2911.358	53.4
2914.717	50.4
2918.073	47.4
2921.426	46.4
2924.777	58.4
2928.124	51.4
2931.469	60.4
2934.811	67.4
2938.15	70.4
2941.487	75.4
2944.821	64.4
2948.152	70.4
2951.48	67.4
2954.805	60.4
2958.128	63.4
2961.447	65.4
2964.765	58.4
2968.079	62.4
2971.39	63.4
2974.699	54.4
2978.005	65.4
2981.308	48.4
2984.609	54.4
2987.907	58.4
2991.202	61.4
2994.494	52.4
2997.784	58.4
3001.07	61.4
3004.355	59.4
3007.636	63.4
3010.915	66.4
3014.191	63.4
3017.464	67.4
3020.734	73.4
3024.002	69.4
3027.267	73.4
3030.53	76.4
3033.789	77.4
3037.046	74.4
3040.301	73.4
3043.552	80.4
3046.801	80.4
3050.048	87.4
3053.291	86.4
3056.532	89.4
3059.771	98.4
3063.006	104.4
3066.239	104.4
3069.469	109.4
3072.697	107.4
3075.922	119.4
3079.144	111.4
3082.364	117.4
3085.581	123.4
3088.795	126.4
3092.007	137.4
3095.216	137.4
3098.423	141.4
3101.627	137.4
3104.828	137.4
3108.026	142.4
3111.222	145.4
3114.416	154.4
3117.607	159.4
3120.795	155.4
3123.98	162.4
3127.163	162.4
3130.344	170.4
3133.521	168.4
3136.696	176.4
3139.869	181.4
3143.039	180.4
3146.206	183.4
3149.371	186.4
3152.533	197.4
3155.693	195.4
3158.85	194.4
3162.005	198.4
3165.157	188.4
3168.306	201.4
3171.453	193.4
3174.597	187.4
3177.739	198.4
3180.878	198.4
3184.014	201.4
3187.149	197.4
3190.28	201.4
3193.409	205.4
3196.536	198.4
3199.659	204.4
3202.781	205.4
3205.9	205.4
3209.016	205.4
3212.13	190.4
3215.241	195.4
3218.35	189.4
3221.456	198.4
3224.56	189.4
3227.661	198.4
3230.76	182.4
3233.856	168.4
3236.95	169.4
3240.041	177.4
3243.13	172.4
3246.216	169.4
3249.3	167.4
3252.382	164.4
3255.46	170.4
3258.537	173.4
3261.611	161.4
3264.682	162.4
3267.751	159.4
3270.818	155.4
3273.882	152.4
3276.943	154.4
3280.002	161.4
3283.059	150.4
3286.113	153.4
3289.165	140.4
3292.214	139.4
3295.261	143.4
3298.306	136.4
3301.348	140.4
3304.387	145.4
3307.425	135.4
3310.459	133.4
3313.492	133.4
3316.521	140.4
3319.549	141.4
3322.574	133.4
3325.597	137.4
3328.617	135.4
3331.635	137.4
3334.65	144.4
3337.663	129.4
3340.674	142.4
3343.682	140.4
3346.688	141.4
3349.691	143.4
3352.692	132.4
3355.691	135.4
3358.687	131.4
3361.681	134.4
3364.673	137.4
3367.662	132.4
3370.649	131.4
3373.633	119.4
3376.615	122.4
3379.595	125.4
3382.572	116.4
3385.547	117.4
3388.52	113.4
3391.49	109.4
3394.458	108.4
3397.424	114.4
3400.387	108.4
3403.348	104.4
3406.307	101.4
3409.263	111.4
3412.217	101.4
3415.168	105.4
3418.118	96.4
3421.065	91.4
3424.009	92.4
3426.951	96.4
3429.891	92.4
3432.829	82.4
3435.764	92.4
3438.697	85.4
3441.628	68.4
3444.557	82.4
3447.483	72.4
3450.407	61.4
3453.328	69.4
3456.247	65.4
3459.164	63.4
3462.079	53.4
3464.991	55.4
3467.902	54.4
3470.809	57.4
3473.715	45.4
3476.618	48.4
3479.519	35.4
3482.418	39.4
3485.315	36.4
3488.209	29.4
3491.101	25.4
3493.99	35.4
3496.878	20.4
3499.763	19.4
3502.646	24.4
3505.527	17.4
3508.405	13.4
3511.281	12.4
3514.155	5.4
3517.027	6.4
3519.897	7.4
3522.764	3.4
3525.629	9.4
3528.492	6.4
3531.352	0.4
3534.211	-4.6
3537.067	-0.6
3539.921	-1.6
3542.773	-9.6
3545.622	-6.6
3548.469	-6.6
3551.315	-9.6
3554.157	-11.6
3556.998	-11.6
3559.837	-20.6
3562.673	-11.6
3565.507	-10.6
3568.339	-11.6
3571.169	-21.6
3573.996	-16.6
3576.822	-26.6
3579.645	-30.6
3582.466	-25.6
3585.285	-21.6
3588.101	-25.6
3590.916	-21.6
3593.728	-31.6
3596.538	-25.6
3599.346	-32.6
3602.152	-29.6
3604.956	-27.6
3607.757	-24.6
3610.556	-31.6
3613.354	-34.6
3616.149	-33.6
3618.942	-32.6
3621.732	-34.6
3624.521	-31.6
3627.307	-37.6
3630.092	-35.6
3632.874	-41.6
3635.654	-38.6
3638.432	-36.6
3641.208	-38.6
3643.982	-38.6
3646.753	-41.6
3649.523	-37.6
3652.29	-44.6
3655.055	-38.6
3657.818	-38.6
3660.579	-41.6
3663.338	-38.6
3666.095	-41.6
3668.849	-42.6
3671.602	-41.6
3674.352	-41.6
3677.101	-41.6
3679.847	-42.6
3682.591	-49.6
3685.333	-40.6
3688.073	-51.6
3690.811	-44.6
3693.547	-48.6
3696.281	-48.6
3699.013	-51.6
3701.742	-55.6
3704.47	-39.6
3707.195	-52.6
3709.919	-47.6
3712.64	-49.6
3715.359	-54.6
3718.076	-50.6
3720.792	-51.6
3723.505	-46.6
3726.216	-43.6
3728.925	-53.6
3731.632	-48.6
3734.336	-50.6
3737.039	-42.6
3739.74	-49.6
3742.439	-52.6
3745.136	-46.6
3747.83	-47.6
3750.523	-49.6
3753.213	-53.6
3755.902	-55.6
3758.589	-49.6
3761.273	-53.6
3763.956	-59.6
3766.636	-50.6
3769.315	-48.6
3771.991	-52.6
3774.665	-56.6
3777.338	-46.6
3780.008	-51.6
3782.677	-55.6
3785.343	-47.6
3788.007	-51.6
3790.67	-54.6
3793.33	-48.6
3795.989	-54.6
3798.645	-55.6
3801.299	-52.6
3803.952	-52.6
3806.602	-54.6
3809.251	-56.6
3811.897	-54.6
3814.542	-63.6
3817.184	-59.6
3819.825	-53.6
3822.463	-55.6
3825.1	-52.6
3827.735	-59.6
3830.367	-55.6
3832.998	-57.6
3835.627	-50.6
3838.253	-47.6
3840.878	-45.6
3843.501	-49.6
3846.122	-56.6
3848.741	-54.6
3851.358	-49.6
3853.973	-49.6
3856.586	-51.6
3859.197	-49.6
3861.806	-53.6
3864.414	-49.6
3867.019	-57.6
3869.622	-46.6
3872.224	-40.6
3874.823	-32.6
3877.421	-28.6
3880.016	-12.6
3882.61	4.4
3885.202	0.4
3887.792	-9.6
3890.38	-18.6
3892.966	-38.6
3895.55	-49.6
3898.132	-49.6
3900.713	-50.6
3903.291	-56.6
3905.868	-49.6
3908.442	-52.6
3911.015	-53.6
3913.586	-55.6
3916.155	-55.6
3918.722	-54.6
3921.287	-51.6
3923.85	-52.6
3926.411	-59.6
3928.971	-65.6
3931.528	-53.6
3934.084	-47.6
3936.638	-55.6
3939.19	-62.6
3941.74	-49.6
3944.288	-51.6
3946.834	-50.6
3949.378	-55.6
3951.921	-57.6
3954.462	-53.6
3957	-45.6
3959.537	-46.6
3962.072	-50.6
3964.606	-55.6
3967.137	-48.6
3969.667	-52.6
3972.194	-50.6
3974.72	-47.6
3977.244	-52.6
3979.766	-55.6
3982.286	-58.6
3984.805	-61.6
3987.321	-53.6
3989.836	-51.6
3992.349	-52.6
3994.86	-57.6
3997.369	-53.6
3999.877	-52.6
4002.382	-52.6
4004.886	-48.6
4007.388	-59.6
4009.888	-53.6
4012.386	-54.6
4014.883	-49.6
4017.377	-46.6
4019.87	-53.6
4022.361	-59.6
4024.85	-49.6
4027.338	-57.6
4029.823	-54.6
4032.307	-56.6
4034.789	-49.6
4037.269	-56.6
4039.747	-57.6
4042.224	-56.6
4044.699	-62.6
4047.172	-58.6
4049.643	-54.6
4052.112	-56.6
4054.58	-55.6
4057.046	-49.6
4059.51	-55.6
4061.972	-60.6
4064.432	-50.6
4066.891	-49.6
4069.348	-53.6
4071.803	-44.6
4074.256	-50.6
4076.708	-53.6
4079.158	-59.6
4081.606	-53.6
4084.052	-58.6
4086.497	-54.6
4088.939	-52.6
4091.38	-58.6
4093.819	-62.6
4096.257	-54.6
4098.693	-55.6
4101.127	-49.6
4103.559	-58.6
4105.989	11.4
4108.418	5.4
4110.845	-2.6
4113.27	2.4
4115.694	12.4
4118.115	6.4
4120.535	-55.6
4122.954	-53.6
4125.37	-56.6
4127.785	-51.6
4130.198	-53.6
4132.609	-53.6
4135.019	-52.6
4137.427	-58.6
4139.833	-56.6
4142.237	-54.6
