Data from 2018-3-7_conc=4_n=10_RamanShift_02.txt Node
Date: Wed Mar 07 12:18:52 IST 2018
User: aro
Spectrometer: QEPB0276
Trigger mode: 0
Integration Time (sec): 3.000000E1
Scans to average: 1
Electric dark correction enabled: true
Nonlinearity correction enabled: false
Boxcar width: 0
XAxis mode: Raman Shifts
Number of Pixels in Spectrum: 1044
>>>>>Begin Spectral Data<<<<<
160.701	17.6
166.742	15.6
172.777	56.6
178.805	150.6
184.826	417.6
190.841	870.6
196.849	1450.6
202.85	1885.6
208.845	2039.6
214.833	2060.6
220.815	2021.6
226.789	2019.6
232.758	2025.6
238.719	2023.6
244.674	2005.6
250.623	2005.6
256.565	1966.6
262.5	1956.6
268.429	1945.6
274.351	1918.6
280.267	1899.6
286.176	1900.6
292.079	1901.6
297.975	1896.6
303.865	1891.6
309.748	1874.6
315.625	1874.6
321.495	1874.6
327.359	1878.6
333.217	1887.6
339.068	1890.6
344.912	1887.6
350.751	1912.6
356.583	1878.6
362.408	1897.6
368.227	1903.6
374.04	1909.6
379.847	1901.6
385.647	1922.6
391.44	1944.6
397.228	1945.6
403.009	1944.6
408.784	1950.6
414.553	1964.6
420.315	1961.6
426.071	1950.6
431.821	1968.6
437.565	1954.6
443.302	1960.6
449.033	1947.6
454.758	1965.6
460.477	1922.6
466.189	1927.6
471.896	1917.6
477.596	1908.6
483.29	1878.6
488.978	1879.6
494.66	1865.6
500.335	1843.6
506.005	1790.6
511.668	1732.6
517.325	1665.6
522.977	1621.6
528.622	1592.6
534.261	1551.6
539.894	1526.6
545.521	1541.6
551.141	1520.6
556.756	1512.6
562.365	1491.6
567.968	1479.6
573.565	1484.6
579.155	1462.6
584.74	1476.6
590.319	1469.6
595.892	1453.6
601.459	1442.6
607.02	1454.6
612.575	1425.6
618.124	1428.6
623.667	1414.6
629.204	1396.6
634.735	1387.6
640.261	1377.6
645.781	1354.6
651.294	1348.6
656.802	1357.6
662.304	1358.6
667.8	1350.6
673.29	1358.6
678.775	1357.6
684.254	1342.6
689.726	1328.6
695.193	1327.6
700.655	1307.6
706.11	1312.6
711.56	1302.6
717.004	1267.6
722.442	1277.6
727.874	1267.6
733.301	1275.6
738.722	1260.6
744.137	1264.6
749.547	1255.6
754.951	1254.6
760.349	1275.6
765.741	1263.6
771.128	1270.6
776.509	1283.6
781.885	1282.6
787.254	1298.6
792.618	1303.6
797.977	1303.6
803.33	1273.6
808.677	1269.6
814.019	1261.6
819.355	1245.6
824.686	1227.6
830.011	1234.6
835.33	1222.6
840.644	1228.6
845.952	1220.6
851.255	1201.6
856.552	1219.6
861.844	1217.6
867.13	1194.6
872.41	1176.6
877.686	1193.6
882.955	1175.6
888.219	1177.6
893.478	1139.6
898.731	1128.6
903.979	1126.6
909.221	1109.6
914.458	1099.6
919.69	1112.6
924.916	1119.6
930.136	1121.6
935.351	1122.6
940.561	1112.6
945.766	1120.6
950.965	1115.6
956.158	1095.6
961.347	1094.6
966.529	1073.6
971.707	1058.6
976.879	1052.6
982.046	1031.6
987.208	1037.6
992.364	1019.6
997.515	1030.6
1002.66	1038.6
1007.801	1063.6
1012.936	1057.6
1018.066	1064.6
1023.19	1061.6
1028.309	1058.6
1033.423	1049.6
1038.532	1048.6
1043.636	1032.6
1048.734	1033.6
1053.827	1012.6
1058.915	1021.6
1063.998	1002.6
1069.075	998.6
1074.147	994.6
1079.214	1008.6
1084.276	1020.6
1089.333	1016.6
1094.385	1015.6
1099.431	1002.6
1104.472	1002.6
1109.509	991.6
1114.54	987.6
1119.565	982.6
1124.586	964.6
1129.602	950.6
1134.613	940.6
1139.618	935.6
1144.619	933.6
1149.614	936.6
1154.604	928.6
1159.589	940.6
1164.57	937.6
1169.545	940.6
1174.515	952.6
1179.48	941.6
1184.44	933.6
1189.395	929.6
1194.345	922.6
1199.29	905.6
1204.23	916.6
1209.165	916.6
1214.095	915.6
1219.021	921.6
1223.941	930.6
1228.856	940.6
1233.766	931.6
1238.672	925.6
1243.572	934.6
1248.467	918.6
1253.358	914.6
1258.244	886.6
1263.124	885.6
1268	871.6
1272.871	861.6
1277.737	867.6
1282.599	842.6
1287.455	866.6
1292.306	858.6
1297.153	864.6
1301.995	861.6
1306.832	870.6
1311.664	861.6
1316.491	874.6
1321.314	866.6
1326.132	857.6
1330.945	837.6
1335.753	830.6
1340.556	819.6
1345.354	792.6
1350.148	778.6
1354.937	754.6
1359.722	752.6
1364.501	741.6
1369.276	722.6
1374.046	710.6
1378.811	701.6
1383.572	698.6
1388.327	695.6
1393.079	695.6
1397.825	698.6
1402.567	706.6
1407.304	705.6
1412.036	708.6
1416.764	705.6
1421.487	722.6
1426.205	707.6
1430.919	716.6
1435.628	722.6
1440.333	725.6
1445.032	711.6
1449.727	749.6
1454.418	724.6
1459.104	727.6
1463.785	725.6
1468.462	700.6
1473.134	695.6
1477.802	664.6
1482.465	654.6
1487.123	633.6
1491.777	623.6
1496.426	623.6
1501.071	606.6
1505.711	598.6
1510.347	599.6
1514.978	588.6
1519.604	589.6
1524.226	588.6
1528.844	585.6
1533.457	581.6
1538.065	586.6
1542.669	570.6
1547.269	576.6
1551.864	578.6
1556.454	590.6
1561.041	612.6
1565.622	613.6
1570.199	609.6
1574.772	615.6
1579.34	621.6
1583.904	630.6
1588.464	651.6
1593.019	646.6
1597.569	639.6
1602.115	643.6
1606.657	640.6
1611.195	644.6
1615.728	641.6
1620.256	634.6
1624.78	626.6
1629.3	634.6
1633.816	639.6
1638.327	637.6
1642.834	648.6
1647.336	638.6
1651.834	636.6
1656.328	631.6
1660.817	634.6
1665.302	614.6
1669.783	607.6
1674.259	605.6
1678.732	572.6
1683.199	557.6
1687.663	537.6
1692.122	510.6
1696.577	487.6
1701.028	462.6
1705.474	436.6
1709.917	429.6
1714.355	415.6
1718.788	422.6
1723.218	412.6
1727.643	415.6
1732.064	412.6
1736.481	406.6
1740.893	409.6
1745.301	404.6
1749.705	389.6
1754.105	378.6
1758.501	370.6
1762.893	374.6
1767.28	356.6
1771.663	352.6
1776.042	360.6
1780.417	333.6
1784.787	336.6
1789.154	327.6
1793.516	313.6
1797.874	305.6
1802.228	307.6
1806.578	312.6
1810.924	295.6
1815.266	299.6
1819.603	303.6
1823.937	310.6
1828.266	305.6
1832.591	316.6
1836.913	305.6
1841.23	317.6
1845.543	307.6
1849.852	317.6
1854.156	319.6
1858.457	323.6
1862.754	333.6
1867.047	315.6
1871.335	318.6
1875.62	308.6
1879.9	319.6
1884.177	299.6
1888.449	306.6
1892.718	306.6
1896.982	298.6
1901.243	280.6
1905.499	287.6
1909.752	274.6
1914	270.6
1918.245	265.6
1922.485	259.6
1926.722	259.6
1930.954	249.6
1935.183	257.6
1939.408	260.6
1943.628	241.6
1947.845	245.6
1952.058	246.6
1956.267	241.6
1960.472	243.6
1964.673	229.6
1968.87	233.6
1973.063	235.6
1977.252	237.6
1981.438	221.6
1985.619	233.6
1989.797	234.6
1993.971	241.6
1998.14	236.6
2002.306	237.6
2006.469	253.6
2010.627	236.6
2014.781	245.6
2018.932	237.6
2023.078	239.6
2027.221	242.6
2031.36	237.6
2035.495	231.6
2039.627	226.6
2043.754	224.6
2047.878	227.6
2051.998	223.6
2056.114	221.6
2060.226	211.6
2064.334	213.6
2068.439	212.6
2072.54	209.6
2076.637	213.6
2080.73	208.6
2084.82	203.6
2088.906	206.6
2092.988	204.6
2097.066	190.6
2101.14	200.6
2105.211	192.6
2109.278	190.6
2113.342	187.6
2117.401	186.6
2121.457	185.6
2125.509	189.6
2129.558	188.6
2133.602	182.6
2137.643	187.6
2141.681	177.6
2145.714	185.6
2149.744	182.6
2153.77	189.6
2157.793	184.6
2161.812	188.6
2165.827	189.6
2169.838	182.6
2173.846	181.6
2177.851	175.6
2181.851	179.6
2185.848	171.6
2189.841	171.6
2193.831	176.6
2197.817	177.6
2201.799	171.6
2205.778	176.6
2209.753	178.6
2213.725	174.6
2217.693	180.6
2221.657	166.6
2225.618	163.6
2229.575	155.6
2233.529	161.6
2237.479	159.6
2241.425	156.6
2245.368	161.6
2249.307	165.6
2253.243	160.6
2257.175	149.6
2261.104	147.6
2265.029	147.6
2268.95	146.6
2272.868	150.6
2276.783	144.6
2280.694	144.6
2284.601	134.6
2288.505	137.6
2292.405	128.6
2296.302	142.6
2300.195	131.6
2304.085	129.6
2307.971	133.6
2311.854	125.6
2315.734	120.6
2319.609	136.6
2323.482	134.6
2327.351	131.6
2331.216	140.6
2335.078	144.6
2338.937	140.6
2342.792	134.6
2346.643	138.6
2350.492	131.6
2354.336	139.6
2358.178	131.6
2362.015	131.6
2365.85	128.6
2369.681	131.6
2373.508	135.6
2377.333	137.6
2381.153	130.6
2384.971	128.6
2388.785	123.6
2392.595	121.6
2396.402	128.6
2400.206	134.6
2404.007	128.6
2407.804	130.6
2411.597	123.6
2415.388	128.6
2419.174	131.6
2422.958	118.6
2426.738	130.6
2430.515	123.6
2434.289	124.6
2438.059	112.6
2441.825	111.6
2445.589	110.6
2449.349	112.6
2453.106	110.6
2456.859	112.6
2460.61	113.6
2464.356	107.6
2468.1	113.6
2471.84	112.6
2475.577	108.6
2479.311	97.6
2483.041	107.6
2486.768	102.6
2490.492	103.6
2494.213	96.6
2497.93	101.6
2501.644	102.6
2505.355	93.6
2509.062	93.6
2512.766	97.6
2516.467	92.6
2520.165	92.6
2523.859	91.6
2527.551	86.6
2531.239	88.6
2534.923	80.6
2538.605	81.6
2542.283	82.6
2545.958	79.6
2549.63	78.6
2553.299	81.6
2556.964	78.6
2560.626	81.6
2564.285	76.6
2567.941	76.6
2571.594	71.6
2575.243	79.6
2578.89	69.6
2582.533	70.6
2586.173	64.6
2589.809	69.6
2593.443	73.6
2597.073	71.6
2600.701	65.6
2604.325	55.6
2607.946	66.6
2611.564	68.6
2615.178	64.6
2618.79	65.6
2622.398	70.6
2626.004	54.6
2629.606	61.6
2633.205	64.6
2636.801	63.6
2640.394	65.6
2643.983	60.6
2647.57	58.6
2651.153	48.6
2654.734	52.6
2658.311	55.6
2661.885	58.6
2665.456	59.6
2669.025	54.6
2672.589	53.6
2676.151	54.6
2679.71	49.6
2683.266	43.6
2686.819	57.6
2690.368	58.6
2693.915	53.6
2697.458	51.6
2700.999	56.6
2704.536	52.6
2708.071	53.6
2711.602	37.6
2715.13	41.6
2718.656	39.6
2722.178	43.6
2725.697	35.6
2729.214	35.6
2732.727	40.6
2736.237	41.6
2739.744	31.6
2743.249	41.6
2746.75	33.6
2750.248	35.6
2753.743	32.6
2757.236	29.6
2760.725	28.6
2764.211	21.6
2767.695	27.6
2771.175	24.6
2774.652	23.6
2778.127	25.6
2781.598	23.6
2785.067	22.6
2788.532	18.6
2791.995	26.6
2795.455	20.6
2798.911	32.6
2802.365	26.6
2805.816	28.6
2809.264	29.6
2812.709	24.6
2816.151	29.6
2819.59	38.6
2823.026	27.6
2826.46	37.6
2829.89	31.6
2833.318	24.6
2836.742	31.6
2840.164	22.6
2843.583	27.6
2846.999	38.6
2850.412	27.6
2853.822	26.6
2857.229	31.6
2860.634	29.6
2864.035	27.6
2867.434	38.6
2870.83	35.6
2874.223	38.6
2877.613	40.6
2881	43.6
2884.385	42.6
2887.766	46.6
2891.145	40.6
2894.521	42.6
2897.894	36.6
2901.264	42.6
2904.631	39.6
2907.996	42.6
2911.358	51.6
2914.717	42.6
2918.073	43.6
2921.426	46.6
2924.777	52.6
2928.124	48.6
2931.469	57.6
2934.811	59.6
2938.15	61.6
2941.487	72.6
2944.821	56.6
2948.152	54.6
2951.48	55.6
2954.805	56.6
2958.128	58.6
2961.447	64.6
2964.765	53.6
2968.079	49.6
2971.39	49.6
2974.699	49.6
2978.005	56.6
2981.308	51.6
2984.609	50.6
2987.907	58.6
2991.202	47.6
2994.494	45.6
2997.784	45.6
3001.07	59.6
3004.355	58.6
3007.636	60.6
3010.915	60.6
3014.191	56.6
3017.464	55.6
3020.734	63.6
3024.002	65.6
3027.267	62.6
3030.53	66.6
3033.789	62.6
3037.046	66.6
3040.301	61.6
3043.552	72.6
3046.801	76.6
3050.048	78.6
3053.291	79.6
3056.532	83.6
3059.771	89.6
3063.006	90.6
3066.239	97.6
3069.469	109.6
3072.697	104.6
3075.922	103.6
3079.144	107.6
3082.364	116.6
3085.581	110.6
3088.795	113.6
3092.007	115.6
3095.216	122.6
3098.423	117.6
3101.627	125.6
3104.828	131.6
3108.026	135.6
3111.222	132.6
3114.416	138.6
3117.607	136.6
3120.795	141.6
3123.98	144.6
3127.163	158.6
3130.344	155.6
3133.521	158.6
3136.696	159.6
3139.869	170.6
3143.039	174.6
3146.206	171.6
3149.371	176.6
3152.533	188.6
3155.693	183.6
3158.85	177.6
3162.005	181.6
3165.157	183.6
3168.306	168.6
3171.453	181.6
3174.597	178.6
3177.739	178.6
3180.878	187.6
3184.014	176.6
3187.149	173.6
3190.28	181.6
3193.409	187.6
3196.536	184.6
3199.659	188.6
3202.781	191.6
3205.9	182.6
3209.016	173.6
3212.13	190.6
3215.241	186.6
3218.35	183.6
3221.456	186.6
3224.56	173.6
3227.661	178.6
3230.76	174.6
3233.856	169.6
3236.95	154.6
3240.041	161.6
3243.13	161.6
3246.216	149.6
3249.3	152.6
3252.382	153.6
3255.46	151.6
3258.537	150.6
3261.611	142.6
3264.682	150.6
3267.751	151.6
3270.818	138.6
3273.882	142.6
3276.943	142.6
3280.002	143.6
3283.059	142.6
3286.113	134.6
3289.165	131.6
3292.214	133.6
3295.261	134.6
3298.306	127.6
3301.348	134.6
3304.387	131.6
3307.425	130.6
3310.459	129.6
3313.492	125.6
3316.521	118.6
3319.549	138.6
3322.574	123.6
3325.597	131.6
3328.617	127.6
3331.635	131.6
3334.65	131.6
3337.663	117.6
3340.674	129.6
3343.682	123.6
3346.688	120.6
3349.691	130.6
3352.692	132.6
3355.691	127.6
3358.687	120.6
3361.681	127.6
3364.673	118.6
3367.662	120.6
3370.649	112.6
3373.633	114.6
3376.615	110.6
3379.595	109.6
3382.572	107.6
3385.547	109.6
3388.52	101.6
3391.49	108.6
3394.458	98.6
3397.424	108.6
3400.387	100.6
3403.348	88.6
3406.307	90.6
3409.263	93.6
3412.217	85.6
3415.168	90.6
3418.118	83.6
3421.065	82.6
3424.009	81.6
3426.951	76.6
3429.891	78.6
3432.829	71.6
3435.764	79.6
3438.697	76.6
3441.628	68.6
3444.557	71.6
3447.483	68.6
3450.407	53.6
3453.328	61.6
3456.247	60.6
3459.164	53.6
3462.079	49.6
3464.991	50.6
3467.902	44.6
3470.809	41.6
3473.715	39.6
3476.618	36.6
3479.519	25.6
3482.418	28.6
3485.315	26.6
3488.209	17.6
3491.101	12.6
3493.99	20.6
3496.878	14.6
3499.763	9.6
3502.646	10.6
3505.527	15.6
3508.405	10.6
3511.281	7.6
3514.155	3.6
3517.027	2.6
3519.897	3.6
3522.764	0.6
3525.629	-1.4
3528.492	-4.4
3531.352	-8.4
3534.211	-11.4
3537.067	-11.4
3539.921	-7.4
3542.773	-16.4
3545.622	-14.4
3548.469	-16.4
3551.315	-14.4
3554.157	-17.4
3556.998	-20.4
3559.837	-18.4
3562.673	-19.4
3565.507	-17.4
3568.339	-21.4
3571.169	-20.4
3573.996	-23.4
3576.822	-32.4
3579.645	-31.4
3582.466	-27.4
3585.285	-31.4
3588.101	-31.4
3590.916	-29.4
3593.728	-34.4
3596.538	-33.4
3599.346	-33.4
3602.152	-34.4
3604.956	-35.4
3607.757	-27.4
3610.556	-35.4
3613.354	-40.4
3616.149	-40.4
3618.942	-31.4
3621.732	-37.4
3624.521	-34.4
3627.307	-32.4
3630.092	-37.4
3632.874	-36.4
3635.654	-41.4
3638.432	-36.4
3641.208	-42.4
3643.982	-37.4
3646.753	-43.4
3649.523	-41.4
3652.29	-47.4
3655.055	-44.4
3657.818	-47.4
3660.579	-47.4
3663.338	-40.4
3666.095	-43.4
3668.849	-47.4
3671.602	-44.4
3674.352	-41.4
3677.101	-46.4
3679.847	-45.4
3682.591	-49.4
3685.333	-44.4
3688.073	-49.4
3690.811	-49.4
3693.547	-49.4
3696.281	-48.4
3699.013	-46.4
3701.742	-52.4
3704.47	-45.4
3707.195	-49.4
3709.919	-52.4
3712.64	-49.4
3715.359	-51.4
3718.076	-49.4
3720.792	-52.4
3723.505	-51.4
3726.216	-45.4
3728.925	-53.4
3731.632	-45.4
3734.336	-49.4
3737.039	-46.4
3739.74	-54.4
3742.439	-59.4
3745.136	-55.4
3747.83	-50.4
3750.523	-58.4
3753.213	-68.4
3755.902	-56.4
3758.589	-59.4
3761.273	-53.4
3763.956	-55.4
3766.636	-51.4
3769.315	-47.4
3771.991	-56.4
3774.665	-56.4
3777.338	-56.4
3780.008	-53.4
3782.677	-58.4
3785.343	-56.4
3788.007	-53.4
3790.67	-55.4
3793.33	-50.4
3795.989	-59.4
3798.645	-57.4
3801.299	-57.4
3803.952	-61.4
3806.602	-57.4
3809.251	-58.4
3811.897	-55.4
3814.542	-62.4
3817.184	-55.4
3819.825	-54.4
3822.463	-58.4
3825.1	-51.4
3827.735	-62.4
3830.367	-61.4
3832.998	-56.4
3835.627	-57.4
3838.253	-53.4
3840.878	-47.4
3843.501	-49.4
3846.122	-64.4
3848.741	-59.4
3851.358	-56.4
3853.973	-55.4
3856.586	-58.4
3859.197	-55.4
3861.806	-61.4
3864.414	-56.4
3867.019	-56.4
3869.622	-46.4
3872.224	-45.4
3874.823	-29.4
3877.421	-26.4
3880.016	-17.4
3882.61	-0.4
3885.202	8.6
3887.792	1.6
3890.38	-28.4
3892.966	-43.4
3895.55	-51.4
3898.132	-56.4
3900.713	-57.4
3903.291	-61.4
3905.868	-52.4
3908.442	-58.4
3911.015	-52.4
3913.586	-59.4
3916.155	-56.4
3918.722	-58.4
3921.287	-54.4
3923.85	-49.4
3926.411	-57.4
3928.971	-61.4
3931.528	-61.4
3934.084	-53.4
3936.638	-57.4
3939.19	-62.4
3941.74	-53.4
3944.288	-61.4
3946.834	-59.4
3949.378	-58.4
3951.921	-61.4
3954.462	-62.4
3957	-50.4
3959.537	-49.4
3962.072	-53.4
3964.606	-52.4
3967.137	-55.4
3969.667	-57.4
3972.194	-51.4
3974.72	-51.4
3977.244	-52.4
3979.766	-56.4
3982.286	-55.4
3984.805	-63.4
3987.321	-52.4
3989.836	-55.4
3992.349	-55.4
3994.86	-58.4
3997.369	-59.4
3999.877	-62.4
4002.382	-57.4
4004.886	-58.4
4007.388	-54.4
4009.888	-55.4
4012.386	-53.4
4014.883	-51.4
4017.377	-51.4
4019.87	-51.4
4022.361	-56.4
4024.85	-54.4
4027.338	-58.4
4029.823	-57.4
4032.307	-61.4
4034.789	-53.4
4037.269	-59.4
4039.747	-61.4
4042.224	-55.4
4044.699	-60.4
4047.172	-58.4
4049.643	-60.4
4052.112	-56.4
4054.58	-53.4
4057.046	-49.4
4059.51	-57.4
4061.972	-55.4
4064.432	-50.4
4066.891	-53.4
4069.348	-52.4
4071.803	-52.4
4074.256	-50.4
4076.708	-53.4
4079.158	-62.4
4081.606	-56.4
4084.052	-56.4
4086.497	-53.4
4088.939	-55.4
4091.38	-64.4
4093.819	-57.4
4096.257	-55.4
4098.693	-61.4
4101.127	-54.4
4103.559	-62.4
4105.989	20.6
4108.418	6.6
4110.845	12.6
4113.27	8.6
4115.694	13.6
4118.115	15.6
4120.535	-58.4
4122.954	-56.4
4125.37	-58.4
4127.785	-57.4
4130.198	-51.4
4132.609	-56.4
4135.019	-60.4
4137.427	-62.4
4139.833	-57.4
4142.237	-60.4
