Data from 2018-3-7_conc=0_n=7_RamanShift_06.txt Node
Date: Wed Mar 07 10:28:22 IST 2018
User: aro
Spectrometer: QEPB0276
Trigger mode: 0
Integration Time (sec): 3.000000E1
Scans to average: 1
Electric dark correction enabled: true
Nonlinearity correction enabled: false
Boxcar width: 0
XAxis mode: Raman Shifts
Number of Pixels in Spectrum: 1044
>>>>>Begin Spectral Data<<<<<
160.701	7.9
166.742	17.9
172.777	50.9
178.805	151.9
184.826	399.9
190.841	823.9
196.849	1360.9
202.85	1771.9
208.845	1942.9
214.833	1947.9
220.815	1899.9
226.789	1921.9
232.758	1930.9
238.719	1932.9
244.674	1946.9
250.623	1951.9
256.565	1922.9
262.5	1903.9
268.429	1897.9
274.351	1915.9
280.267	1888.9
286.176	1898.9
292.079	1915.9
297.975	1902.9
303.865	1938.9
309.748	1914.9
315.625	1933.9
321.495	1930.9
327.359	1944.9
333.217	1922.9
339.068	1942.9
344.912	1957.9
350.751	1963.9
356.583	1963.9
362.408	1971.9
368.227	1968.9
374.04	1980.9
379.847	2029.9
385.647	2026.9
391.44	2035.9
397.228	2038.9
403.009	2059.9
408.784	2074.9
414.553	2079.9
420.315	2076.9
426.071	2081.9
431.821	2084.9
437.565	2093.9
443.302	2091.9
449.033	2082.9
454.758	2054.9
460.477	2033.9
466.189	2033.9
471.896	1990.9
477.596	1978.9
483.29	1987.9
488.978	1964.9
494.66	1949.9
500.335	1919.9
506.005	1816.9
511.668	1711.9
517.325	1652.9
522.977	1573.9
528.622	1497.9
534.261	1476.9
539.894	1445.9
545.521	1420.9
551.141	1419.9
556.756	1377.9
562.365	1375.9
567.968	1345.9
573.565	1365.9
579.155	1343.9
584.74	1347.9
590.319	1318.9
595.892	1343.9
601.459	1341.9
607.02	1331.9
612.575	1315.9
618.124	1295.9
623.667	1263.9
629.204	1271.9
634.735	1248.9
640.261	1224.9
645.781	1222.9
651.294	1230.9
656.802	1213.9
662.304	1194.9
667.8	1203.9
673.29	1199.9
678.775	1204.9
684.254	1195.9
689.726	1185.9
695.193	1184.9
700.655	1193.9
706.11	1163.9
711.56	1147.9
717.004	1143.9
722.442	1141.9
727.874	1132.9
733.301	1120.9
738.722	1129.9
744.137	1131.9
749.547	1127.9
754.951	1124.9
760.349	1128.9
765.741	1125.9
771.128	1151.9
776.509	1143.9
781.885	1190.9
787.254	1175.9
792.618	1202.9
797.977	1202.9
803.33	1172.9
808.677	1171.9
814.019	1175.9
819.355	1155.9
824.686	1136.9
830.011	1141.9
835.33	1120.9
840.644	1117.9
845.952	1118.9
851.255	1103.9
856.552	1110.9
861.844	1086.9
867.13	1080.9
872.41	1103.9
877.686	1125.9
882.955	1152.9
888.219	1149.9
893.478	1111.9
898.731	1049.9
903.979	1000.9
909.221	994.9
914.458	983.9
919.69	980.9
924.916	982.9
930.136	981.9
935.351	988.9
940.561	987.9
945.766	969.9
950.965	979.9
956.158	955.9
961.347	961.9
966.529	940.9
971.707	919.9
976.879	917.9
982.046	909.9
987.208	896.9
992.364	900.9
997.515	909.9
1002.66	919.9
1007.801	923.9
1012.936	942.9
1018.066	946.9
1023.19	937.9
1028.309	940.9
1033.423	949.9
1038.532	955.9
1043.636	958.9
1048.734	964.9
1053.827	952.9
1058.915	922.9
1063.998	915.9
1069.075	906.9
1074.147	899.9
1079.214	902.9
1084.276	928.9
1089.333	931.9
1094.385	945.9
1099.431	918.9
1104.472	915.9
1109.509	894.9
1114.54	868.9
1119.565	864.9
1124.586	862.9
1129.602	829.9
1134.613	836.9
1139.618	822.9
1144.619	839.9
1149.614	837.9
1154.604	826.9
1159.589	833.9
1164.57	839.9
1169.545	832.9
1174.515	835.9
1179.48	840.9
1184.44	832.9
1189.395	819.9
1194.345	812.9
1199.29	801.9
1204.23	815.9
1209.165	800.9
1214.095	816.9
1219.021	810.9
1223.941	823.9
1228.856	813.9
1233.766	822.9
1238.672	835.9
1243.572	829.9
1248.467	821.9
1253.358	814.9
1258.244	803.9
1263.124	777.9
1268	769.9
1272.871	763.9
1277.737	767.9
1282.599	754.9
1287.455	760.9
1292.306	753.9
1297.153	758.9
1301.995	755.9
1306.832	761.9
1311.664	767.9
1316.491	772.9
1321.314	758.9
1326.132	742.9
1330.945	732.9
1335.753	712.9
1340.556	707.9
1345.354	693.9
1350.148	674.9
1354.937	663.9
1359.722	653.9
1364.501	637.9
1369.276	641.9
1374.046	636.9
1378.811	620.9
1383.572	616.9
1388.327	622.9
1393.079	614.9
1397.825	623.9
1402.567	627.9
1407.304	640.9
1412.036	641.9
1416.764	635.9
1421.487	639.9
1426.205	636.9
1430.919	634.9
1435.628	644.9
1440.333	645.9
1445.032	644.9
1449.727	680.9
1454.418	690.9
1459.104	686.9
1463.785	675.9
1468.462	646.9
1473.134	626.9
1477.802	605.9
1482.465	584.9
1487.123	572.9
1491.777	566.9
1496.426	557.9
1501.071	533.9
1505.711	526.9
1510.347	523.9
1514.978	520.9
1519.604	511.9
1524.226	514.9
1528.844	515.9
1533.457	517.9
1538.065	511.9
1542.669	511.9
1547.269	514.9
1551.864	524.9
1556.454	537.9
1561.041	537.9
1565.622	543.9
1570.199	542.9
1574.772	533.9
1579.34	540.9
1583.904	540.9
1588.464	553.9
1593.019	562.9
1597.569	569.9
1602.115	559.9
1606.657	553.9
1611.195	542.9
1615.728	547.9
1620.256	546.9
1624.78	550.9
1629.3	541.9
1633.816	537.9
1638.327	547.9
1642.834	541.9
1647.336	532.9
1651.834	535.9
1656.328	542.9
1660.817	533.9
1665.302	518.9
1669.783	520.9
1674.259	498.9
1678.732	480.9
1683.199	466.9
1687.663	457.9
1692.122	432.9
1696.577	413.9
1701.028	400.9
1705.474	369.9
1709.917	386.9
1714.355	366.9
1718.788	351.9
1723.218	358.9
1727.643	372.9
1732.064	364.9
1736.481	365.9
1740.893	357.9
1745.301	356.9
1749.705	354.9
1754.105	339.9
1758.501	327.9
1762.893	324.9
1767.28	310.9
1771.663	310.9
1776.042	302.9
1780.417	302.9
1784.787	294.9
1789.154	290.9
1793.516	282.9
1797.874	273.9
1802.228	264.9
1806.578	266.9
1810.924	269.9
1815.266	265.9
1819.603	265.9
1823.937	281.9
1828.266	265.9
1832.591	279.9
1836.913	270.9
1841.23	277.9
1845.543	270.9
1849.852	282.9
1854.156	283.9
1858.457	280.9
1862.754	287.9
1867.047	277.9
1871.335	274.9
1875.62	273.9
1879.9	271.9
1884.177	260.9
1888.449	263.9
1892.718	262.9
1896.982	254.9
1901.243	249.9
1905.499	244.9
1909.752	236.9
1914	229.9
1918.245	236.9
1922.485	226.9
1926.722	221.9
1930.954	214.9
1935.183	224.9
1939.408	221.9
1943.628	211.9
1947.845	220.9
1952.058	213.9
1956.267	212.9
1960.472	220.9
1964.673	205.9
1968.87	207.9
1973.063	207.9
1977.252	210.9
1981.438	212.9
1985.619	203.9
1989.797	205.9
1993.971	212.9
1998.14	211.9
2002.306	215.9
2006.469	224.9
2010.627	216.9
2014.781	216.9
2018.932	211.9
2023.078	215.9
2027.221	210.9
2031.36	201.9
2035.495	197.9
2039.627	194.9
2043.754	195.9
2047.878	197.9
2051.998	197.9
2056.114	188.9
2060.226	185.9
2064.334	185.9
2068.439	180.9
2072.54	180.9
2076.637	189.9
2080.73	187.9
2084.82	179.9
2088.906	179.9
2092.988	184.9
2097.066	170.9
2101.14	175.9
2105.211	165.9
2109.278	167.9
2113.342	159.9
2117.401	174.9
2121.457	158.9
2125.509	169.9
2129.558	163.9
2133.602	159.9
2137.643	157.9
2141.681	153.9
2145.714	170.9
2149.744	163.9
2153.77	165.9
2157.793	168.9
2161.812	162.9
2165.827	168.9
2169.838	156.9
2173.846	157.9
2177.851	157.9
2181.851	155.9
2185.848	156.9
2189.841	154.9
2193.831	143.9
2197.817	153.9
2201.799	148.9
2205.778	147.9
2209.753	153.9
2213.725	149.9
2217.693	153.9
2221.657	154.9
2225.618	148.9
2229.575	139.9
2233.529	146.9
2237.479	149.9
2241.425	137.9
2245.368	139.9
2249.307	139.9
2253.243	135.9
2257.175	129.9
2261.104	124.9
2265.029	133.9
2268.95	133.9
2272.868	141.9
2276.783	125.9
2280.694	122.9
2284.601	114.9
2288.505	125.9
2292.405	128.9
2296.302	130.9
2300.195	119.9
2304.085	122.9
2307.971	112.9
2311.854	114.9
2315.734	101.9
2319.609	117.9
2323.482	109.9
2327.351	126.9
2331.216	136.9
2335.078	146.9
2338.937	140.9
2342.792	112.9
2346.643	113.9
2350.492	108.9
2354.336	115.9
2358.178	112.9
2362.015	116.9
2365.85	119.9
2369.681	120.9
2373.508	118.9
2377.333	118.9
2381.153	111.9
2384.971	104.9
2388.785	102.9
2392.595	112.9
2396.402	116.9
2400.206	115.9
2404.007	105.9
2407.804	116.9
2411.597	114.9
2415.388	106.9
2419.174	116.9
2422.958	108.9
2426.738	114.9
2430.515	103.9
2434.289	110.9
2438.059	105.9
2441.825	107.9
2445.589	105.9
2449.349	96.9
2453.106	100.9
2456.859	96.9
2460.61	102.9
2464.356	93.9
2468.1	93.9
2471.84	89.9
2475.577	88.9
2479.311	86.9
2483.041	93.9
2486.768	88.9
2490.492	83.9
2494.213	78.9
2497.93	90.9
2501.644	89.9
2505.355	87.9
2509.062	89.9
2512.766	86.9
2516.467	77.9
2520.165	81.9
2523.859	76.9
2527.551	69.9
2531.239	76.9
2534.923	65.9
2538.605	69.9
2542.283	68.9
2545.958	74.9
2549.63	78.9
2553.299	73.9
2556.964	58.9
2560.626	66.9
2564.285	67.9
2567.941	56.9
2571.594	59.9
2575.243	70.9
2578.89	60.9
2582.533	61.9
2586.173	65.9
2589.809	66.9
2593.443	61.9
2597.073	50.9
2600.701	63.9
2604.325	48.9
2607.946	49.9
2611.564	55.9
2615.178	62.9
2618.79	62.9
2622.398	58.9
2626.004	53.9
2629.606	47.9
2633.205	51.9
2636.801	49.9
2640.394	56.9
2643.983	54.9
2647.57	52.9
2651.153	48.9
2654.734	49.9
2658.311	48.9
2661.885	50.9
2665.456	50.9
2669.025	47.9
2672.589	46.9
2676.151	45.9
2679.71	43.9
2683.266	42.9
2686.819	52.9
2690.368	46.9
2693.915	41.9
2697.458	35.9
2700.999	46.9
2704.536	43.9
2708.071	48.9
2711.602	37.9
2715.13	37.9
2718.656	41.9
2722.178	38.9
2725.697	35.9
2729.214	33.9
2732.727	41.9
2736.237	36.9
2739.744	34.9
2743.249	31.9
2746.75	33.9
2750.248	26.9
2753.743	28.9
2757.236	24.9
2760.725	24.9
2764.211	21.9
2767.695	18.9
2771.175	22.9
2774.652	21.9
2778.127	25.9
2781.598	22.9
2785.067	23.9
2788.532	25.9
2791.995	27.9
2795.455	19.9
2798.911	21.9
2802.365	25.9
2805.816	25.9
2809.264	28.9
2812.709	19.9
2816.151	26.9
2819.59	38.9
2823.026	19.9
2826.46	22.9
2829.89	27.9
2833.318	22.9
2836.742	32.9
2840.164	26.9
2843.583	28.9
2846.999	32.9
2850.412	30.9
2853.822	27.9
2857.229	29.9
2860.634	31.9
2864.035	34.9
2867.434	39.9
2870.83	43.9
2874.223	44.9
2877.613	51.9
2881	55.9
2884.385	59.9
2887.766	59.9
2891.145	60.9
2894.521	62.9
2897.894	52.9
2901.264	64.9
2904.631	51.9
2907.996	62.9
2911.358	58.9
2914.717	59.9
2918.073	55.9
2921.426	60.9
2924.777	64.9
2928.124	72.9
2931.469	69.9
2934.811	88.9
2938.15	85.9
2941.487	90.9
2944.821	79.9
2948.152	85.9
2951.48	74.9
2954.805	69.9
2958.128	59.9
2961.447	67.9
2964.765	63.9
2968.079	63.9
2971.39	58.9
2974.699	59.9
2978.005	64.9
2981.308	61.9
2984.609	60.9
2987.907	51.9
2991.202	56.9
2994.494	55.9
2997.784	47.9
3001.07	51.9
3004.355	52.9
3007.636	49.9
3010.915	54.9
3014.191	49.9
3017.464	45.9
3020.734	50.9
3024.002	59.9
3027.267	51.9
3030.53	51.9
3033.789	58.9
3037.046	56.9
3040.301	52.9
3043.552	60.9
3046.801	57.9
3050.048	57.9
3053.291	62.9
3056.532	65.9
3059.771	64.9
3063.006	69.9
3066.239	74.9
3069.469	82.9
3072.697	74.9
3075.922	84.9
3079.144	82.9
3082.364	87.9
3085.581	83.9
3088.795	89.9
3092.007	94.9
3095.216	98.9
3098.423	95.9
3101.627	87.9
3104.828	101.9
3108.026	100.9
3111.222	101.9
3114.416	106.9
3117.607	107.9
3120.795	107.9
3123.98	118.9
3127.163	116.9
3130.344	113.9
3133.521	112.9
3136.696	125.9
3139.869	128.9
3143.039	133.9
3146.206	134.9
3149.371	130.9
3152.533	144.9
3155.693	142.9
3158.85	136.9
3162.005	138.9
3165.157	141.9
3168.306	135.9
3171.453	136.9
3174.597	143.9
3177.739	141.9
3180.878	148.9
3184.014	134.9
3187.149	139.9
3190.28	138.9
3193.409	137.9
3196.536	134.9
3199.659	141.9
3202.781	142.9
3205.9	135.9
3209.016	136.9
3212.13	140.9
3215.241	140.9
3218.35	131.9
3221.456	138.9
3224.56	120.9
3227.661	122.9
3230.76	125.9
3233.856	127.9
3236.95	119.9
3240.041	121.9
3243.13	118.9
3246.216	112.9
3249.3	110.9
3252.382	106.9
3255.46	110.9
3258.537	108.9
3261.611	104.9
3264.682	103.9
3267.751	102.9
3270.818	93.9
3273.882	95.9
3276.943	90.9
3280.002	106.9
3283.059	101.9
3286.113	99.9
3289.165	101.9
3292.214	93.9
3295.261	103.9
3298.306	96.9
3301.348	93.9
3304.387	90.9
3307.425	91.9
3310.459	81.9
3313.492	95.9
3316.521	95.9
3319.549	92.9
3322.574	82.9
3325.597	84.9
3328.617	84.9
3331.635	87.9
3334.65	95.9
3337.663	80.9
3340.674	91.9
3343.682	92.9
3346.688	84.9
3349.691	94.9
3352.692	92.9
3355.691	91.9
3358.687	87.9
3361.681	83.9
3364.673	91.9
3367.662	87.9
3370.649	91.9
3373.633	82.9
3376.615	78.9
3379.595	79.9
3382.572	72.9
3385.547	77.9
3388.52	72.9
3391.49	71.9
3394.458	67.9
3397.424	69.9
3400.387	68.9
3403.348	59.9
3406.307	56.9
3409.263	61.9
3412.217	56.9
3415.168	72.9
3418.118	58.9
3421.065	54.9
3424.009	52.9
3426.951	56.9
3429.891	51.9
3432.829	47.9
3435.764	49.9
3438.697	50.9
3441.628	36.9
3444.557	46.9
3447.483	47.9
3450.407	34.9
3453.328	33.9
3456.247	34.9
3459.164	29.9
3462.079	21.9
3464.991	27.9
3467.902	24.9
3470.809	25.9
3473.715	20.9
3476.618	14.9
3479.519	16.9
3482.418	11.9
3485.315	8.9
3488.209	5.9
3491.101	2.9
3493.99	12.9
3496.878	9.9
3499.763	1.9
3502.646	-0.1
3505.527	6.9
3508.405	-2.1
3511.281	-2.1
3514.155	-4.1
3517.027	-11.1
3519.897	-5.1
3522.764	-8.1
3525.629	-12.1
3528.492	-8.1
3531.352	-19.1
3534.211	-22.1
3537.067	-17.1
3539.921	-15.1
3542.773	-20.1
3545.622	-18.1
3548.469	-14.1
3551.315	-25.1
3554.157	-28.1
3556.998	-23.1
3559.837	-28.1
3562.673	-26.1
3565.507	-29.1
3568.339	-26.1
3571.169	-28.1
3573.996	-20.1
3576.822	-33.1
3579.645	-28.1
3582.466	-25.1
3585.285	-33.1
3588.101	-37.1
3590.916	-29.1
3593.728	-35.1
3596.538	-36.1
3599.346	-33.1
3602.152	-39.1
3604.956	-34.1
3607.757	-31.1
3610.556	-32.1
3613.354	-42.1
3616.149	-42.1
3618.942	-39.1
3621.732	-35.1
3624.521	-30.1
3627.307	-39.1
3630.092	-39.1
3632.874	-43.1
3635.654	-44.1
3638.432	-44.1
3641.208	-39.1
3643.982	-38.1
3646.753	-45.1
3649.523	-43.1
3652.29	-44.1
3655.055	-40.1
3657.818	-44.1
3660.579	-46.1
3663.338	-42.1
3666.095	-45.1
3668.849	-46.1
3671.602	-48.1
3674.352	-40.1
3677.101	-45.1
3679.847	-40.1
3682.591	-46.1
3685.333	-41.1
3688.073	-48.1
3690.811	-45.1
3693.547	-48.1
3696.281	-41.1
3699.013	-42.1
3701.742	-47.1
3704.47	-37.1
3707.195	-46.1
3709.919	-53.1
3712.64	-53.1
3715.359	-55.1
3718.076	-51.1
3720.792	-47.1
3723.505	-50.1
3726.216	-48.1
3728.925	-50.1
3731.632	-52.1
3734.336	-51.1
3737.039	-48.1
3739.74	-52.1
3742.439	-53.1
3745.136	-55.1
3747.83	-48.1
3750.523	-57.1
3753.213	-58.1
3755.902	-48.1
3758.589	-46.1
3761.273	-54.1
3763.956	-55.1
3766.636	-50.1
3769.315	-45.1
3771.991	-46.1
3774.665	-55.1
3777.338	-51.1
3780.008	-52.1
3782.677	-56.1
3785.343	-54.1
3788.007	-56.1
3790.67	-50.1
3793.33	-55.1
3795.989	-53.1
3798.645	-52.1
3801.299	-52.1
3803.952	-54.1
3806.602	-57.1
3809.251	-54.1
3811.897	-56.1
3814.542	-55.1
3817.184	-55.1
3819.825	-51.1
3822.463	-50.1
3825.1	-48.1
3827.735	-55.1
3830.367	-51.1
3832.998	-57.1
3835.627	-52.1
3838.253	-51.1
3840.878	-47.1
3843.501	-54.1
3846.122	-57.1
3848.741	-56.1
3851.358	-50.1
3853.973	-55.1
3856.586	-50.1
3859.197	-55.1
3861.806	-54.1
3864.414	-57.1
3867.019	-55.1
3869.622	-48.1
3872.224	-44.1
3874.823	-34.1
3877.421	-36.1
3880.016	-23.1
3882.61	-9.1
3885.202	-15.1
3887.792	-11.1
3890.38	-31.1
3892.966	-40.1
3895.55	-49.1
3898.132	-51.1
3900.713	-47.1
3903.291	-54.1
3905.868	-50.1
3908.442	-49.1
3911.015	-54.1
3913.586	-57.1
3916.155	-53.1
3918.722	-55.1
3921.287	-59.1
3923.85	-46.1
3926.411	-61.1
3928.971	-55.1
3931.528	-54.1
3934.084	-56.1
3936.638	-52.1
3939.19	-59.1
3941.74	-54.1
3944.288	-48.1
3946.834	-55.1
3949.378	-53.1
3951.921	-55.1
3954.462	-56.1
3957	-49.1
3959.537	-45.1
3962.072	-53.1
3964.606	-54.1
3967.137	-48.1
3969.667	-54.1
3972.194	-51.1
3974.72	-48.1
3977.244	-48.1
3979.766	-59.1
3982.286	-60.1
3984.805	-62.1
3987.321	-53.1
3989.836	-46.1
3992.349	-52.1
3994.86	-51.1
3997.369	-55.1
3999.877	-53.1
4002.382	-54.1
4004.886	-51.1
4007.388	-56.1
4009.888	-54.1
4012.386	-54.1
4014.883	-48.1
4017.377	-43.1
4019.87	-53.1
4022.361	-57.1
4024.85	-50.1
4027.338	-53.1
4029.823	-53.1
4032.307	-58.1
4034.789	-51.1
4037.269	-54.1
4039.747	-47.1
4042.224	-53.1
4044.699	-51.1
4047.172	-61.1
4049.643	-59.1
4052.112	-53.1
4054.58	-55.1
4057.046	-53.1
4059.51	-56.1
4061.972	-58.1
4064.432	-51.1
4066.891	-48.1
4069.348	-51.1
4071.803	-51.1
4074.256	-52.1
4076.708	-54.1
4079.158	-53.1
4081.606	-52.1
4084.052	-53.1
4086.497	-47.1
4088.939	-46.1
4091.38	-52.1
4093.819	-59.1
4096.257	-55.1
4098.693	-50.1
4101.127	-47.1
4103.559	-57.1
4105.989	10.9
4108.418	6.9
4110.845	1.9
4113.27	10.9
4115.694	8.9
4118.115	7.9
4120.535	-52.1
4122.954	-51.1
4125.37	-55.1
4127.785	-49.1
4130.198	-50.1
4132.609	-51.1
4135.019	-53.1
4137.427	-60.1
4139.833	-58.1
4142.237	-57.1
