Data from 2018-3-7_conc=4_n=10_RamanShift_04.txt Node
Date: Wed Mar 07 12:19:52 IST 2018
User: aro
Spectrometer: QEPB0276
Trigger mode: 0
Integration Time (sec): 3.000000E1
Scans to average: 1
Electric dark correction enabled: true
Nonlinearity correction enabled: false
Boxcar width: 0
XAxis mode: Raman Shifts
Number of Pixels in Spectrum: 1044
>>>>>Begin Spectral Data<<<<<
160.701	9.6
166.742	22.6
172.777	51.6
178.805	151.6
184.826	400.6
190.841	859.6
196.849	1444.6
202.85	1881.6
208.845	2071.6
214.833	2057.6
220.815	2045.6
226.789	2043.6
232.758	2041.6
238.719	2035.6
244.674	2035.6
250.623	2014.6
256.565	2007.6
262.5	1964.6
268.429	1942.6
274.351	1928.6
280.267	1930.6
286.176	1923.6
292.079	1901.6
297.975	1908.6
303.865	1906.6
309.748	1890.6
315.625	1910.6
321.495	1902.6
327.359	1902.6
333.217	1910.6
339.068	1900.6
344.912	1920.6
350.751	1899.6
356.583	1920.6
362.408	1906.6
368.227	1913.6
374.04	1913.6
379.847	1936.6
385.647	1944.6
391.44	1955.6
397.228	1953.6
403.009	1948.6
408.784	1953.6
414.553	1970.6
420.315	1985.6
426.071	1981.6
431.821	1982.6
437.565	1981.6
443.302	1965.6
449.033	1974.6
454.758	1978.6
460.477	1955.6
466.189	1943.6
471.896	1922.6
477.596	1915.6
483.29	1903.6
488.978	1894.6
494.66	1894.6
500.335	1873.6
506.005	1813.6
511.668	1774.6
517.325	1706.6
522.977	1653.6
528.622	1632.6
534.261	1608.6
539.894	1568.6
545.521	1531.6
551.141	1542.6
556.756	1529.6
562.365	1503.6
567.968	1508.6
573.565	1506.6
579.155	1480.6
584.74	1487.6
590.319	1478.6
595.892	1481.6
601.459	1465.6
607.02	1469.6
612.575	1453.6
618.124	1448.6
623.667	1424.6
629.204	1426.6
634.735	1388.6
640.261	1400.6
645.781	1385.6
651.294	1373.6
656.802	1371.6
662.304	1364.6
667.8	1392.6
673.29	1381.6
678.775	1356.6
684.254	1368.6
689.726	1356.6
695.193	1344.6
700.655	1331.6
706.11	1333.6
711.56	1319.6
717.004	1310.6
722.442	1320.6
727.874	1304.6
733.301	1302.6
738.722	1291.6
744.137	1290.6
749.547	1296.6
754.951	1288.6
760.349	1288.6
765.741	1297.6
771.128	1271.6
776.509	1293.6
781.885	1312.6
787.254	1311.6
792.618	1310.6
797.977	1301.6
803.33	1299.6
808.677	1299.6
814.019	1274.6
819.355	1283.6
824.686	1258.6
830.011	1261.6
835.33	1237.6
840.644	1253.6
845.952	1250.6
851.255	1236.6
856.552	1236.6
861.844	1224.6
867.13	1210.6
872.41	1221.6
877.686	1207.6
882.955	1215.6
888.219	1188.6
893.478	1185.6
898.731	1151.6
903.979	1146.6
909.221	1150.6
914.458	1141.6
919.69	1132.6
924.916	1149.6
930.136	1137.6
935.351	1139.6
940.561	1119.6
945.766	1151.6
950.965	1135.6
956.158	1121.6
961.347	1103.6
966.529	1105.6
971.707	1066.6
976.879	1065.6
982.046	1046.6
987.208	1061.6
992.364	1035.6
997.515	1066.6
1002.66	1040.6
1007.801	1075.6
1012.936	1076.6
1018.066	1094.6
1023.19	1092.6
1028.309	1094.6
1033.423	1085.6
1038.532	1075.6
1043.636	1070.6
1048.734	1053.6
1053.827	1046.6
1058.915	1022.6
1063.998	1018.6
1069.075	1010.6
1074.147	1011.6
1079.214	1017.6
1084.276	1020.6
1089.333	1030.6
1094.385	1051.6
1099.431	1038.6
1104.472	1032.6
1109.509	1025.6
1114.54	998.6
1119.565	1002.6
1124.586	979.6
1129.602	969.6
1134.613	975.6
1139.618	958.6
1144.619	964.6
1149.614	943.6
1154.604	962.6
1159.589	967.6
1164.57	960.6
1169.545	958.6
1174.515	964.6
1179.48	962.6
1184.44	957.6
1189.395	942.6
1194.345	924.6
1199.29	927.6
1204.23	932.6
1209.165	939.6
1214.095	939.6
1219.021	942.6
1223.941	966.6
1228.856	939.6
1233.766	954.6
1238.672	963.6
1243.572	951.6
1248.467	959.6
1253.358	947.6
1258.244	936.6
1263.124	909.6
1268	874.6
1272.871	869.6
1277.737	863.6
1282.599	868.6
1287.455	881.6
1292.306	877.6
1297.153	879.6
1301.995	869.6
1306.832	881.6
1311.664	880.6
1316.491	899.6
1321.314	882.6
1326.132	874.6
1330.945	863.6
1335.753	851.6
1340.556	826.6
1345.354	809.6
1350.148	797.6
1354.937	786.6
1359.722	757.6
1364.501	751.6
1369.276	736.6
1374.046	726.6
1378.811	715.6
1383.572	720.6
1388.327	711.6
1393.079	706.6
1397.825	718.6
1402.567	724.6
1407.304	722.6
1412.036	725.6
1416.764	724.6
1421.487	735.6
1426.205	721.6
1430.919	732.6
1435.628	739.6
1440.333	749.6
1445.032	751.6
1449.727	767.6
1454.418	756.6
1459.104	752.6
1463.785	748.6
1468.462	725.6
1473.134	710.6
1477.802	691.6
1482.465	672.6
1487.123	645.6
1491.777	638.6
1496.426	637.6
1501.071	622.6
1505.711	612.6
1510.347	614.6
1514.978	615.6
1519.604	603.6
1524.226	611.6
1528.844	603.6
1533.457	602.6
1538.065	595.6
1542.669	598.6
1547.269	593.6
1551.864	599.6
1556.454	609.6
1561.041	623.6
1565.622	628.6
1570.199	619.6
1574.772	624.6
1579.34	639.6
1583.904	645.6
1588.464	652.6
1593.019	646.6
1597.569	672.6
1602.115	661.6
1606.657	657.6
1611.195	647.6
1615.728	645.6
1620.256	649.6
1624.78	660.6
1629.3	659.6
1633.816	660.6
1638.327	656.6
1642.834	649.6
1647.336	645.6
1651.834	642.6
1656.328	646.6
1660.817	645.6
1665.302	644.6
1669.783	616.6
1674.259	604.6
1678.732	589.6
1683.199	566.6
1687.663	549.6
1692.122	516.6
1696.577	501.6
1701.028	474.6
1705.474	444.6
1709.917	450.6
1714.355	430.6
1718.788	435.6
1723.218	443.6
1727.643	435.6
1732.064	436.6
1736.481	438.6
1740.893	422.6
1745.301	414.6
1749.705	407.6
1754.105	397.6
1758.501	382.6
1762.893	384.6
1767.28	363.6
1771.663	370.6
1776.042	361.6
1780.417	353.6
1784.787	350.6
1789.154	349.6
1793.516	328.6
1797.874	334.6
1802.228	320.6
1806.578	324.6
1810.924	315.6
1815.266	317.6
1819.603	315.6
1823.937	323.6
1828.266	323.6
1832.591	326.6
1836.913	325.6
1841.23	337.6
1845.543	326.6
1849.852	327.6
1854.156	336.6
1858.457	334.6
1862.754	327.6
1867.047	332.6
1871.335	328.6
1875.62	331.6
1879.9	319.6
1884.177	315.6
1888.449	322.6
1892.718	323.6
1896.982	310.6
1901.243	306.6
1905.499	299.6
1909.752	289.6
1914	282.6
1918.245	276.6
1922.485	264.6
1926.722	277.6
1930.954	260.6
1935.183	266.6
1939.408	268.6
1943.628	263.6
1947.845	256.6
1952.058	252.6
1956.267	239.6
1960.472	247.6
1964.673	237.6
1968.87	252.6
1973.063	252.6
1977.252	246.6
1981.438	247.6
1985.619	246.6
1989.797	255.6
1993.971	264.6
1998.14	251.6
2002.306	259.6
2006.469	256.6
2010.627	267.6
2014.781	256.6
2018.932	254.6
2023.078	257.6
2027.221	261.6
2031.36	247.6
2035.495	242.6
2039.627	233.6
2043.754	242.6
2047.878	235.6
2051.998	233.6
2056.114	228.6
2060.226	226.6
2064.334	224.6
2068.439	217.6
2072.54	218.6
2076.637	222.6
2080.73	225.6
2084.82	215.6
2088.906	219.6
2092.988	223.6
2097.066	204.6
2101.14	209.6
2105.211	202.6
2109.278	195.6
2113.342	192.6
2117.401	195.6
2121.457	195.6
2125.509	192.6
2129.558	191.6
2133.602	191.6
2137.643	200.6
2141.681	190.6
2145.714	203.6
2149.744	201.6
2153.77	204.6
2157.793	203.6
2161.812	195.6
2165.827	206.6
2169.838	199.6
2173.846	190.6
2177.851	188.6
2181.851	187.6
2185.848	183.6
2189.841	177.6
2193.831	174.6
2197.817	184.6
2201.799	182.6
2205.778	175.6
2209.753	189.6
2213.725	178.6
2217.693	184.6
2221.657	183.6
2225.618	177.6
2229.575	172.6
2233.529	171.6
2237.479	173.6
2241.425	163.6
2245.368	173.6
2249.307	172.6
2253.243	159.6
2257.175	171.6
2261.104	153.6
2265.029	163.6
2268.95	158.6
2272.868	161.6
2276.783	149.6
2280.694	149.6
2284.601	148.6
2288.505	147.6
2292.405	149.6
2296.302	155.6
2300.195	146.6
2304.085	143.6
2307.971	133.6
2311.854	136.6
2315.734	130.6
2319.609	142.6
2323.482	133.6
2327.351	140.6
2331.216	148.6
2335.078	161.6
2338.937	147.6
2342.792	141.6
2346.643	141.6
2350.492	131.6
2354.336	136.6
2358.178	135.6
2362.015	139.6
2365.85	134.6
2369.681	142.6
2373.508	137.6
2377.333	144.6
2381.153	136.6
2384.971	137.6
2388.785	130.6
2392.595	133.6
2396.402	143.6
2400.206	144.6
2404.007	131.6
2407.804	137.6
2411.597	134.6
2415.388	126.6
2419.174	140.6
2422.958	128.6
2426.738	133.6
2430.515	132.6
2434.289	135.6
2438.059	135.6
2441.825	122.6
2445.589	127.6
2449.349	127.6
2453.106	121.6
2456.859	125.6
2460.61	125.6
2464.356	118.6
2468.1	118.6
2471.84	115.6
2475.577	108.6
2479.311	109.6
2483.041	113.6
2486.768	105.6
2490.492	108.6
2494.213	109.6
2497.93	104.6
2501.644	116.6
2505.355	96.6
2509.062	110.6
2512.766	105.6
2516.467	104.6
2520.165	101.6
2523.859	111.6
2527.551	94.6
2531.239	92.6
2534.923	91.6
2538.605	91.6
2542.283	85.6
2545.958	82.6
2549.63	86.6
2553.299	83.6
2556.964	82.6
2560.626	82.6
2564.285	80.6
2567.941	80.6
2571.594	80.6
2575.243	89.6
2578.89	89.6
2582.533	76.6
2586.173	74.6
2589.809	78.6
2593.443	80.6
2597.073	79.6
2600.701	79.6
2604.325	64.6
2607.946	69.6
2611.564	69.6
2615.178	72.6
2618.79	70.6
2622.398	73.6
2626.004	69.6
2629.606	60.6
2633.205	65.6
2636.801	68.6
2640.394	73.6
2643.983	66.6
2647.57	68.6
2651.153	66.6
2654.734	72.6
2658.311	65.6
2661.885	70.6
2665.456	65.6
2669.025	62.6
2672.589	65.6
2676.151	62.6
2679.71	57.6
2683.266	57.6
2686.819	58.6
2690.368	63.6
2693.915	57.6
2697.458	54.6
2700.999	54.6
2704.536	59.6
2708.071	61.6
2711.602	52.6
2715.13	37.6
2718.656	46.6
2722.178	46.6
2725.697	46.6
2729.214	44.6
2732.727	48.6
2736.237	47.6
2739.744	40.6
2743.249	37.6
2746.75	36.6
2750.248	35.6
2753.743	32.6
2757.236	30.6
2760.725	30.6
2764.211	26.6
2767.695	25.6
2771.175	30.6
2774.652	29.6
2778.127	33.6
2781.598	28.6
2785.067	30.6
2788.532	30.6
2791.995	39.6
2795.455	30.6
2798.911	29.6
2802.365	36.6
2805.816	36.6
2809.264	37.6
2812.709	19.6
2816.151	28.6
2819.59	45.6
2823.026	27.6
2826.46	32.6
2829.89	31.6
2833.318	34.6
2836.742	39.6
2840.164	29.6
2843.583	37.6
2846.999	41.6
2850.412	35.6
2853.822	39.6
2857.229	42.6
2860.634	30.6
2864.035	43.6
2867.434	40.6
2870.83	43.6
2874.223	41.6
2877.613	72.6
2881	111.6
2884.385	53.6
2887.766	45.6
2891.145	45.6
2894.521	45.6
2897.894	46.6
2901.264	45.6
2904.631	39.6
2907.996	54.6
2911.358	57.6
2914.717	50.6
2918.073	54.6
2921.426	49.6
2924.777	49.6
2928.124	48.6
2931.469	61.6
2934.811	67.6
2938.15	63.6
2941.487	75.6
2944.821	62.6
2948.152	65.6
2951.48	60.6
2954.805	62.6
2958.128	54.6
2961.447	61.6
2964.765	54.6
2968.079	58.6
2971.39	58.6
2974.699	58.6
2978.005	65.6
2981.308	57.6
2984.609	52.6
2987.907	61.6
2991.202	55.6
2994.494	58.6
2997.784	50.6
3001.07	59.6
3004.355	59.6
3007.636	61.6
3010.915	62.6
3014.191	59.6
3017.464	65.6
3020.734	68.6
3024.002	67.6
3027.267	68.6
3030.53	68.6
3033.789	66.6
3037.046	71.6
3040.301	73.6
3043.552	84.6
3046.801	76.6
3050.048	83.6
3053.291	88.6
3056.532	95.6
3059.771	89.6
3063.006	94.6
3066.239	98.6
3069.469	107.6
3072.697	106.6
3075.922	114.6
3079.144	111.6
3082.364	116.6
3085.581	119.6
3088.795	121.6
3092.007	125.6
3095.216	128.6
3098.423	126.6
3101.627	120.6
3104.828	138.6
3108.026	140.6
3111.222	136.6
3114.416	142.6
3117.607	148.6
3120.795	141.6
3123.98	156.6
3127.163	166.6
3130.344	161.6
3133.521	165.6
3136.696	171.6
3139.869	173.6
3143.039	159.6
3146.206	175.6
3149.371	175.6
3152.533	177.6
3155.693	185.6
3158.85	182.6
3162.005	179.6
3165.157	186.6
3168.306	183.6
3171.453	197.6
3174.597	191.6
3177.739	186.6
3180.878	186.6
3184.014	184.6
3187.149	194.6
3190.28	186.6
3193.409	184.6
3196.536	186.6
3199.659	188.6
3202.781	187.6
3205.9	185.6
3209.016	178.6
3212.13	192.6
3215.241	190.6
3218.35	188.6
3221.456	192.6
3224.56	178.6
3227.661	168.6
3230.76	177.6
3233.856	177.6
3236.95	173.6
3240.041	165.6
3243.13	166.6
3246.216	162.6
3249.3	150.6
3252.382	159.6
3255.46	159.6
3258.537	159.6
3261.611	151.6
3264.682	150.6
3267.751	155.6
3270.818	148.6
3273.882	149.6
3276.943	141.6
3280.002	137.6
3283.059	144.6
3286.113	144.6
3289.165	135.6
3292.214	135.6
3295.261	138.6
3298.306	137.6
3301.348	139.6
3304.387	133.6
3307.425	133.6
3310.459	124.6
3313.492	129.6
3316.521	131.6
3319.549	136.6
3322.574	134.6
3325.597	135.6
3328.617	130.6
3331.635	129.6
3334.65	137.6
3337.663	124.6
3340.674	128.6
3343.682	135.6
3346.688	125.6
3349.691	127.6
3352.692	131.6
3355.691	131.6
3358.687	129.6
3361.681	120.6
3364.673	124.6
3367.662	126.6
3370.649	126.6
3373.633	113.6
3376.615	117.6
3379.595	115.6
3382.572	110.6
3385.547	118.6
3388.52	108.6
3391.49	104.6
3394.458	102.6
3397.424	107.6
3400.387	103.6
3403.348	93.6
3406.307	88.6
3409.263	96.6
3412.217	95.6
3415.168	99.6
3418.118	94.6
3421.065	82.6
3424.009	83.6
3426.951	86.6
3429.891	91.6
3432.829	74.6
3435.764	89.6
3438.697	81.6
3441.628	69.6
3444.557	72.6
3447.483	73.6
3450.407	67.6
3453.328	63.6
3456.247	61.6
3459.164	62.6
3462.079	48.6
3464.991	48.6
3467.902	43.6
3470.809	39.6
3473.715	40.6
3476.618	40.6
3479.519	32.6
3482.418	35.6
3485.315	33.6
3488.209	20.6
3491.101	24.6
3493.99	28.6
3496.878	21.6
3499.763	14.6
3502.646	15.6
3505.527	15.6
3508.405	17.6
3511.281	12.6
3514.155	7.6
3517.027	-2.4
3519.897	7.6
3522.764	-0.4
3525.629	2.6
3528.492	-5.4
3531.352	-10.4
3534.211	-4.4
3537.067	-9.4
3539.921	-6.4
3542.773	-10.4
3545.622	-12.4
3548.469	-5.4
3551.315	-7.4
3554.157	-13.4
3556.998	-15.4
3559.837	-15.4
3562.673	-14.4
3565.507	-18.4
3568.339	-17.4
3571.169	-25.4
3573.996	-20.4
3576.822	-28.4
3579.645	-27.4
3582.466	-28.4
3585.285	-25.4
3588.101	-27.4
3590.916	-25.4
3593.728	-30.4
3596.538	-29.4
3599.346	-32.4
3602.152	-27.4
3604.956	-26.4
3607.757	-23.4
3610.556	-30.4
3613.354	-41.4
3616.149	-41.4
3618.942	-36.4
3621.732	-37.4
3624.521	-33.4
3627.307	-30.4
3630.092	-38.4
3632.874	-38.4
3635.654	-42.4
3638.432	-36.4
3641.208	-34.4
3643.982	-35.4
3646.753	-40.4
3649.523	-36.4
3652.29	-38.4
3655.055	-35.4
3657.818	-44.4
3660.579	-38.4
3663.338	-36.4
3666.095	-44.4
3668.849	-41.4
3671.602	-49.4
3674.352	-43.4
3677.101	-44.4
3679.847	-47.4
3682.591	-50.4
3685.333	-42.4
3688.073	-49.4
3690.811	-46.4
3693.547	-45.4
3696.281	-43.4
3699.013	-45.4
3701.742	-48.4
3704.47	-41.4
3707.195	-40.4
3709.919	-43.4
3712.64	-45.4
3715.359	-45.4
3718.076	-47.4
3720.792	-51.4
3723.505	-55.4
3726.216	-49.4
3728.925	-55.4
3731.632	-50.4
3734.336	-54.4
3737.039	-45.4
3739.74	-51.4
3742.439	-55.4
3745.136	-50.4
3747.83	-49.4
3750.523	-53.4
3753.213	-54.4
3755.902	-47.4
3758.589	-49.4
3761.273	-47.4
3763.956	-49.4
3766.636	-46.4
3769.315	-46.4
3771.991	-50.4
3774.665	-51.4
3777.338	-52.4
3780.008	-51.4
3782.677	-55.4
3785.343	-50.4
3788.007	-50.4
3790.67	-48.4
3793.33	-51.4
3795.989	-52.4
3798.645	-51.4
3801.299	-49.4
3803.952	-48.4
3806.602	-51.4
3809.251	-57.4
3811.897	-56.4
3814.542	-59.4
3817.184	-57.4
3819.825	-52.4
3822.463	-51.4
3825.1	-52.4
3827.735	-61.4
3830.367	-54.4
3832.998	-54.4
3835.627	-59.4
3838.253	-46.4
3840.878	-43.4
3843.501	-43.4
3846.122	-57.4
3848.741	-54.4
3851.358	-54.4
3853.973	-49.4
3856.586	-48.4
3859.197	-49.4
3861.806	-57.4
3864.414	-57.4
3867.019	-53.4
3869.622	-49.4
3872.224	-45.4
3874.823	-34.4
3877.421	-36.4
3880.016	-17.4
3882.61	-8.4
3885.202	-7.4
3887.792	-13.4
3890.38	-26.4
3892.966	-37.4
3895.55	-46.4
3898.132	-52.4
3900.713	-53.4
3903.291	-54.4
3905.868	-51.4
3908.442	-50.4
3911.015	-53.4
3913.586	-57.4
3916.155	-58.4
3918.722	-53.4
3921.287	-56.4
3923.85	-53.4
3926.411	-60.4
3928.971	-60.4
3931.528	-57.4
3934.084	-52.4
3936.638	-50.4
3939.19	-59.4
3941.74	-49.4
3944.288	-52.4
3946.834	-52.4
3949.378	-54.4
3951.921	-55.4
3954.462	-52.4
3957	-52.4
3959.537	-52.4
3962.072	-49.4
3964.606	-58.4
3967.137	-57.4
3969.667	-56.4
3972.194	-48.4
3974.72	-49.4
3977.244	-48.4
3979.766	-57.4
3982.286	-54.4
3984.805	-60.4
3987.321	-50.4
3989.836	-50.4
3992.349	-51.4
3994.86	-55.4
3997.369	-52.4
3999.877	-51.4
4002.382	-54.4
4004.886	-50.4
4007.388	-55.4
4009.888	-49.4
4012.386	-52.4
4014.883	-51.4
4017.377	-50.4
4019.87	-54.4
4022.361	-56.4
4024.85	-49.4
4027.338	-55.4
4029.823	-57.4
4032.307	-55.4
4034.789	-51.4
4037.269	-56.4
4039.747	-52.4
4042.224	-52.4
4044.699	-56.4
4047.172	-56.4
4049.643	-56.4
4052.112	-49.4
4054.58	-54.4
4057.046	-50.4
4059.51	-56.4
4061.972	-59.4
4064.432	-54.4
4066.891	-52.4
4069.348	-56.4
4071.803	-48.4
4074.256	-53.4
4076.708	-57.4
4079.158	-59.4
4081.606	-53.4
4084.052	-50.4
4086.497	-46.4
4088.939	-52.4
4091.38	-58.4
4093.819	-54.4
4096.257	-53.4
4098.693	-56.4
4101.127	-51.4
4103.559	-56.4
4105.989	9.6
4108.418	7.6
4110.845	5.6
4113.27	5.6
4115.694	13.6
4118.115	11.6
4120.535	-52.4
4122.954	-49.4
4125.37	-56.4
4127.785	-53.4
4130.198	-50.4
4132.609	-51.4
4135.019	-59.4
4137.427	-59.4
4139.833	-58.4
4142.237	-58.4
