Data from 2018-3-7_conc=5_n=8_RamanShift_03.txt Node
Date: Wed Mar 07 12:47:52 IST 2018
User: aro
Spectrometer: QEPB0276
Trigger mode: 0
Integration Time (sec): 3.000000E1
Scans to average: 1
Electric dark correction enabled: true
Nonlinearity correction enabled: false
Boxcar width: 0
XAxis mode: Raman Shifts
Number of Pixels in Spectrum: 1044
>>>>>Begin Spectral Data<<<<<
160.701	7.8
166.742	15.8
172.777	60.8
178.805	206.8
184.826	543.8
190.841	1196.8
196.849	1998.8
202.85	2651.8
208.845	2901.8
214.833	2918.8
220.815	2859.8
226.789	2847.8
232.758	2829.8
238.719	2833.8
244.674	2820.8
250.623	2785.8
256.565	2748.8
262.5	2695.8
268.429	2662.8
274.351	2661.8
280.267	2613.8
286.176	2595.8
292.079	2603.8
297.975	2587.8
303.865	2559.8
309.748	2538.8
315.625	2529.8
321.495	2539.8
327.359	2535.8
333.217	2540.8
339.068	2543.8
344.912	2560.8
350.751	2528.8
356.583	2538.8
362.408	2526.8
368.227	2537.8
374.04	2546.8
379.847	2561.8
385.647	2568.8
391.44	2567.8
397.228	2586.8
403.009	2596.8
408.784	2610.8
414.553	2621.8
420.315	2628.8
426.071	2629.8
431.821	2613.8
437.565	2596.8
443.302	2607.8
449.033	2598.8
454.758	2611.8
460.477	2568.8
466.189	2571.8
471.896	2553.8
477.596	2542.8
483.29	2527.8
488.978	2530.8
494.66	2533.8
500.335	2470.8
506.005	2460.8
511.668	2372.8
517.325	2324.8
522.977	2293.8
528.622	2253.8
534.261	2207.8
539.894	2199.8
545.521	2188.8
551.141	2181.8
556.756	2156.8
562.365	2122.8
567.968	2154.8
573.565	2134.8
579.155	2120.8
584.74	2116.8
590.319	2102.8
595.892	2089.8
601.459	2081.8
607.02	2075.8
612.575	2062.8
618.124	2056.8
623.667	2024.8
629.204	2016.8
634.735	2000.8
640.261	1987.8
645.781	1988.8
651.294	1981.8
656.802	1969.8
662.304	1947.8
667.8	1962.8
673.29	1950.8
678.775	1950.8
684.254	1962.8
689.726	1934.8
695.193	1933.8
700.655	1917.8
706.11	1898.8
711.56	1886.8
717.004	1889.8
722.442	1876.8
727.874	1846.8
733.301	1852.8
738.722	1837.8
744.137	1843.8
749.547	1856.8
754.951	1829.8
760.349	1840.8
765.741	1849.8
771.128	1849.8
776.509	1868.8
781.885	1863.8
787.254	1861.8
792.618	1842.8
797.977	1835.8
803.33	1827.8
808.677	1807.8
814.019	1812.8
819.355	1775.8
824.686	1788.8
830.011	1800.8
835.33	1783.8
840.644	1777.8
845.952	1780.8
851.255	1771.8
856.552	1774.8
861.844	1792.8
867.13	1755.8
872.41	1757.8
877.686	1737.8
882.955	1719.8
888.219	1712.8
893.478	1684.8
898.731	1676.8
903.979	1652.8
909.221	1635.8
914.458	1616.8
919.69	1630.8
924.916	1637.8
930.136	1628.8
935.351	1637.8
940.561	1630.8
945.766	1648.8
950.965	1646.8
956.158	1627.8
961.347	1603.8
966.529	1583.8
971.707	1552.8
976.879	1540.8
982.046	1541.8
987.208	1504.8
992.364	1517.8
997.515	1535.8
1002.66	1537.8
1007.801	1558.8
1012.936	1560.8
1018.066	1561.8
1023.19	1561.8
1028.309	1554.8
1033.423	1553.8
1038.532	1540.8
1043.636	1526.8
1048.734	1505.8
1053.827	1499.8
1058.915	1482.8
1063.998	1466.8
1069.075	1463.8
1074.147	1450.8
1079.214	1472.8
1084.276	1474.8
1089.333	1485.8
1094.385	1478.8
1099.431	1474.8
1104.472	1488.8
1109.509	1458.8
1114.54	1450.8
1119.565	1452.8
1124.586	1403.8
1129.602	1403.8
1134.613	1378.8
1139.618	1375.8
1144.619	1378.8
1149.614	1393.8
1154.604	1384.8
1159.589	1411.8
1164.57	1405.8
1169.545	1392.8
1174.515	1407.8
1179.48	1376.8
1184.44	1358.8
1189.395	1364.8
1194.345	1358.8
1199.29	1334.8
1204.23	1348.8
1209.165	1345.8
1214.095	1337.8
1219.021	1366.8
1223.941	1370.8
1228.856	1374.8
1233.766	1373.8
1238.672	1364.8
1243.572	1390.8
1248.467	1365.8
1253.358	1349.8
1258.244	1355.8
1263.124	1311.8
1268	1290.8
1272.871	1263.8
1277.737	1263.8
1282.599	1286.8
1287.455	1261.8
1292.306	1255.8
1297.153	1263.8
1301.995	1283.8
1306.832	1289.8
1311.664	1296.8
1316.491	1292.8
1321.314	1282.8
1326.132	1293.8
1330.945	1265.8
1335.753	1243.8
1340.556	1216.8
1345.354	1187.8
1350.148	1184.8
1354.937	1155.8
1359.722	1123.8
1364.501	1088.8
1369.276	1067.8
1374.046	1031.8
1378.811	1038.8
1383.572	1019.8
1388.327	1014.8
1393.079	1020.8
1397.825	1043.8
1402.567	1039.8
1407.304	1059.8
1412.036	1047.8
1416.764	1057.8
1421.487	1050.8
1426.205	1059.8
1430.919	1068.8
1435.628	1071.8
1440.333	1085.8
1445.032	1089.8
1449.727	1120.8
1454.418	1108.8
1459.104	1095.8
1463.785	1067.8
1468.462	1061.8
1473.134	1030.8
1477.802	1008.8
1482.465	986.8
1487.123	963.8
1491.777	923.8
1496.426	926.8
1501.071	907.8
1505.711	893.8
1510.347	906.8
1514.978	885.8
1519.604	880.8
1524.226	883.8
1528.844	862.8
1533.457	856.8
1538.065	846.8
1542.669	860.8
1547.269	855.8
1551.864	862.8
1556.454	883.8
1561.041	890.8
1565.622	902.8
1570.199	907.8
1574.772	911.8
1579.34	927.8
1583.904	942.8
1588.464	955.8
1593.019	954.8
1597.569	959.8
1602.115	969.8
1606.657	961.8
1611.195	966.8
1615.728	956.8
1620.256	950.8
1624.78	947.8
1629.3	956.8
1633.816	967.8
1638.327	962.8
1642.834	954.8
1647.336	970.8
1651.834	960.8
1656.328	967.8
1660.817	931.8
1665.302	946.8
1669.783	922.8
1674.259	894.8
1678.732	864.8
1683.199	842.8
1687.663	823.8
1692.122	759.8
1696.577	731.8
1701.028	679.8
1705.474	643.8
1709.917	624.8
1714.355	617.8
1718.788	612.8
1723.218	617.8
1727.643	612.8
1732.064	622.8
1736.481	612.8
1740.893	598.8
1745.301	594.8
1749.705	581.8
1754.105	571.8
1758.501	556.8
1762.893	557.8
1767.28	538.8
1771.663	543.8
1776.042	523.8
1780.417	516.8
1784.787	512.8
1789.154	500.8
1793.516	479.8
1797.874	465.8
1802.228	467.8
1806.578	449.8
1810.924	443.8
1815.266	442.8
1819.603	440.8
1823.937	460.8
1828.266	456.8
1832.591	462.8
1836.913	463.8
1841.23	472.8
1845.543	468.8
1849.852	477.8
1854.156	474.8
1858.457	474.8
1862.754	484.8
1867.047	484.8
1871.335	468.8
1875.62	481.8
1879.9	475.8
1884.177	465.8
1888.449	460.8
1892.718	452.8
1896.982	443.8
1901.243	432.8
1905.499	427.8
1909.752	415.8
1914	403.8
1918.245	403.8
1922.485	400.8
1926.722	381.8
1930.954	370.8
1935.183	372.8
1939.408	371.8
1943.628	373.8
1947.845	357.8
1952.058	357.8
1956.267	356.8
1960.472	350.8
1964.673	341.8
1968.87	343.8
1973.063	344.8
1977.252	348.8
1981.438	356.8
1985.619	349.8
1989.797	354.8
1993.971	363.8
1998.14	357.8
2002.306	374.8
2006.469	369.8
2010.627	362.8
2014.781	372.8
2018.932	368.8
2023.078	370.8
2027.221	367.8
2031.36	364.8
2035.495	349.8
2039.627	339.8
2043.754	344.8
2047.878	346.8
2051.998	338.8
2056.114	337.8
2060.226	334.8
2064.334	338.8
2068.439	325.8
2072.54	327.8
2076.637	324.8
2080.73	323.8
2084.82	319.8
2088.906	317.8
2092.988	310.8
2097.066	301.8
2101.14	309.8
2105.211	297.8
2109.278	294.8
2113.342	276.8
2117.401	282.8
2121.457	284.8
2125.509	276.8
2129.558	275.8
2133.602	279.8
2137.643	285.8
2141.681	281.8
2145.714	287.8
2149.744	291.8
2153.77	285.8
2157.793	292.8
2161.812	294.8
2165.827	285.8
2169.838	280.8
2173.846	279.8
2177.851	277.8
2181.851	274.8
2185.848	276.8
2189.841	265.8
2193.831	266.8
2197.817	266.8
2201.799	260.8
2205.778	266.8
2209.753	267.8
2213.725	266.8
2217.693	267.8
2221.657	251.8
2225.618	261.8
2229.575	253.8
2233.529	255.8
2237.479	258.8
2241.425	247.8
2245.368	244.8
2249.307	250.8
2253.243	242.8
2257.175	236.8
2261.104	230.8
2265.029	231.8
2268.95	237.8
2272.868	231.8
2276.783	232.8
2280.694	222.8
2284.601	210.8
2288.505	223.8
2292.405	215.8
2296.302	217.8
2300.195	208.8
2304.085	204.8
2307.971	200.8
2311.854	206.8
2315.734	204.8
2319.609	207.8
2323.482	212.8
2327.351	207.8
2331.216	208.8
2335.078	215.8
2338.937	207.8
2342.792	200.8
2346.643	205.8
2350.492	199.8
2354.336	199.8
2358.178	192.8
2362.015	208.8
2365.85	199.8
2369.681	213.8
2373.508	212.8
2377.333	205.8
2381.153	206.8
2384.971	203.8
2388.785	204.8
2392.595	202.8
2396.402	203.8
2400.206	201.8
2404.007	204.8
2407.804	200.8
2411.597	195.8
2415.388	201.8
2419.174	205.8
2422.958	194.8
2426.738	194.8
2430.515	197.8
2434.289	191.8
2438.059	190.8
2441.825	190.8
2445.589	192.8
2449.349	181.8
2453.106	186.8
2456.859	175.8
2460.61	174.8
2464.356	178.8
2468.1	175.8
2471.84	179.8
2475.577	167.8
2479.311	170.8
2483.041	172.8
2486.768	165.8
2490.492	172.8
2494.213	163.8
2497.93	163.8
2501.644	164.8
2505.355	159.8
2509.062	162.8
2512.766	149.8
2516.467	149.8
2520.165	152.8
2523.859	159.8
2527.551	144.8
2531.239	133.8
2534.923	145.8
2538.605	135.8
2542.283	137.8
2545.958	135.8
2549.63	137.8
2553.299	132.8
2556.964	126.8
2560.626	124.8
2564.285	124.8
2567.941	123.8
2571.594	125.8
2575.243	124.8
2578.89	118.8
2582.533	113.8
2586.173	114.8
2589.809	118.8
2593.443	116.8
2597.073	119.8
2600.701	117.8
2604.325	109.8
2607.946	93.8
2611.564	113.8
2615.178	109.8
2618.79	107.8
2622.398	108.8
2626.004	106.8
2629.606	99.8
2633.205	106.8
2636.801	101.8
2640.394	109.8
2643.983	100.8
2647.57	107.8
2651.153	102.8
2654.734	100.8
2658.311	103.8
2661.885	97.8
2665.456	100.8
2669.025	99.8
2672.589	87.8
2676.151	93.8
2679.71	91.8
2683.266	86.8
2686.819	95.8
2690.368	97.8
2693.915	89.8
2697.458	80.8
2700.999	84.8
2704.536	86.8
2708.071	80.8
2711.602	75.8
2715.13	73.8
2718.656	80.8
2722.178	80.8
2725.697	73.8
2729.214	79.8
2732.727	77.8
2736.237	70.8
2739.744	66.8
2743.249	74.8
2746.75	64.8
2750.248	61.8
2753.743	60.8
2757.236	51.8
2760.725	57.8
2764.211	49.8
2767.695	44.8
2771.175	47.8
2774.652	43.8
2778.127	47.8
2781.598	44.8
2785.067	45.8
2788.532	52.8
2791.995	48.8
2795.455	49.8
2798.911	56.8
2802.365	56.8
2805.816	53.8
2809.264	53.8
2812.709	47.8
2816.151	60.8
2819.59	66.8
2823.026	55.8
2826.46	57.8
2829.89	54.8
2833.318	56.8
2836.742	62.8
2840.164	47.8
2843.583	51.8
2846.999	56.8
2850.412	51.8
2853.822	55.8
2857.229	63.8
2860.634	58.8
2864.035	59.8
2867.434	65.8
2870.83	71.8
2874.223	75.8
2877.613	68.8
2881	67.8
2884.385	78.8
2887.766	74.8
2891.145	75.8
2894.521	74.8
2897.894	75.8
2901.264	68.8
2904.631	71.8
2907.996	74.8
2911.358	81.8
2914.717	72.8
2918.073	81.8
2921.426	85.8
2924.777	90.8
2928.124	95.8
2931.469	92.8
2934.811	105.8
2938.15	102.8
2941.487	111.8
2944.821	104.8
2948.152	103.8
2951.48	100.8
2954.805	108.8
2958.128	99.8
2961.447	102.8
2964.765	92.8
2968.079	93.8
2971.39	94.8
2974.699	97.8
2978.005	102.8
2981.308	86.8
2984.609	91.8
2987.907	92.8
2991.202	96.8
2994.494	85.8
2997.784	90.8
3001.07	96.8
3004.355	95.8
3007.636	102.8
3010.915	101.8
3014.191	98.8
3017.464	107.8
3020.734	100.8
3024.002	112.8
3027.267	109.8
3030.53	112.8
3033.789	111.8
3037.046	119.8
3040.301	117.8
3043.552	131.8
3046.801	127.8
3050.048	136.8
3053.291	136.8
3056.532	142.8
3059.771	149.8
3063.006	161.8
3066.239	160.8
3069.469	170.8
3072.697	170.8
3075.922	180.8
3079.144	180.8
3082.364	189.8
3085.581	188.8
3088.795	199.8
3092.007	198.8
3095.216	212.8
3098.423	206.8
3101.627	200.8
3104.828	212.8
3108.026	221.8
3111.222	224.8
3114.416	231.8
3117.607	233.8
3120.795	237.8
3123.98	243.8
3127.163	256.8
3130.344	251.8
3133.521	261.8
3136.696	263.8
3139.869	276.8
3143.039	274.8
3146.206	283.8
3149.371	278.8
3152.533	288.8
3155.693	291.8
3158.85	296.8
3162.005	288.8
3165.157	291.8
3168.306	288.8
3171.453	294.8
3174.597	294.8
3177.739	296.8
3180.878	309.8
3184.014	300.8
3187.149	306.8
3190.28	296.8
3193.409	310.8
3196.536	291.8
3199.659	304.8
3202.781	309.8
3205.9	291.8
3209.016	317.8
3212.13	303.8
3215.241	293.8
3218.35	303.8
3221.456	298.8
3224.56	301.8
3227.661	285.8
3230.76	289.8
3233.856	285.8
3236.95	278.8
3240.041	260.8
3243.13	273.8
3246.216	265.8
3249.3	260.8
3252.382	259.8
3255.46	248.8
3258.537	250.8
3261.611	242.8
3264.682	247.8
3267.751	238.8
3270.818	230.8
3273.882	237.8
3276.943	227.8
3280.002	235.8
3283.059	223.8
3286.113	222.8
3289.165	223.8
3292.214	221.8
3295.261	223.8
3298.306	225.8
3301.348	227.8
3304.387	227.8
3307.425	219.8
3310.459	211.8
3313.492	210.8
3316.521	214.8
3319.549	219.8
3322.574	207.8
3325.597	217.8
3328.617	211.8
3331.635	209.8
3334.65	217.8
3337.663	199.8
3340.674	202.8
3343.682	215.8
3346.688	209.8
3349.691	216.8
3352.692	210.8
3355.691	217.8
3358.687	202.8
3361.681	212.8
3364.673	206.8
3367.662	205.8
3370.649	195.8
3373.633	185.8
3376.615	187.8
3379.595	194.8
3382.572	179.8
3385.547	181.8
3388.52	179.8
3391.49	168.8
3394.458	168.8
3397.424	174.8
3400.387	170.8
3403.348	163.8
3406.307	155.8
3409.263	157.8
3412.217	159.8
3415.168	160.8
3418.118	149.8
3421.065	151.8
3424.009	147.8
3426.951	144.8
3429.891	140.8
3432.829	145.8
3435.764	142.8
3438.697	137.8
3441.628	123.8
3444.557	127.8
3447.483	116.8
3450.407	100.8
3453.328	110.8
3456.247	102.8
3459.164	103.8
3462.079	88.8
3464.991	85.8
3467.902	83.8
3470.809	80.8
3473.715	81.8
3476.618	68.8
3479.519	59.8
3482.418	57.8
3485.315	66.8
3488.209	46.8
3491.101	49.8
3493.99	52.8
3496.878	45.8
3499.763	41.8
3502.646	42.8
3505.527	42.8
3508.405	32.8
3511.281	33.8
3514.155	25.8
3517.027	19.8
3519.897	23.8
3522.764	22.8
3525.629	18.8
3528.492	13.8
3531.352	8.8
3534.211	8.8
3537.067	0.8
3539.921	-3.2
3542.773	-11.2
3545.622	-4.2
3548.469	-7.2
3551.315	-6.2
3554.157	-14.2
3556.998	-16.2
3559.837	-15.2
3562.673	-14.2
3565.507	-14.2
3568.339	-11.2
3571.169	-19.2
3573.996	-17.2
3576.822	-22.2
3579.645	-21.2
3582.466	-22.2
3585.285	-23.2
3588.101	-27.2
3590.916	-27.2
3593.728	-36.2
3596.538	-37.2
3599.346	-34.2
3602.152	-37.2
3604.956	-36.2
3607.757	-35.2
3610.556	-38.2
3613.354	-46.2
3616.149	-49.2
3618.942	-42.2
3621.732	-45.2
3624.521	-38.2
3627.307	-42.2
3630.092	-42.2
3632.874	-43.2
3635.654	-49.2
3638.432	-41.2
3641.208	-46.2
3643.982	-41.2
3646.753	-46.2
3649.523	-51.2
3652.29	-46.2
3655.055	-54.2
3657.818	-56.2
3660.579	-58.2
3663.338	-52.2
3666.095	-52.2
3668.849	-57.2
3671.602	-55.2
3674.352	-53.2
3677.101	-54.2
3679.847	-56.2
3682.591	-56.2
3685.333	-50.2
3688.073	-60.2
3690.811	-53.2
3693.547	-59.2
3696.281	-58.2
3699.013	-54.2
3701.742	-65.2
3704.47	-54.2
3707.195	-59.2
3709.919	-61.2
3712.64	-64.2
3715.359	-66.2
3718.076	-68.2
3720.792	-67.2
3723.505	-61.2
3726.216	-58.2
3728.925	-65.2
3731.632	-62.2
3734.336	-63.2
3737.039	-61.2
3739.74	-68.2
3742.439	-73.2
3745.136	-62.2
3747.83	-63.2
3750.523	-64.2
3753.213	-74.2
3755.902	-62.2
3758.589	-68.2
3761.273	-64.2
3763.956	-65.2
3766.636	-66.2
3769.315	-63.2
3771.991	-69.2
3774.665	-72.2
3777.338	-69.2
3780.008	-66.2
3782.677	-71.2
3785.343	-64.2
3788.007	-74.2
3790.67	-67.2
3793.33	-65.2
3795.989	-72.2
3798.645	-70.2
3801.299	-65.2
3803.952	-70.2
3806.602	-69.2
3809.251	-73.2
3811.897	-72.2
3814.542	-69.2
3817.184	-67.2
3819.825	-64.2
3822.463	-68.2
3825.1	-73.2
3827.735	-73.2
3830.367	-70.2
3832.998	-71.2
3835.627	-69.2
3838.253	-67.2
3840.878	-67.2
3843.501	-62.2
3846.122	-71.2
3848.741	-65.2
3851.358	-67.2
3853.973	-63.2
3856.586	-66.2
3859.197	-65.2
3861.806	-71.2
3864.414	-61.2
3867.019	-71.2
3869.622	-62.2
3872.224	-61.2
3874.823	-47.2
3877.421	-47.2
3880.016	-38.2
3882.61	-17.2
3885.202	-16.2
3887.792	-26.2
3890.38	-44.2
3892.966	-55.2
3895.55	-63.2
3898.132	-67.2
3900.713	-69.2
3903.291	-69.2
3905.868	-64.2
3908.442	-68.2
3911.015	-64.2
3913.586	-75.2
3916.155	-68.2
3918.722	-69.2
3921.287	-73.2
3923.85	-63.2
3926.411	-68.2
3928.971	-74.2
3931.528	-73.2
3934.084	-70.2
3936.638	-70.2
3939.19	-80.2
3941.74	-71.2
3944.288	-68.2
3946.834	-68.2
3949.378	-74.2
3951.921	-70.2
3954.462	-74.2
3957	-64.2
3959.537	-57.2
3962.072	-60.2
3964.606	-67.2
3967.137	-66.2
3969.667	-74.2
3972.194	-67.2
3974.72	-65.2
3977.244	-69.2
3979.766	-66.2
3982.286	-71.2
3984.805	-78.2
3987.321	-75.2
3989.836	-62.2
3992.349	-68.2
3994.86	-73.2
3997.369	-71.2
3999.877	-71.2
4002.382	-64.2
4004.886	-67.2
4007.388	-71.2
4009.888	-66.2
4012.386	-66.2
4014.883	-66.2
4017.377	-63.2
4019.87	-67.2
4022.361	-72.2
4024.85	-67.2
4027.338	-68.2
4029.823	-71.2
4032.307	-70.2
4034.789	-72.2
4037.269	-71.2
4039.747	-72.2
4042.224	-71.2
4044.699	-73.2
4047.172	-70.2
4049.643	-70.2
4052.112	-67.2
4054.58	-68.2
4057.046	-65.2
4059.51	-70.2
4061.972	-70.2
4064.432	-63.2
4066.891	-62.2
4069.348	-69.2
4071.803	-63.2
4074.256	-69.2
4076.708	-72.2
4079.158	-75.2
4081.606	-67.2
4084.052	-72.2
4086.497	-68.2
4088.939	-71.2
4091.38	-74.2
4093.819	-70.2
4096.257	-73.2
4098.693	-74.2
4101.127	-67.2
4103.559	-77.2
4105.989	-6.2
4108.418	-3.2
4110.845	-12.2
4113.27	-9.2
4115.694	-2.2
4118.115	-2.2
4120.535	-69.2
4122.954	-67.2
4125.37	-68.2
4127.785	-64.2
4130.198	-65.2
4132.609	-69.2
4135.019	-73.2
4137.427	-74.2
4139.833	-71.2
4142.237	-72.2
