Data from 2018-3-7_conc=3_n=4_RamanShift_01.txt Node
Date: Wed Mar 07 11:24:52 IST 2018
User: aro
Spectrometer: QEPB0276
Trigger mode: 0
Integration Time (sec): 3.000000E1
Scans to average: 1
Electric dark correction enabled: true
Nonlinearity correction enabled: false
Boxcar width: 0
XAxis mode: Raman Shifts
Number of Pixels in Spectrum: 1044
>>>>>Begin Spectral Data<<<<<
160.701	15.5
166.742	20.5
172.777	56.5
178.805	143.5
184.826	345.5
190.841	739.5
196.849	1197.5
202.85	1551.5
208.845	1720.5
214.833	1717.5
220.815	1692.5
226.789	1680.5
232.758	1683.5
238.719	1711.5
244.674	1692.5
250.623	1692.5
256.565	1648.5
262.5	1652.5
268.429	1621.5
274.351	1625.5
280.267	1617.5
286.176	1615.5
292.079	1617.5
297.975	1611.5
303.865	1608.5
309.748	1615.5
315.625	1619.5
321.495	1621.5
327.359	1616.5
333.217	1624.5
339.068	1635.5
344.912	1639.5
350.751	1635.5
356.583	1633.5
362.408	1643.5
368.227	1646.5
374.04	1665.5
379.847	1670.5
385.647	1655.5
391.44	1677.5
397.228	1683.5
403.009	1692.5
408.784	1694.5
414.553	1723.5
420.315	1718.5
426.071	1703.5
431.821	1733.5
437.565	1709.5
443.302	1706.5
449.033	1705.5
454.758	1689.5
460.477	1675.5
466.189	1677.5
471.896	1651.5
477.596	1645.5
483.29	1647.5
488.978	1625.5
494.66	1626.5
500.335	1594.5
506.005	1541.5
511.668	1478.5
517.325	1408.5
522.977	1358.5
528.622	1320.5
534.261	1297.5
539.894	1274.5
545.521	1271.5
551.141	1266.5
556.756	1240.5
562.365	1242.5
567.968	1211.5
573.565	1226.5
579.155	1210.5
584.74	1215.5
590.319	1201.5
595.892	1215.5
601.459	1195.5
607.02	1197.5
612.575	1185.5
618.124	1161.5
623.667	1140.5
629.204	1146.5
634.735	1129.5
640.261	1125.5
645.781	1123.5
651.294	1123.5
656.802	1098.5
662.304	1097.5
667.8	1103.5
673.29	1105.5
678.775	1102.5
684.254	1084.5
689.726	1068.5
695.193	1083.5
700.655	1072.5
706.11	1077.5
711.56	1048.5
717.004	1053.5
722.442	1042.5
727.874	1028.5
733.301	1030.5
738.722	1031.5
744.137	1039.5
749.547	1022.5
754.951	1028.5
760.349	1035.5
765.741	1031.5
771.128	1028.5
776.509	1054.5
781.885	1070.5
787.254	1071.5
792.618	1066.5
797.977	1065.5
803.33	1050.5
808.677	1041.5
814.019	1039.5
819.355	1031.5
824.686	1019.5
830.011	1022.5
835.33	1003.5
840.644	1000.5
845.952	1001.5
851.255	998.5
856.552	1006.5
861.844	991.5
867.13	964.5
872.41	957.5
877.686	959.5
882.955	973.5
888.219	940.5
893.478	935.5
898.731	930.5
903.979	913.5
909.221	892.5
914.458	889.5
919.69	909.5
924.916	898.5
930.136	898.5
935.351	905.5
940.561	898.5
945.766	905.5
950.965	899.5
956.158	890.5
961.347	884.5
966.529	865.5
971.707	847.5
976.879	831.5
982.046	834.5
987.208	838.5
992.364	833.5
997.515	836.5
1002.66	838.5
1007.801	845.5
1012.936	853.5
1018.066	865.5
1023.19	862.5
1028.309	861.5
1033.423	855.5
1038.532	850.5
1043.636	847.5
1048.734	849.5
1053.827	825.5
1058.915	802.5
1063.998	797.5
1069.075	808.5
1074.147	811.5
1079.214	812.5
1084.276	827.5
1089.333	828.5
1094.385	824.5
1099.431	814.5
1104.472	805.5
1109.509	804.5
1114.54	795.5
1119.565	798.5
1124.586	771.5
1129.602	768.5
1134.613	751.5
1139.618	748.5
1144.619	735.5
1149.614	761.5
1154.604	760.5
1159.589	758.5
1164.57	766.5
1169.545	760.5
1174.515	753.5
1179.48	765.5
1184.44	756.5
1189.395	737.5
1194.345	742.5
1199.29	732.5
1204.23	734.5
1209.165	729.5
1214.095	739.5
1219.021	746.5
1223.941	752.5
1228.856	753.5
1233.766	737.5
1238.672	761.5
1243.572	753.5
1248.467	747.5
1253.358	729.5
1258.244	733.5
1263.124	724.5
1268	702.5
1272.871	690.5
1277.737	682.5
1282.599	686.5
1287.455	673.5
1292.306	690.5
1297.153	674.5
1301.995	693.5
1306.832	685.5
1311.664	694.5
1316.491	704.5
1321.314	680.5
1326.132	692.5
1330.945	668.5
1335.753	652.5
1340.556	640.5
1345.354	632.5
1350.148	630.5
1354.937	606.5
1359.722	589.5
1364.501	577.5
1369.276	578.5
1374.046	567.5
1378.811	565.5
1383.572	560.5
1388.327	563.5
1393.079	569.5
1397.825	570.5
1402.567	569.5
1407.304	578.5
1412.036	564.5
1416.764	572.5
1421.487	573.5
1426.205	568.5
1430.919	564.5
1435.628	582.5
1440.333	587.5
1445.032	579.5
1449.727	589.5
1454.418	596.5
1459.104	585.5
1463.785	573.5
1468.462	574.5
1473.134	548.5
1477.802	531.5
1482.465	517.5
1487.123	505.5
1491.777	504.5
1496.426	505.5
1501.071	487.5
1505.711	483.5
1510.347	481.5
1514.978	474.5
1519.604	470.5
1524.226	475.5
1528.844	477.5
1533.457	467.5
1538.065	471.5
1542.669	461.5
1547.269	471.5
1551.864	484.5
1556.454	481.5
1561.041	494.5
1565.622	481.5
1570.199	498.5
1574.772	490.5
1579.34	511.5
1583.904	499.5
1588.464	518.5
1593.019	510.5
1597.569	504.5
1602.115	512.5
1606.657	507.5
1611.195	513.5
1615.728	511.5
1620.256	498.5
1624.78	497.5
1629.3	518.5
1633.816	495.5
1638.327	512.5
1642.834	516.5
1647.336	505.5
1651.834	509.5
1656.328	502.5
1660.817	498.5
1665.302	491.5
1669.783	484.5
1674.259	467.5
1678.732	469.5
1683.199	444.5
1687.663	430.5
1692.122	402.5
1696.577	389.5
1701.028	385.5
1705.474	343.5
1709.917	348.5
1714.355	342.5
1718.788	335.5
1723.218	336.5
1727.643	345.5
1732.064	328.5
1736.481	333.5
1740.893	325.5
1745.301	325.5
1749.705	330.5
1754.105	299.5
1758.501	296.5
1762.893	299.5
1767.28	286.5
1771.663	291.5
1776.042	287.5
1780.417	275.5
1784.787	274.5
1789.154	259.5
1793.516	270.5
1797.874	255.5
1802.228	262.5
1806.578	258.5
1810.924	260.5
1815.266	243.5
1819.603	251.5
1823.937	257.5
1828.266	251.5
1832.591	263.5
1836.913	251.5
1841.23	256.5
1845.543	254.5
1849.852	258.5
1854.156	262.5
1858.457	256.5
1862.754	266.5
1867.047	257.5
1871.335	250.5
1875.62	252.5
1879.9	258.5
1884.177	246.5
1888.449	248.5
1892.718	241.5
1896.982	240.5
1901.243	231.5
1905.499	233.5
1909.752	225.5
1914	227.5
1918.245	225.5
1922.485	214.5
1926.722	201.5
1930.954	206.5
1935.183	208.5
1939.408	208.5
1943.628	203.5
1947.845	201.5
1952.058	208.5
1956.267	198.5
1960.472	202.5
1964.673	196.5
1968.87	191.5
1973.063	190.5
1977.252	199.5
1981.438	187.5
1985.619	196.5
1989.797	186.5
1993.971	192.5
1998.14	191.5
2002.306	195.5
2006.469	202.5
2010.627	185.5
2014.781	194.5
2018.932	192.5
2023.078	192.5
2027.221	193.5
2031.36	190.5
2035.495	197.5
2039.627	176.5
2043.754	178.5
2047.878	181.5
2051.998	175.5
2056.114	176.5
2060.226	176.5
2064.334	170.5
2068.439	168.5
2072.54	167.5
2076.637	169.5
2080.73	182.5
2084.82	168.5
2088.906	168.5
2092.988	168.5
2097.066	162.5
2101.14	162.5
2105.211	161.5
2109.278	165.5
2113.342	148.5
2117.401	154.5
2121.457	151.5
2125.509	149.5
2129.558	144.5
2133.602	148.5
2137.643	152.5
2141.681	148.5
2145.714	158.5
2149.744	146.5
2153.77	155.5
2157.793	154.5
2161.812	145.5
2165.827	150.5
2169.838	140.5
2173.846	138.5
2177.851	140.5
2181.851	140.5
2185.848	135.5
2189.841	136.5
2193.831	135.5
2197.817	135.5
2201.799	138.5
2205.778	141.5
2209.753	132.5
2213.725	133.5
2217.693	135.5
2221.657	129.5
2225.618	134.5
2229.575	134.5
2233.529	122.5
2237.479	128.5
2241.425	126.5
2245.368	130.5
2249.307	130.5
2253.243	122.5
2257.175	118.5
2261.104	116.5
2265.029	122.5
2268.95	111.5
2272.868	118.5
2276.783	111.5
2280.694	110.5
2284.601	102.5
2288.505	107.5
2292.405	114.5
2296.302	112.5
2300.195	102.5
2304.085	99.5
2307.971	99.5
2311.854	96.5
2315.734	102.5
2319.609	108.5
2323.482	100.5
2327.351	103.5
2331.216	113.5
2335.078	127.5
2338.937	108.5
2342.792	99.5
2346.643	98.5
2350.492	111.5
2354.336	101.5
2358.178	87.5
2362.015	96.5
2365.85	99.5
2369.681	98.5
2373.508	101.5
2377.333	98.5
2381.153	100.5
2384.971	99.5
2388.785	92.5
2392.595	101.5
2396.402	101.5
2400.206	93.5
2404.007	92.5
2407.804	93.5
2411.597	90.5
2415.388	92.5
2419.174	93.5
2422.958	93.5
2426.738	100.5
2430.515	94.5
2434.289	100.5
2438.059	86.5
2441.825	88.5
2445.589	86.5
2449.349	84.5
2453.106	82.5
2456.859	73.5
2460.61	85.5
2464.356	81.5
2468.1	82.5
2471.84	79.5
2475.577	69.5
2479.311	70.5
2483.041	76.5
2486.768	72.5
2490.492	78.5
2494.213	71.5
2497.93	75.5
2501.644	77.5
2505.355	69.5
2509.062	61.5
2512.766	66.5
2516.467	61.5
2520.165	66.5
2523.859	66.5
2527.551	60.5
2531.239	62.5
2534.923	64.5
2538.605	55.5
2542.283	58.5
2545.958	59.5
2549.63	62.5
2553.299	60.5
2556.964	58.5
2560.626	57.5
2564.285	57.5
2567.941	48.5
2571.594	49.5
2575.243	52.5
2578.89	52.5
2582.533	43.5
2586.173	51.5
2589.809	53.5
2593.443	55.5
2597.073	45.5
2600.701	47.5
2604.325	41.5
2607.946	42.5
2611.564	48.5
2615.178	49.5
2618.79	44.5
2622.398	47.5
2626.004	42.5
2629.606	34.5
2633.205	38.5
2636.801	35.5
2640.394	46.5
2643.983	41.5
2647.57	42.5
2651.153	37.5
2654.734	34.5
2658.311	42.5
2661.885	40.5
2665.456	39.5
2669.025	42.5
2672.589	32.5
2676.151	34.5
2679.71	33.5
2683.266	31.5
2686.819	34.5
2690.368	30.5
2693.915	33.5
2697.458	23.5
2700.999	33.5
2704.536	31.5
2708.071	29.5
2711.602	26.5
2715.13	28.5
2718.656	27.5
2722.178	22.5
2725.697	16.5
2729.214	28.5
2732.727	23.5
2736.237	24.5
2739.744	18.5
2743.249	22.5
2746.75	25.5
2750.248	9.5
2753.743	17.5
2757.236	10.5
2760.725	19.5
2764.211	15.5
2767.695	17.5
2771.175	14.5
2774.652	16.5
2778.127	12.5
2781.598	11.5
2785.067	15.5
2788.532	15.5
2791.995	17.5
2795.455	12.5
2798.911	15.5
2802.365	21.5
2805.816	11.5
2809.264	15.5
2812.709	11.5
2816.151	15.5
2819.59	26.5
2823.026	22.5
2826.46	12.5
2829.89	9.5
2833.318	16.5
2836.742	25.5
2840.164	17.5
2843.583	16.5
2846.999	20.5
2850.412	19.5
2853.822	18.5
2857.229	16.5
2860.634	12.5
2864.035	18.5
2867.434	15.5
2870.83	25.5
2874.223	14.5
2877.613	21.5
2881	25.5
2884.385	19.5
2887.766	29.5
2891.145	22.5
2894.521	29.5
2897.894	31.5
2901.264	33.5
2904.631	21.5
2907.996	27.5
2911.358	34.5
2914.717	26.5
2918.073	23.5
2921.426	30.5
2924.777	30.5
2928.124	33.5
2931.469	35.5
2934.811	44.5
2938.15	43.5
2941.487	43.5
2944.821	45.5
2948.152	41.5
2951.48	40.5
2954.805	42.5
2958.128	34.5
2961.447	32.5
2964.765	34.5
2968.079	32.5
2971.39	29.5
2974.699	28.5
2978.005	37.5
2981.308	28.5
2984.609	30.5
2987.907	34.5
2991.202	43.5
2994.494	30.5
2997.784	32.5
3001.07	42.5
3004.355	41.5
3007.636	44.5
3010.915	35.5
3014.191	36.5
3017.464	37.5
3020.734	39.5
3024.002	48.5
3027.267	42.5
3030.53	45.5
3033.789	45.5
3037.046	43.5
3040.301	44.5
3043.552	47.5
3046.801	50.5
3050.048	53.5
3053.291	53.5
3056.532	53.5
3059.771	56.5
3063.006	61.5
3066.239	61.5
3069.469	71.5
3072.697	73.5
3075.922	84.5
3079.144	65.5
3082.364	77.5
3085.581	74.5
3088.795	83.5
3092.007	81.5
3095.216	84.5
3098.423	89.5
3101.627	88.5
3104.828	93.5
3108.026	99.5
3111.222	95.5
3114.416	105.5
3117.607	102.5
3120.795	99.5
3123.98	102.5
3127.163	110.5
3130.344	111.5
3133.521	111.5
3136.696	115.5
3139.869	123.5
3143.039	122.5
3146.206	128.5
3149.371	123.5
3152.533	135.5
3155.693	126.5
3158.85	131.5
3162.005	133.5
3165.157	134.5
3168.306	131.5
3171.453	134.5
3174.597	129.5
3177.739	134.5
3180.878	137.5
3184.014	128.5
3187.149	132.5
3190.28	135.5
3193.409	137.5
3196.536	133.5
3199.659	133.5
3202.781	134.5
3205.9	137.5
3209.016	137.5
3212.13	135.5
3215.241	138.5
3218.35	138.5
3221.456	135.5
3224.56	128.5
3227.661	127.5
3230.76	114.5
3233.856	124.5
3236.95	110.5
3240.041	114.5
3243.13	123.5
3246.216	110.5
3249.3	110.5
3252.382	108.5
3255.46	115.5
3258.537	115.5
3261.611	105.5
3264.682	99.5
3267.751	98.5
3270.818	98.5
3273.882	102.5
3276.943	98.5
3280.002	102.5
3283.059	96.5
3286.113	95.5
3289.165	88.5
3292.214	99.5
3295.261	102.5
3298.306	89.5
3301.348	93.5
3304.387	91.5
3307.425	93.5
3310.459	83.5
3313.492	85.5
3316.521	89.5
3319.549	98.5
3322.574	79.5
3325.597	84.5
3328.617	85.5
3331.635	91.5
3334.65	94.5
3337.663	79.5
3340.674	95.5
3343.682	89.5
3346.688	84.5
3349.691	91.5
3352.692	85.5
3355.691	84.5
3358.687	82.5
3361.681	84.5
3364.673	86.5
3367.662	89.5
3370.649	81.5
3373.633	80.5
3376.615	74.5
3379.595	72.5
3382.572	68.5
3385.547	69.5
3388.52	73.5
3391.49	69.5
3394.458	62.5
3397.424	74.5
3400.387	67.5
3403.348	62.5
3406.307	55.5
3409.263	62.5
3412.217	53.5
3415.168	60.5
3418.118	53.5
3421.065	53.5
3424.009	55.5
3426.951	58.5
3429.891	52.5
3432.829	54.5
3435.764	47.5
3438.697	54.5
3441.628	39.5
3444.557	47.5
3447.483	46.5
3450.407	32.5
3453.328	43.5
3456.247	27.5
3459.164	27.5
3462.079	19.5
3464.991	21.5
3467.902	26.5
3470.809	25.5
3473.715	17.5
3476.618	16.5
3479.519	20.5
3482.418	10.5
3485.315	8.5
3488.209	3.5
3491.101	6.5
3493.99	7.5
3496.878	12.5
3499.763	-0.5
3502.646	3.5
3505.527	0.5
3508.405	-4.5
3511.281	-2.5
3514.155	-5.5
3517.027	-5.5
3519.897	-3.5
3522.764	-4.5
3525.629	-10.5
3528.492	-13.5
3531.352	-16.5
3534.211	-18.5
3537.067	-16.5
3539.921	-18.5
3542.773	-23.5
3545.622	-17.5
3548.469	-19.5
3551.315	-17.5
3554.157	-26.5
3556.998	-28.5
3559.837	-20.5
3562.673	-23.5
3565.507	-24.5
3568.339	-17.5
3571.169	-30.5
3573.996	-22.5
3576.822	-34.5
3579.645	-36.5
3582.466	-33.5
3585.285	-39.5
3588.101	-35.5
3590.916	-34.5
3593.728	-30.5
3596.538	-30.5
3599.346	-37.5
3602.152	-31.5
3604.956	-35.5
3607.757	-31.5
3610.556	-32.5
3613.354	-40.5
3616.149	-38.5
3618.942	-40.5
3621.732	-42.5
3624.521	-35.5
3627.307	-39.5
3630.092	-43.5
3632.874	-40.5
3635.654	-39.5
3638.432	-43.5
3641.208	-38.5
3643.982	-37.5
3646.753	-42.5
3649.523	-40.5
3652.29	-44.5
3655.055	-42.5
3657.818	-47.5
3660.579	-46.5
3663.338	-41.5
3666.095	-46.5
3668.849	-49.5
3671.602	-53.5
3674.352	-40.5
3677.101	-47.5
3679.847	-40.5
3682.591	-50.5
3685.333	-42.5
3688.073	-52.5
3690.811	-47.5
3693.547	-45.5
3696.281	-50.5
3699.013	-53.5
3701.742	-53.5
3704.47	-40.5
3707.195	-52.5
3709.919	-46.5
3712.64	-49.5
3715.359	-48.5
3718.076	-46.5
3720.792	-46.5
3723.505	-51.5
3726.216	-46.5
3728.925	-50.5
3731.632	-50.5
3734.336	-54.5
3737.039	-48.5
3739.74	-56.5
3742.439	-57.5
3745.136	-56.5
3747.83	-49.5
3750.523	-55.5
3753.213	-58.5
3755.902	-56.5
3758.589	-50.5
3761.273	-51.5
3763.956	-50.5
3766.636	-48.5
3769.315	-46.5
3771.991	-53.5
3774.665	-52.5
3777.338	-52.5
3780.008	-49.5
3782.677	-56.5
3785.343	-54.5
3788.007	-55.5
3790.67	-55.5
3793.33	-52.5
3795.989	-53.5
3798.645	-58.5
3801.299	-48.5
3803.952	-51.5
3806.602	-57.5
3809.251	-54.5
3811.897	-61.5
3814.542	-57.5
3817.184	-55.5
3819.825	-44.5
3822.463	-51.5
3825.1	-46.5
3827.735	-57.5
3830.367	-59.5
3832.998	-55.5
3835.627	-55.5
3838.253	-47.5
3840.878	-46.5
3843.501	-46.5
3846.122	-53.5
3848.741	-50.5
3851.358	-51.5
3853.973	-50.5
3856.586	-51.5
3859.197	-54.5
3861.806	-54.5
3864.414	-56.5
3867.019	-54.5
3869.622	-48.5
3872.224	-37.5
3874.823	-27.5
3877.421	-20.5
3880.016	-3.5
3882.61	14.5
3885.202	15.5
3887.792	-1.5
3890.38	-19.5
3892.966	-40.5
3895.55	-48.5
3898.132	-48.5
3900.713	-51.5
3903.291	-57.5
3905.868	-49.5
3908.442	-57.5
3911.015	-54.5
3913.586	-59.5
3916.155	-54.5
3918.722	-51.5
3921.287	-54.5
3923.85	-45.5
3926.411	-57.5
3928.971	-61.5
3931.528	-54.5
3934.084	-45.5
3936.638	-46.5
3939.19	-60.5
3941.74	-55.5
3944.288	-57.5
3946.834	-52.5
3949.378	-56.5
3951.921	-55.5
3954.462	-57.5
3957	-49.5
3959.537	-48.5
3962.072	-49.5
3964.606	-53.5
3967.137	-50.5
3969.667	-50.5
3972.194	-50.5
3974.72	-50.5
3977.244	-48.5
3979.766	-49.5
3982.286	-52.5
3984.805	-58.5
3987.321	-50.5
3989.836	-51.5
3992.349	-55.5
3994.86	-53.5
3997.369	-55.5
3999.877	-56.5
4002.382	-53.5
4004.886	-49.5
4007.388	-55.5
4009.888	-49.5
4012.386	-51.5
4014.883	-49.5
4017.377	-50.5
4019.87	-52.5
4022.361	-57.5
4024.85	-53.5
4027.338	-58.5
4029.823	-54.5
4032.307	-58.5
4034.789	-50.5
4037.269	-56.5
4039.747	-54.5
4042.224	-54.5
4044.699	-50.5
4047.172	-55.5
4049.643	-54.5
4052.112	-49.5
4054.58	-54.5
4057.046	-52.5
4059.51	-56.5
4061.972	-55.5
4064.432	-53.5
4066.891	-49.5
4069.348	-52.5
4071.803	-49.5
4074.256	-53.5
4076.708	-48.5
4079.158	-59.5
4081.606	-50.5
4084.052	-51.5
4086.497	-49.5
4088.939	-51.5
4091.38	-53.5
4093.819	-63.5
4096.257	-53.5
4098.693	-56.5
4101.127	-49.5
4103.559	-57.5
4105.989	21.5
4108.418	22.5
4110.845	13.5
4113.27	16.5
4115.694	16.5
4118.115	13.5
4120.535	-51.5
4122.954	-51.5
4125.37	-52.5
4127.785	-49.5
4130.198	-50.5
4132.609	-56.5
4135.019	-58.5
4137.427	-59.5
4139.833	-58.5
4142.237	-59.5
