Data from 2018-3-7_conc=6_n=7_RamanShift_01.txt Node
Date: Wed Mar 07 13:15:52 IST 2018
User: aro
Spectrometer: QEPB0276
Trigger mode: 0
Integration Time (sec): 3.000000E1
Scans to average: 1
Electric dark correction enabled: true
Nonlinearity correction enabled: false
Boxcar width: 0
XAxis mode: Raman Shifts
Number of Pixels in Spectrum: 1044
>>>>>Begin Spectral Data<<<<<
160.701	12.4
166.742	18.4
172.777	48.4
178.805	147.4
184.826	389.4
190.841	824.4
196.849	1372.4
202.85	1790.4
208.845	1981.4
214.833	1963.4
220.815	1928.4
226.789	1921.4
232.758	1921.4
238.719	1912.4
244.674	1902.4
250.623	1881.4
256.565	1846.4
262.5	1820.4
268.429	1796.4
274.351	1776.4
280.267	1760.4
286.176	1769.4
292.079	1772.4
297.975	1734.4
303.865	1746.4
309.748	1736.4
315.625	1708.4
321.495	1709.4
327.359	1730.4
333.217	1716.4
339.068	1720.4
344.912	1737.4
350.751	1724.4
356.583	1725.4
362.408	1715.4
368.227	1739.4
374.04	1742.4
379.847	1738.4
385.647	1734.4
391.44	1763.4
397.228	1769.4
403.009	1764.4
408.784	1774.4
414.553	1790.4
420.315	1801.4
426.071	1809.4
431.821	1796.4
437.565	1785.4
443.302	1786.4
449.033	1776.4
454.758	1768.4
460.477	1759.4
466.189	1749.4
471.896	1728.4
477.596	1729.4
483.29	1716.4
488.978	1707.4
494.66	1709.4
500.335	1687.4
506.005	1643.4
511.668	1574.4
517.325	1540.4
522.977	1486.4
528.622	1472.4
534.261	1439.4
539.894	1420.4
545.521	1414.4
551.141	1402.4
556.756	1375.4
562.365	1374.4
567.968	1363.4
573.565	1372.4
579.155	1355.4
584.74	1355.4
590.319	1330.4
595.892	1333.4
601.459	1317.4
607.02	1329.4
612.575	1307.4
618.124	1298.4
623.667	1291.4
629.204	1271.4
634.735	1279.4
640.261	1267.4
645.781	1258.4
651.294	1263.4
656.802	1257.4
662.304	1239.4
667.8	1234.4
673.29	1243.4
678.775	1223.4
684.254	1230.4
689.726	1220.4
695.193	1226.4
700.655	1225.4
706.11	1186.4
711.56	1186.4
717.004	1188.4
722.442	1168.4
727.874	1170.4
733.301	1177.4
738.722	1158.4
744.137	1174.4
749.547	1163.4
754.951	1168.4
760.349	1155.4
765.741	1170.4
771.128	1159.4
776.509	1190.4
781.885	1190.4
787.254	1195.4
792.618	1195.4
797.977	1187.4
803.33	1170.4
808.677	1183.4
814.019	1168.4
819.355	1152.4
824.686	1145.4
830.011	1132.4
835.33	1124.4
840.644	1129.4
845.952	1126.4
851.255	1120.4
856.552	1127.4
861.844	1114.4
867.13	1097.4
872.41	1106.4
877.686	1094.4
882.955	1087.4
888.219	1073.4
893.478	1061.4
898.731	1041.4
903.979	1041.4
909.221	1020.4
914.458	1019.4
919.69	1014.4
924.916	1028.4
930.136	1022.4
935.351	1032.4
940.561	1025.4
945.766	1022.4
950.965	1017.4
956.158	1022.4
961.347	1006.4
966.529	993.4
971.707	964.4
976.879	954.4
982.046	958.4
987.208	963.4
992.364	958.4
997.515	950.4
1002.66	962.4
1007.801	970.4
1012.936	984.4
1018.066	981.4
1023.19	987.4
1028.309	982.4
1033.423	979.4
1038.532	976.4
1043.636	960.4
1048.734	963.4
1053.827	937.4
1058.915	936.4
1063.998	915.4
1069.075	928.4
1074.147	916.4
1079.214	927.4
1084.276	929.4
1089.333	939.4
1094.385	932.4
1099.431	925.4
1104.472	937.4
1109.509	917.4
1114.54	908.4
1119.565	905.4
1124.586	874.4
1129.602	876.4
1134.613	868.4
1139.618	868.4
1144.619	863.4
1149.614	868.4
1154.604	849.4
1159.589	879.4
1164.57	879.4
1169.545	869.4
1174.515	876.4
1179.48	861.4
1184.44	870.4
1189.395	856.4
1194.345	846.4
1199.29	835.4
1204.23	846.4
1209.165	835.4
1214.095	845.4
1219.021	852.4
1223.941	853.4
1228.856	861.4
1233.766	858.4
1238.672	860.4
1243.572	866.4
1248.467	860.4
1253.358	846.4
1258.244	840.4
1263.124	815.4
1268	805.4
1272.871	800.4
1277.737	781.4
1282.599	782.4
1287.455	782.4
1292.306	789.4
1297.153	791.4
1301.995	798.4
1306.832	804.4
1311.664	806.4
1316.491	815.4
1321.314	820.4
1326.132	799.4
1330.945	796.4
1335.753	779.4
1340.556	760.4
1345.354	744.4
1350.148	733.4
1354.937	712.4
1359.722	701.4
1364.501	684.4
1369.276	678.4
1374.046	657.4
1378.811	639.4
1383.572	649.4
1388.327	649.4
1393.079	648.4
1397.825	654.4
1402.567	663.4
1407.304	668.4
1412.036	673.4
1416.764	648.4
1421.487	662.4
1426.205	670.4
1430.919	664.4
1435.628	674.4
1440.333	687.4
1445.032	672.4
1449.727	706.4
1454.418	692.4
1459.104	690.4
1463.785	669.4
1468.462	668.4
1473.134	642.4
1477.802	633.4
1482.465	619.4
1487.123	603.4
1491.777	602.4
1496.426	588.4
1501.071	579.4
1505.711	564.4
1510.347	576.4
1514.978	565.4
1519.604	559.4
1524.226	555.4
1528.844	547.4
1533.457	551.4
1538.065	541.4
1542.669	546.4
1547.269	542.4
1551.864	565.4
1556.454	558.4
1561.041	569.4
1565.622	565.4
1570.199	575.4
1574.772	581.4
1579.34	595.4
1583.904	598.4
1588.464	607.4
1593.019	610.4
1597.569	612.4
1602.115	607.4
1606.657	606.4
1611.195	615.4
1615.728	598.4
1620.256	604.4
1624.78	604.4
1629.3	623.4
1633.816	605.4
1638.327	624.4
1642.834	611.4
1647.336	620.4
1651.834	607.4
1656.328	601.4
1660.817	603.4
1665.302	600.4
1669.783	587.4
1674.259	563.4
1678.732	551.4
1683.199	531.4
1687.663	504.4
1692.122	492.4
1696.577	462.4
1701.028	454.4
1705.474	418.4
1709.917	415.4
1714.355	391.4
1718.788	398.4
1723.218	400.4
1727.643	397.4
1732.064	400.4
1736.481	402.4
1740.893	389.4
1745.301	375.4
1749.705	378.4
1754.105	368.4
1758.501	347.4
1762.893	349.4
1767.28	342.4
1771.663	328.4
1776.042	339.4
1780.417	330.4
1784.787	318.4
1789.154	317.4
1793.516	295.4
1797.874	291.4
1802.228	305.4
1806.578	292.4
1810.924	288.4
1815.266	293.4
1819.603	290.4
1823.937	299.4
1828.266	300.4
1832.591	289.4
1836.913	295.4
1841.23	303.4
1845.543	301.4
1849.852	308.4
1854.156	304.4
1858.457	306.4
1862.754	313.4
1867.047	301.4
1871.335	304.4
1875.62	302.4
1879.9	303.4
1884.177	288.4
1888.449	297.4
1892.718	298.4
1896.982	281.4
1901.243	268.4
1905.499	275.4
1909.752	258.4
1914	262.4
1918.245	257.4
1922.485	247.4
1926.722	242.4
1930.954	237.4
1935.183	248.4
1939.408	239.4
1943.628	234.4
1947.845	237.4
1952.058	232.4
1956.267	224.4
1960.472	229.4
1964.673	214.4
1968.87	221.4
1973.063	230.4
1977.252	230.4
1981.438	235.4
1985.619	228.4
1989.797	229.4
1993.971	234.4
1998.14	231.4
2002.306	236.4
2006.469	237.4
2010.627	229.4
2014.781	240.4
2018.932	234.4
2023.078	236.4
2027.221	237.4
2031.36	231.4
2035.495	225.4
2039.627	219.4
2043.754	213.4
2047.878	216.4
2051.998	211.4
2056.114	209.4
2060.226	202.4
2064.334	210.4
2068.439	209.4
2072.54	204.4
2076.637	205.4
2080.73	209.4
2084.82	212.4
2088.906	202.4
2092.988	204.4
2097.066	198.4
2101.14	198.4
2105.211	195.4
2109.278	188.4
2113.342	183.4
2117.401	183.4
2121.457	182.4
2125.509	174.4
2129.558	183.4
2133.602	175.4
2137.643	176.4
2141.681	176.4
2145.714	186.4
2149.744	183.4
2153.77	187.4
2157.793	189.4
2161.812	185.4
2165.827	182.4
2169.838	182.4
2173.846	176.4
2177.851	174.4
2181.851	170.4
2185.848	174.4
2189.841	169.4
2193.831	167.4
2197.817	163.4
2201.799	173.4
2205.778	172.4
2209.753	166.4
2213.725	169.4
2217.693	168.4
2221.657	162.4
2225.618	159.4
2229.575	168.4
2233.529	163.4
2237.479	165.4
2241.425	152.4
2245.368	164.4
2249.307	157.4
2253.243	151.4
2257.175	154.4
2261.104	144.4
2265.029	143.4
2268.95	145.4
2272.868	146.4
2276.783	138.4
2280.694	136.4
2284.601	132.4
2288.505	141.4
2292.405	139.4
2296.302	140.4
2300.195	131.4
2304.085	133.4
2307.971	134.4
2311.854	120.4
2315.734	120.4
2319.609	134.4
2323.482	121.4
2327.351	128.4
2331.216	135.4
2335.078	140.4
2338.937	134.4
2342.792	130.4
2346.643	137.4
2350.492	126.4
2354.336	123.4
2358.178	116.4
2362.015	126.4
2365.85	125.4
2369.681	126.4
2373.508	134.4
2377.333	129.4
2381.153	131.4
2384.971	119.4
2388.785	127.4
2392.595	124.4
2396.402	127.4
2400.206	118.4
2404.007	125.4
2407.804	125.4
2411.597	122.4
2415.388	125.4
2419.174	124.4
2422.958	116.4
2426.738	120.4
2430.515	120.4
2434.289	120.4
2438.059	110.4
2441.825	121.4
2445.589	108.4
2449.349	113.4
2453.106	117.4
2456.859	111.4
2460.61	106.4
2464.356	115.4
2468.1	111.4
2471.84	105.4
2475.577	103.4
2479.311	100.4
2483.041	96.4
2486.768	100.4
2490.492	101.4
2494.213	98.4
2497.93	100.4
2501.644	102.4
2505.355	93.4
2509.062	101.4
2512.766	99.4
2516.467	96.4
2520.165	92.4
2523.859	94.4
2527.551	90.4
2531.239	86.4
2534.923	87.4
2538.605	86.4
2542.283	77.4
2545.958	89.4
2549.63	78.4
2553.299	77.4
2556.964	70.4
2560.626	75.4
2564.285	75.4
2567.941	71.4
2571.594	76.4
2575.243	76.4
2578.89	70.4
2582.533	70.4
2586.173	61.4
2589.809	72.4
2593.443	75.4
2597.073	68.4
2600.701	71.4
2604.325	64.4
2607.946	57.4
2611.564	67.4
2615.178	68.4
2618.79	73.4
2622.398	67.4
2626.004	64.4
2629.606	65.4
2633.205	65.4
2636.801	60.4
2640.394	66.4
2643.983	60.4
2647.57	57.4
2651.153	54.4
2654.734	49.4
2658.311	60.4
2661.885	53.4
2665.456	56.4
2669.025	58.4
2672.589	51.4
2676.151	55.4
2679.71	47.4
2683.266	51.4
2686.819	57.4
2690.368	53.4
2693.915	55.4
2697.458	51.4
2700.999	62.4
2704.536	49.4
2708.071	46.4
2711.602	42.4
2715.13	37.4
2718.656	38.4
2722.178	37.4
2725.697	41.4
2729.214	36.4
2732.727	43.4
2736.237	43.4
2739.744	36.4
2743.249	41.4
2746.75	34.4
2750.248	30.4
2753.743	33.4
2757.236	30.4
2760.725	40.4
2764.211	28.4
2767.695	30.4
2771.175	24.4
2774.652	29.4
2778.127	33.4
2781.598	29.4
2785.067	26.4
2788.532	26.4
2791.995	31.4
2795.455	28.4
2798.911	31.4
2802.365	35.4
2805.816	34.4
2809.264	31.4
2812.709	18.4
2816.151	32.4
2819.59	38.4
2823.026	34.4
2826.46	29.4
2829.89	31.4
2833.318	21.4
2836.742	35.4
2840.164	32.4
2843.583	31.4
2846.999	34.4
2850.412	31.4
2853.822	37.4
2857.229	36.4
2860.634	24.4
2864.035	36.4
2867.434	36.4
2870.83	40.4
2874.223	45.4
2877.613	40.4
2881	40.4
2884.385	49.4
2887.766	46.4
2891.145	39.4
2894.521	41.4
2897.894	45.4
2901.264	44.4
2904.631	37.4
2907.996	42.4
2911.358	51.4
2914.717	49.4
2918.073	49.4
2921.426	52.4
2924.777	57.4
2928.124	57.4
2931.469	57.4
2934.811	63.4
2938.15	63.4
2941.487	68.4
2944.821	59.4
2948.152	65.4
2951.48	67.4
2954.805	65.4
2958.128	62.4
2961.447	59.4
2964.765	59.4
2968.079	51.4
2971.39	54.4
2974.699	51.4
2978.005	64.4
2981.308	61.4
2984.609	51.4
2987.907	56.4
2991.202	58.4
2994.494	58.4
2997.784	55.4
3001.07	61.4
3004.355	59.4
3007.636	64.4
3010.915	62.4
3014.191	59.4
3017.464	62.4
3020.734	68.4
3024.002	68.4
3027.267	71.4
3030.53	77.4
3033.789	69.4
3037.046	69.4
3040.301	71.4
3043.552	79.4
3046.801	76.4
3050.048	80.4
3053.291	89.4
3056.532	85.4
3059.771	90.4
3063.006	94.4
3066.239	98.4
3069.469	105.4
3072.697	107.4
3075.922	117.4
3079.144	108.4
3082.364	121.4
3085.581	124.4
3088.795	128.4
3092.007	131.4
3095.216	133.4
3098.423	130.4
3101.627	123.4
3104.828	139.4
3108.026	147.4
3111.222	146.4
3114.416	150.4
3117.607	151.4
3120.795	150.4
3123.98	157.4
3127.163	166.4
3130.344	168.4
3133.521	161.4
3136.696	171.4
3139.869	179.4
3143.039	179.4
3146.206	179.4
3149.371	187.4
3152.533	192.4
3155.693	193.4
3158.85	189.4
3162.005	190.4
3165.157	195.4
3168.306	195.4
3171.453	193.4
3174.597	192.4
3177.739	193.4
3180.878	197.4
3184.014	185.4
3187.149	200.4
3190.28	198.4
3193.409	201.4
3196.536	193.4
3199.659	200.4
3202.781	195.4
3205.9	191.4
3209.016	200.4
3212.13	202.4
3215.241	195.4
3218.35	199.4
3221.456	192.4
3224.56	187.4
3227.661	193.4
3230.76	184.4
3233.856	183.4
3236.95	169.4
3240.041	171.4
3243.13	177.4
3246.216	165.4
3249.3	160.4
3252.382	167.4
3255.46	161.4
3258.537	157.4
3261.611	149.4
3264.682	149.4
3267.751	154.4
3270.818	149.4
3273.882	146.4
3276.943	150.4
3280.002	150.4
3283.059	159.4
3286.113	145.4
3289.165	142.4
3292.214	145.4
3295.261	140.4
3298.306	141.4
3301.348	143.4
3304.387	141.4
3307.425	141.4
3310.459	128.4
3313.492	132.4
3316.521	135.4
3319.549	141.4
3322.574	131.4
3325.597	135.4
3328.617	141.4
3331.635	137.4
3334.65	143.4
3337.663	126.4
3340.674	137.4
3343.682	141.4
3346.688	130.4
3349.691	137.4
3352.692	133.4
3355.691	140.4
3358.687	133.4
3361.681	129.4
3364.673	135.4
3367.662	129.4
3370.649	118.4
3373.633	121.4
3376.615	117.4
3379.595	119.4
3382.572	120.4
3385.547	116.4
3388.52	116.4
3391.49	105.4
3394.458	109.4
3397.424	109.4
3400.387	115.4
3403.348	112.4
3406.307	97.4
3409.263	108.4
3412.217	101.4
3415.168	110.4
3418.118	100.4
3421.065	93.4
3424.009	97.4
3426.951	94.4
3429.891	89.4
3432.829	85.4
3435.764	85.4
3438.697	84.4
3441.628	73.4
3444.557	78.4
3447.483	68.4
3450.407	60.4
3453.328	76.4
3456.247	64.4
3459.164	66.4
3462.079	56.4
3464.991	59.4
3467.902	52.4
3470.809	49.4
3473.715	42.4
3476.618	50.4
3479.519	40.4
3482.418	38.4
3485.315	40.4
3488.209	33.4
3491.101	25.4
3493.99	26.4
3496.878	25.4
3499.763	17.4
3502.646	24.4
3505.527	20.4
3508.405	18.4
3511.281	14.4
3514.155	13.4
3517.027	4.4
3519.897	18.4
3522.764	5.4
3525.629	7.4
3528.492	4.4
3531.352	-1.6
3534.211	-0.6
3537.067	-0.6
3539.921	-0.6
3542.773	-10.6
3545.622	-8.6
3548.469	-8.6
3551.315	-8.6
3554.157	-13.6
3556.998	-17.6
3559.837	-13.6
3562.673	-13.6
3565.507	-18.6
3568.339	-11.6
3571.169	-19.6
3573.996	-16.6
3576.822	-22.6
3579.645	-20.6
3582.466	-19.6
3585.285	-17.6
3588.101	-26.6
3590.916	-21.6
3593.728	-25.6
3596.538	-31.6
3599.346	-26.6
3602.152	-27.6
3604.956	-29.6
3607.757	-23.6
3610.556	-31.6
3613.354	-32.6
3616.149	-33.6
3618.942	-36.6
3621.732	-36.6
3624.521	-33.6
3627.307	-28.6
3630.092	-36.6
3632.874	-33.6
3635.654	-36.6
3638.432	-33.6
3641.208	-38.6
3643.982	-35.6
3646.753	-36.6
3649.523	-30.6
3652.29	-38.6
3655.055	-37.6
3657.818	-38.6
3660.579	-42.6
3663.338	-36.6
3666.095	-39.6
3668.849	-42.6
3671.602	-39.6
3674.352	-39.6
3677.101	-39.6
3679.847	-43.6
3682.591	-48.6
3685.333	-44.6
3688.073	-46.6
3690.811	-41.6
3693.547	-47.6
3696.281	-37.6
3699.013	-41.6
3701.742	-46.6
3704.47	-41.6
3707.195	-45.6
3709.919	-44.6
3712.64	-43.6
3715.359	-46.6
3718.076	-46.6
3720.792	-43.6
3723.505	-51.6
3726.216	-41.6
3728.925	-49.6
3731.632	-45.6
3734.336	-52.6
3737.039	-48.6
3739.74	-53.6
3742.439	-54.6
3745.136	-50.6
3747.83	-50.6
3750.523	-53.6
3753.213	-47.6
3755.902	-48.6
3758.589	-49.6
3761.273	-46.6
3763.956	-43.6
3766.636	-43.6
3769.315	-39.6
3771.991	-48.6
3774.665	-54.6
3777.338	-51.6
3780.008	-46.6
3782.677	-54.6
3785.343	-50.6
3788.007	-46.6
3790.67	-46.6
3793.33	-50.6
3795.989	-55.6
3798.645	-52.6
3801.299	-51.6
3803.952	-49.6
3806.602	-50.6
3809.251	-54.6
3811.897	-53.6
3814.542	-55.6
3817.184	-54.6
3819.825	-45.6
3822.463	-50.6
3825.1	-48.6
3827.735	-58.6
3830.367	-47.6
3832.998	-53.6
3835.627	-54.6
3838.253	-51.6
3840.878	-41.6
3843.501	-44.6
3846.122	-52.6
3848.741	-51.6
3851.358	-49.6
3853.973	-47.6
3856.586	-49.6
3859.197	-47.6
3861.806	-49.6
3864.414	-51.6
3867.019	-55.6
3869.622	-45.6
3872.224	-40.6
3874.823	-33.6
3877.421	-21.6
3880.016	-13.6
3882.61	0.4
3885.202	-5.6
3887.792	-1.6
3890.38	-25.6
3892.966	-38.6
3895.55	-43.6
3898.132	-48.6
3900.713	-48.6
3903.291	-53.6
3905.868	-45.6
3908.442	-48.6
3911.015	-49.6
3913.586	-54.6
3916.155	-51.6
3918.722	-52.6
3921.287	-55.6
3923.85	-48.6
3926.411	-58.6
3928.971	-63.6
3931.528	-57.6
3934.084	-49.6
3936.638	-56.6
3939.19	-55.6
3941.74	-50.6
3944.288	-52.6
3946.834	-51.6
3949.378	-53.6
3951.921	-50.6
3954.462	-49.6
3957	-45.6
3959.537	-45.6
3962.072	-47.6
3964.606	-49.6
3967.137	-47.6
3969.667	-50.6
3972.194	-48.6
3974.72	-51.6
3977.244	-50.6
3979.766	-53.6
3982.286	-54.6
3984.805	-62.6
3987.321	-52.6
3989.836	-47.6
3992.349	-53.6
3994.86	-53.6
3997.369	-53.6
3999.877	-56.6
4002.382	-54.6
4004.886	-46.6
4007.388	-54.6
4009.888	-45.6
4012.386	-48.6
4014.883	-47.6
4017.377	-47.6
4019.87	-46.6
4022.361	-56.6
4024.85	-49.6
4027.338	-50.6
4029.823	-50.6
4032.307	-55.6
4034.789	-46.6
4037.269	-51.6
4039.747	-53.6
4042.224	-55.6
4044.699	-52.6
4047.172	-55.6
4049.643	-50.6
4052.112	-51.6
4054.58	-57.6
4057.046	-47.6
4059.51	-54.6
4061.972	-53.6
4064.432	-46.6
4066.891	-47.6
4069.348	-49.6
4071.803	-47.6
4074.256	-50.6
4076.708	-46.6
4079.158	-55.6
4081.606	-48.6
4084.052	-49.6
4086.497	-48.6
4088.939	-47.6
4091.38	-53.6
4093.819	-54.6
4096.257	-53.6
4098.693	-54.6
4101.127	-47.6
4103.559	-54.6
4105.989	11.4
4108.418	6.4
4110.845	1.4
4113.27	5.4
4115.694	6.4
4118.115	5.4
4120.535	-54.6
4122.954	-51.6
4125.37	-52.6
4127.785	-50.6
4130.198	-52.6
4132.609	-54.6
4135.019	-57.6
4137.427	-56.6
4139.833	-54.6
4142.237	-57.6
