Data from 2018-3-7_conc=3_n=10_RamanShift_05.txt Node
Date: Wed Mar 07 11:47:22 IST 2018
User: aro
Spectrometer: QEPB0276
Trigger mode: 0
Integration Time (sec): 3.000000E1
Scans to average: 1
Electric dark correction enabled: true
Nonlinearity correction enabled: false
Boxcar width: 0
XAxis mode: Raman Shifts
Number of Pixels in Spectrum: 1044
>>>>>Begin Spectral Data<<<<<
160.701	15.8
166.742	23.8
172.777	46.8
178.805	130.8
184.826	346.8
190.841	731.8
196.849	1194.8
202.85	1561.8
208.845	1718.8
214.833	1718.8
220.815	1689.8
226.789	1688.8
232.758	1697.8
238.719	1719.8
244.674	1695.8
250.623	1674.8
256.565	1665.8
262.5	1627.8
268.429	1637.8
274.351	1603.8
280.267	1577.8
286.176	1613.8
292.079	1612.8
297.975	1602.8
303.865	1607.8
309.748	1606.8
315.625	1630.8
321.495	1601.8
327.359	1605.8
333.217	1591.8
339.068	1616.8
344.912	1613.8
350.751	1602.8
356.583	1620.8
362.408	1603.8
368.227	1641.8
374.04	1650.8
379.847	1654.8
385.647	1647.8
391.44	1663.8
397.228	1665.8
403.009	1659.8
408.784	1691.8
414.553	1697.8
420.315	1690.8
426.071	1676.8
431.821	1687.8
437.565	1701.8
443.302	1682.8
449.033	1677.8
454.758	1657.8
460.477	1647.8
466.189	1638.8
471.896	1624.8
477.596	1627.8
483.29	1598.8
488.978	1615.8
494.66	1607.8
500.335	1571.8
506.005	1527.8
511.668	1440.8
517.325	1420.8
522.977	1358.8
528.622	1318.8
534.261	1302.8
539.894	1274.8
545.521	1254.8
551.141	1233.8
556.756	1224.8
562.365	1222.8
567.968	1214.8
573.565	1219.8
579.155	1205.8
584.74	1208.8
590.319	1195.8
595.892	1197.8
601.459	1184.8
607.02	1175.8
612.575	1175.8
618.124	1151.8
623.667	1140.8
629.204	1135.8
634.735	1111.8
640.261	1120.8
645.781	1102.8
651.294	1106.8
656.802	1098.8
662.304	1091.8
667.8	1102.8
673.29	1098.8
678.775	1103.8
684.254	1085.8
689.726	1085.8
695.193	1073.8
700.655	1062.8
706.11	1064.8
711.56	1057.8
717.004	1041.8
722.442	1038.8
727.874	1030.8
733.301	1035.8
738.722	1024.8
744.137	1033.8
749.547	1011.8
754.951	1016.8
760.349	1029.8
765.741	1032.8
771.128	1009.8
776.509	1032.8
781.885	1064.8
787.254	1053.8
792.618	1058.8
797.977	1059.8
803.33	1035.8
808.677	1037.8
814.019	1031.8
819.355	1016.8
824.686	1016.8
830.011	997.8
835.33	994.8
840.644	996.8
845.952	1003.8
851.255	982.8
856.552	1005.8
861.844	981.8
867.13	966.8
872.41	981.8
877.686	971.8
882.955	955.8
888.219	965.8
893.478	935.8
898.731	912.8
903.979	902.8
909.221	898.8
914.458	880.8
919.69	889.8
924.916	889.8
930.136	905.8
935.351	897.8
940.561	896.8
945.766	899.8
950.965	902.8
956.158	889.8
961.347	882.8
966.529	880.8
971.707	849.8
976.879	846.8
982.046	842.8
987.208	828.8
992.364	830.8
997.515	830.8
1002.66	835.8
1007.801	844.8
1012.936	839.8
1018.066	859.8
1023.19	852.8
1028.309	854.8
1033.423	855.8
1038.532	846.8
1043.636	850.8
1048.734	839.8
1053.827	825.8
1058.915	829.8
1063.998	808.8
1069.075	815.8
1074.147	818.8
1079.214	796.8
1084.276	815.8
1089.333	822.8
1094.385	811.8
1099.431	801.8
1104.472	812.8
1109.509	806.8
1114.54	797.8
1119.565	795.8
1124.586	771.8
1129.602	767.8
1134.613	743.8
1139.618	760.8
1144.619	748.8
1149.614	757.8
1154.604	752.8
1159.589	775.8
1164.57	751.8
1169.545	766.8
1174.515	761.8
1179.48	751.8
1184.44	751.8
1189.395	743.8
1194.345	742.8
1199.29	732.8
1204.23	752.8
1209.165	736.8
1214.095	744.8
1219.021	743.8
1223.941	754.8
1228.856	759.8
1233.766	754.8
1238.672	746.8
1243.572	748.8
1248.467	754.8
1253.358	732.8
1258.244	718.8
1263.124	714.8
1268	702.8
1272.871	701.8
1277.737	681.8
1282.599	701.8
1287.455	695.8
1292.306	692.8
1297.153	688.8
1301.995	698.8
1306.832	702.8
1311.664	707.8
1316.491	701.8
1321.314	693.8
1326.132	691.8
1330.945	669.8
1335.753	665.8
1340.556	660.8
1345.354	635.8
1350.148	632.8
1354.937	622.8
1359.722	600.8
1364.501	598.8
1369.276	584.8
1374.046	571.8
1378.811	573.8
1383.572	572.8
1388.327	577.8
1393.079	566.8
1397.825	577.8
1402.567	572.8
1407.304	575.8
1412.036	568.8
1416.764	583.8
1421.487	579.8
1426.205	585.8
1430.919	572.8
1435.628	574.8
1440.333	595.8
1445.032	579.8
1449.727	601.8
1454.418	598.8
1459.104	588.8
1463.785	583.8
1468.462	568.8
1473.134	559.8
1477.802	539.8
1482.465	522.8
1487.123	513.8
1491.777	517.8
1496.426	512.8
1501.071	497.8
1505.711	485.8
1510.347	490.8
1514.978	476.8
1519.604	484.8
1524.226	489.8
1528.844	480.8
1533.457	490.8
1538.065	484.8
1542.669	479.8
1547.269	475.8
1551.864	473.8
1556.454	492.8
1561.041	502.8
1565.622	493.8
1570.199	503.8
1574.772	500.8
1579.34	508.8
1583.904	510.8
1588.464	528.8
1593.019	530.8
1597.569	532.8
1602.115	526.8
1606.657	522.8
1611.195	528.8
1615.728	512.8
1620.256	512.8
1624.78	508.8
1629.3	513.8
1633.816	511.8
1638.327	523.8
1642.834	500.8
1647.336	511.8
1651.834	509.8
1656.328	520.8
1660.817	511.8
1665.302	509.8
1669.783	492.8
1674.259	483.8
1678.732	479.8
1683.199	456.8
1687.663	435.8
1692.122	420.8
1696.577	397.8
1701.028	379.8
1705.474	361.8
1709.917	360.8
1714.355	342.8
1718.788	348.8
1723.218	343.8
1727.643	341.8
1732.064	344.8
1736.481	356.8
1740.893	346.8
1745.301	335.8
1749.705	321.8
1754.105	315.8
1758.501	300.8
1762.893	321.8
1767.28	292.8
1771.663	289.8
1776.042	286.8
1780.417	279.8
1784.787	288.8
1789.154	273.8
1793.516	258.8
1797.874	260.8
1802.228	258.8
1806.578	274.8
1810.924	257.8
1815.266	258.8
1819.603	261.8
1823.937	264.8
1828.266	256.8
1832.591	258.8
1836.913	262.8
1841.23	265.8
1845.543	255.8
1849.852	256.8
1854.156	266.8
1858.457	273.8
1862.754	264.8
1867.047	264.8
1871.335	265.8
1875.62	256.8
1879.9	260.8
1884.177	249.8
1888.449	250.8
1892.718	251.8
1896.982	248.8
1901.243	237.8
1905.499	242.8
1909.752	235.8
1914	231.8
1918.245	225.8
1922.485	221.8
1926.722	218.8
1930.954	209.8
1935.183	217.8
1939.408	213.8
1943.628	208.8
1947.845	207.8
1952.058	206.8
1956.267	202.8
1960.472	205.8
1964.673	197.8
1968.87	198.8
1973.063	198.8
1977.252	201.8
1981.438	202.8
1985.619	202.8
1989.797	206.8
1993.971	201.8
1998.14	205.8
2002.306	207.8
2006.469	211.8
2010.627	205.8
2014.781	204.8
2018.932	203.8
2023.078	204.8
2027.221	199.8
2031.36	198.8
2035.495	196.8
2039.627	186.8
2043.754	189.8
2047.878	185.8
2051.998	188.8
2056.114	177.8
2060.226	179.8
2064.334	180.8
2068.439	171.8
2072.54	186.8
2076.637	185.8
2080.73	181.8
2084.82	179.8
2088.906	170.8
2092.988	169.8
2097.066	166.8
2101.14	170.8
2105.211	163.8
2109.278	157.8
2113.342	161.8
2117.401	164.8
2121.457	159.8
2125.509	164.8
2129.558	155.8
2133.602	152.8
2137.643	164.8
2141.681	158.8
2145.714	154.8
2149.744	158.8
2153.77	158.8
2157.793	151.8
2161.812	160.8
2165.827	163.8
2169.838	146.8
2173.846	154.8
2177.851	148.8
2181.851	152.8
2185.848	143.8
2189.841	142.8
2193.831	142.8
2197.817	146.8
2201.799	142.8
2205.778	134.8
2209.753	148.8
2213.725	133.8
2217.693	139.8
2221.657	140.8
2225.618	136.8
2229.575	129.8
2233.529	127.8
2237.479	143.8
2241.425	129.8
2245.368	130.8
2249.307	133.8
2253.243	126.8
2257.175	127.8
2261.104	116.8
2265.029	125.8
2268.95	125.8
2272.868	118.8
2276.783	122.8
2280.694	110.8
2284.601	111.8
2288.505	112.8
2292.405	110.8
2296.302	120.8
2300.195	115.8
2304.085	103.8
2307.971	103.8
2311.854	102.8
2315.734	99.8
2319.609	108.8
2323.482	104.8
2327.351	107.8
2331.216	119.8
2335.078	131.8
2338.937	119.8
2342.792	108.8
2346.643	106.8
2350.492	106.8
2354.336	108.8
2358.178	92.8
2362.015	100.8
2365.85	105.8
2369.681	110.8
2373.508	106.8
2377.333	103.8
2381.153	100.8
2384.971	108.8
2388.785	99.8
2392.595	92.8
2396.402	102.8
2400.206	107.8
2404.007	107.8
2407.804	107.8
2411.597	100.8
2415.388	98.8
2419.174	101.8
2422.958	90.8
2426.738	98.8
2430.515	100.8
2434.289	99.8
2438.059	89.8
2441.825	94.8
2445.589	87.8
2449.349	84.8
2453.106	94.8
2456.859	83.8
2460.61	84.8
2464.356	94.8
2468.1	82.8
2471.84	88.8
2475.577	82.8
2479.311	81.8
2483.041	84.8
2486.768	85.8
2490.492	82.8
2494.213	77.8
2497.93	86.8
2501.644	80.8
2505.355	77.8
2509.062	63.8
2512.766	75.8
2516.467	70.8
2520.165	73.8
2523.859	77.8
2527.551	71.8
2531.239	71.8
2534.923	71.8
2538.605	62.8
2542.283	64.8
2545.958	68.8
2549.63	58.8
2553.299	64.8
2556.964	55.8
2560.626	64.8
2564.285	63.8
2567.941	52.8
2571.594	53.8
2575.243	60.8
2578.89	63.8
2582.533	52.8
2586.173	56.8
2589.809	63.8
2593.443	61.8
2597.073	58.8
2600.701	61.8
2604.325	46.8
2607.946	45.8
2611.564	53.8
2615.178	53.8
2618.79	51.8
2622.398	55.8
2626.004	48.8
2629.606	39.8
2633.205	46.8
2636.801	43.8
2640.394	47.8
2643.983	42.8
2647.57	44.8
2651.153	42.8
2654.734	42.8
2658.311	40.8
2661.885	47.8
2665.456	49.8
2669.025	46.8
2672.589	36.8
2676.151	46.8
2679.71	34.8
2683.266	31.8
2686.819	45.8
2690.368	34.8
2693.915	36.8
2697.458	29.8
2700.999	38.8
2704.536	42.8
2708.071	36.8
2711.602	31.8
2715.13	28.8
2718.656	32.8
2722.178	29.8
2725.697	25.8
2729.214	32.8
2732.727	32.8
2736.237	30.8
2739.744	26.8
2743.249	26.8
2746.75	25.8
2750.248	22.8
2753.743	18.8
2757.236	24.8
2760.725	19.8
2764.211	24.8
2767.695	17.8
2771.175	23.8
2774.652	19.8
2778.127	18.8
2781.598	14.8
2785.067	20.8
2788.532	18.8
2791.995	20.8
2795.455	21.8
2798.911	16.8
2802.365	22.8
2805.816	15.8
2809.264	19.8
2812.709	14.8
2816.151	19.8
2819.59	29.8
2823.026	17.8
2826.46	19.8
2829.89	18.8
2833.318	17.8
2836.742	24.8
2840.164	18.8
2843.583	26.8
2846.999	24.8
2850.412	20.8
2853.822	20.8
2857.229	19.8
2860.634	16.8
2864.035	21.8
2867.434	20.8
2870.83	32.8
2874.223	32.8
2877.613	30.8
2881	25.8
2884.385	32.8
2887.766	36.8
2891.145	28.8
2894.521	36.8
2897.894	31.8
2901.264	29.8
2904.631	26.8
2907.996	30.8
2911.358	37.8
2914.717	30.8
2918.073	28.8
2921.426	32.8
2924.777	39.8
2928.124	34.8
2931.469	43.8
2934.811	47.8
2938.15	46.8
2941.487	50.8
2944.821	41.8
2948.152	46.8
2951.48	40.8
2954.805	44.8
2958.128	42.8
2961.447	44.8
2964.765	39.8
2968.079	36.8
2971.39	39.8
2974.699	34.8
2978.005	43.8
2981.308	37.8
2984.609	39.8
2987.907	42.8
2991.202	43.8
2994.494	42.8
2997.784	39.8
3001.07	40.8
3004.355	43.8
3007.636	41.8
3010.915	43.8
3014.191	40.8
3017.464	40.8
3020.734	48.8
3024.002	48.8
3027.267	44.8
3030.53	51.8
3033.789	45.8
3037.046	49.8
3040.301	45.8
3043.552	56.8
3046.801	54.8
3050.048	59.8
3053.291	63.8
3056.532	60.8
3059.771	64.8
3063.006	66.8
3066.239	68.8
3069.469	74.8
3072.697	72.8
3075.922	82.8
3079.144	70.8
3082.364	85.8
3085.581	81.8
3088.795	90.8
3092.007	87.8
3095.216	98.8
3098.423	94.8
3101.627	90.8
3104.828	99.8
3108.026	100.8
3111.222	102.8
3114.416	112.8
3117.607	110.8
3120.795	115.8
3123.98	114.8
3127.163	119.8
3130.344	115.8
3133.521	118.8
3136.696	124.8
3139.869	127.8
3143.039	133.8
3146.206	133.8
3149.371	125.8
3152.533	146.8
3155.693	142.8
3158.85	140.8
3162.005	144.8
3165.157	142.8
3168.306	138.8
3171.453	132.8
3174.597	141.8
3177.739	137.8
3180.878	146.8
3184.014	137.8
3187.149	145.8
3190.28	139.8
3193.409	145.8
3196.536	142.8
3199.659	145.8
3202.781	149.8
3205.9	148.8
3209.016	135.8
3212.13	144.8
3215.241	145.8
3218.35	137.8
3221.456	136.8
3224.56	131.8
3227.661	133.8
3230.76	135.8
3233.856	126.8
3236.95	120.8
3240.041	116.8
3243.13	127.8
3246.216	118.8
3249.3	110.8
3252.382	120.8
3255.46	123.8
3258.537	114.8
3261.611	110.8
3264.682	107.8
3267.751	116.8
3270.818	107.8
3273.882	113.8
3276.943	109.8
3280.002	111.8
3283.059	105.8
3286.113	99.8
3289.165	99.8
3292.214	99.8
3295.261	104.8
3298.306	103.8
3301.348	101.8
3304.387	96.8
3307.425	99.8
3310.459	92.8
3313.492	98.8
3316.521	94.8
3319.549	107.8
3322.574	101.8
3325.597	99.8
3328.617	97.8
3331.635	102.8
3334.65	98.8
3337.663	85.8
3340.674	90.8
3343.682	88.8
3346.688	89.8
3349.691	97.8
3352.692	98.8
3355.691	93.8
3358.687	90.8
3361.681	95.8
3364.673	87.8
3367.662	88.8
3370.649	95.8
3373.633	87.8
3376.615	92.8
3379.595	78.8
3382.572	80.8
3385.547	83.8
3388.52	79.8
3391.49	76.8
3394.458	73.8
3397.424	77.8
3400.387	71.8
3403.348	67.8
3406.307	63.8
3409.263	69.8
3412.217	66.8
3415.168	75.8
3418.118	62.8
3421.065	64.8
3424.009	62.8
3426.951	63.8
3429.891	52.8
3432.829	52.8
3435.764	54.8
3438.697	55.8
3441.628	45.8
3444.557	51.8
3447.483	47.8
3450.407	42.8
3453.328	46.8
3456.247	41.8
3459.164	35.8
3462.079	33.8
3464.991	32.8
3467.902	34.8
3470.809	28.8
3473.715	25.8
3476.618	19.8
3479.519	25.8
3482.418	21.8
3485.315	19.8
3488.209	8.8
3491.101	7.8
3493.99	13.8
3496.878	11.8
3499.763	5.8
3502.646	3.8
3505.527	4.8
3508.405	1.8
3511.281	4.8
3514.155	0.8
3517.027	-9.2
3519.897	2.8
3522.764	-0.2
3525.629	2.8
3528.492	-12.2
3531.352	-11.2
3534.211	-13.2
3537.067	-10.2
3539.921	-11.2
3542.773	-16.2
3545.622	-16.2
3548.469	-14.2
3551.315	-13.2
3554.157	-21.2
3556.998	-16.2
3559.837	-26.2
3562.673	-21.2
3565.507	-20.2
3568.339	-15.2
3571.169	-23.2
3573.996	-18.2
3576.822	-24.2
3579.645	-26.2
3582.466	-22.2
3585.285	-24.2
3588.101	-27.2
3590.916	-19.2
3593.728	-28.2
3596.538	-30.2
3599.346	-34.2
3602.152	-33.2
3604.956	-30.2
3607.757	-29.2
3610.556	-31.2
3613.354	-37.2
3616.149	-38.2
3618.942	-31.2
3621.732	-36.2
3624.521	-27.2
3627.307	-32.2
3630.092	-36.2
3632.874	-36.2
3635.654	-34.2
3638.432	-36.2
3641.208	-36.2
3643.982	-38.2
3646.753	-40.2
3649.523	-36.2
3652.29	-40.2
3655.055	-38.2
3657.818	-45.2
3660.579	-42.2
3663.338	-35.2
3666.095	-41.2
3668.849	-43.2
3671.602	-47.2
3674.352	-38.2
3677.101	-41.2
3679.847	-43.2
3682.591	-46.2
3685.333	-39.2
3688.073	-49.2
3690.811	-41.2
3693.547	-50.2
3696.281	-40.2
3699.013	-45.2
3701.742	-43.2
3704.47	-43.2
3707.195	-45.2
3709.919	-42.2
3712.64	-46.2
3715.359	-44.2
3718.076	-46.2
3720.792	-46.2
3723.505	-44.2
3726.216	-43.2
3728.925	-49.2
3731.632	-42.2
3734.336	-50.2
3737.039	-46.2
3739.74	-48.2
3742.439	-52.2
3745.136	-49.2
3747.83	-53.2
3750.523	-52.2
3753.213	-53.2
3755.902	-50.2
3758.589	-46.2
3761.273	-47.2
3763.956	-49.2
3766.636	-45.2
3769.315	-45.2
3771.991	-51.2
3774.665	-53.2
3777.338	-47.2
3780.008	-48.2
3782.677	-52.2
3785.343	-49.2
3788.007	-49.2
3790.67	-51.2
3793.33	-46.2
3795.989	-52.2
3798.645	-52.2
3801.299	-45.2
3803.952	-51.2
3806.602	-51.2
3809.251	-53.2
3811.897	-49.2
3814.542	-55.2
3817.184	-47.2
3819.825	-45.2
3822.463	-49.2
3825.1	-43.2
3827.735	-53.2
3830.367	-49.2
3832.998	-51.2
3835.627	-51.2
3838.253	-49.2
3840.878	-40.2
3843.501	-42.2
3846.122	-49.2
3848.741	-52.2
3851.358	-50.2
3853.973	-45.2
3856.586	-46.2
3859.197	-48.2
3861.806	-45.2
3864.414	-49.2
3867.019	-49.2
3869.622	-42.2
3872.224	-36.2
3874.823	-30.2
3877.421	-25.2
3880.016	-21.2
3882.61	-1.2
3885.202	-0.2
3887.792	1.8
3890.38	-19.2
3892.966	-36.2
3895.55	-42.2
3898.132	-43.2
3900.713	-51.2
3903.291	-53.2
3905.868	-47.2
3908.442	-45.2
3911.015	-48.2
3913.586	-50.2
3916.155	-50.2
3918.722	-52.2
3921.287	-51.2
3923.85	-46.2
3926.411	-54.2
3928.971	-59.2
3931.528	-53.2
3934.084	-51.2
3936.638	-46.2
3939.19	-53.2
3941.74	-48.2
3944.288	-51.2
3946.834	-49.2
3949.378	-47.2
3951.921	-49.2
3954.462	-53.2
3957	-49.2
3959.537	-43.2
3962.072	-47.2
3964.606	-48.2
3967.137	-52.2
3969.667	-52.2
3972.194	-51.2
3974.72	-44.2
3977.244	-44.2
3979.766	-50.2
3982.286	-48.2
3984.805	-51.2
3987.321	-48.2
3989.836	-46.2
3992.349	-47.2
3994.86	-51.2
3997.369	-52.2
3999.877	-52.2
4002.382	-50.2
4004.886	-47.2
4007.388	-53.2
4009.888	-47.2
4012.386	-51.2
4014.883	-44.2
4017.377	-43.2
4019.87	-50.2
4022.361	-54.2
4024.85	-43.2
4027.338	-49.2
4029.823	-49.2
4032.307	-53.2
4034.789	-45.2
4037.269	-48.2
4039.747	-50.2
4042.224	-53.2
4044.699	-51.2
4047.172	-52.2
4049.643	-49.2
4052.112	-45.2
4054.58	-49.2
4057.046	-42.2
4059.51	-49.2
4061.972	-55.2
4064.432	-50.2
4066.891	-45.2
4069.348	-41.2
4071.803	-47.2
4074.256	-46.2
4076.708	-52.2
4079.158	-55.2
4081.606	-45.2
4084.052	-49.2
4086.497	-48.2
4088.939	-51.2
4091.38	-54.2
4093.819	-56.2
4096.257	-52.2
4098.693	-49.2
4101.127	-46.2
4103.559	-54.2
4105.989	20.8
4108.418	23.8
4110.845	13.8
4113.27	17.8
4115.694	13.8
4118.115	16.8
4120.535	-48.2
4122.954	-44.2
4125.37	-45.2
4127.785	-49.2
4130.198	-52.2
4132.609	-50.2
4135.019	-53.2
4137.427	-54.2
4139.833	-53.2
4142.237	-56.2
