Data from 2018-3-7_conc=5_n=9_RamanShift_05.txt Node
Date: Wed Mar 07 12:52:22 IST 2018
User: aro
Spectrometer: QEPB0276
Trigger mode: 0
Integration Time (sec): 3.000000E1
Scans to average: 1
Electric dark correction enabled: true
Nonlinearity correction enabled: false
Boxcar width: 0
XAxis mode: Raman Shifts
Number of Pixels in Spectrum: 1044
>>>>>Begin Spectral Data<<<<<
160.701	2.8
166.742	20.8
172.777	71.8
178.805	258.8
184.826	700.8
190.841	1551.8
196.849	2620.8
202.85	3463.8
208.845	3788.8
214.833	3805.8
220.815	3692.8
226.789	3715.8
232.758	3698.8
238.719	3691.8
244.674	3673.8
250.623	3625.8
256.565	3546.8
262.5	3495.8
268.429	3471.8
274.351	3416.8
280.267	3393.8
286.176	3365.8
292.079	3353.8
297.975	3336.8
303.865	3318.8
309.748	3309.8
315.625	3297.8
321.495	3286.8
327.359	3281.8
333.217	3281.8
339.068	3277.8
344.912	3270.8
350.751	3290.8
356.583	3280.8
362.408	3257.8
368.227	3264.8
374.04	3280.8
379.847	3262.8
385.647	3268.8
391.44	3291.8
397.228	3303.8
403.009	3337.8
408.784	3331.8
414.553	3327.8
420.315	3326.8
426.071	3336.8
431.821	3355.8
437.565	3338.8
443.302	3343.8
449.033	3334.8
454.758	3315.8
460.477	3320.8
466.189	3292.8
471.896	3248.8
477.596	3266.8
483.29	3258.8
488.978	3241.8
494.66	3245.8
500.335	3209.8
506.005	3147.8
511.668	3110.8
517.325	3032.8
522.977	2997.8
528.622	2941.8
534.261	2950.8
539.894	2917.8
545.521	2892.8
551.141	2871.8
556.756	2873.8
562.365	2844.8
567.968	2830.8
573.565	2822.8
579.155	2821.8
584.74	2793.8
590.319	2773.8
595.892	2754.8
601.459	2748.8
607.02	2742.8
612.575	2735.8
618.124	2712.8
623.667	2704.8
629.204	2685.8
634.735	2651.8
640.261	2650.8
645.781	2635.8
651.294	2625.8
656.802	2606.8
662.304	2636.8
667.8	2612.8
673.29	2614.8
678.775	2590.8
684.254	2604.8
689.726	2585.8
695.193	2555.8
700.655	2553.8
706.11	2555.8
711.56	2543.8
717.004	2502.8
722.442	2508.8
727.874	2472.8
733.301	2480.8
738.722	2468.8
744.137	2455.8
749.547	2465.8
754.951	2457.8
760.349	2469.8
765.741	2457.8
771.128	2451.8
776.509	2479.8
781.885	2495.8
787.254	2465.8
792.618	2458.8
797.977	2440.8
803.33	2422.8
808.677	2447.8
814.019	2402.8
819.355	2402.8
824.686	2370.8
830.011	2369.8
835.33	2391.8
840.644	2368.8
845.952	2369.8
851.255	2357.8
856.552	2391.8
861.844	2350.8
867.13	2351.8
872.41	2341.8
877.686	2333.8
882.955	2321.8
888.219	2297.8
893.478	2279.8
898.731	2248.8
903.979	2221.8
909.221	2207.8
914.458	2194.8
919.69	2209.8
924.916	2216.8
930.136	2215.8
935.351	2209.8
940.561	2227.8
945.766	2206.8
950.965	2196.8
956.158	2189.8
961.347	2163.8
966.529	2120.8
971.707	2098.8
976.879	2081.8
982.046	2054.8
987.208	2058.8
992.364	2041.8
997.515	2071.8
1002.66	2076.8
1007.801	2090.8
1012.936	2107.8
1018.066	2112.8
1023.19	2104.8
1028.309	2117.8
1033.423	2102.8
1038.532	2090.8
1043.636	2062.8
1048.734	2036.8
1053.827	2032.8
1058.915	2002.8
1063.998	1982.8
1069.075	1975.8
1074.147	1969.8
1079.214	1983.8
1084.276	2002.8
1089.333	1996.8
1094.385	2025.8
1099.431	1993.8
1104.472	2006.8
1109.509	2009.8
1114.54	1949.8
1119.565	1963.8
1124.586	1925.8
1129.602	1916.8
1134.613	1880.8
1139.618	1877.8
1144.619	1891.8
1149.614	1883.8
1154.604	1870.8
1159.589	1881.8
1164.57	1895.8
1169.545	1894.8
1174.515	1894.8
1179.48	1879.8
1184.44	1849.8
1189.395	1855.8
1194.345	1841.8
1199.29	1818.8
1204.23	1821.8
1209.165	1841.8
1214.095	1845.8
1219.021	1852.8
1223.941	1847.8
1228.856	1869.8
1233.766	1885.8
1238.672	1884.8
1243.572	1880.8
1248.467	1868.8
1253.358	1857.8
1258.244	1825.8
1263.124	1789.8
1268	1768.8
1272.871	1744.8
1277.737	1721.8
1282.599	1719.8
1287.455	1729.8
1292.306	1706.8
1297.153	1732.8
1301.995	1752.8
1306.832	1746.8
1311.664	1763.8
1316.491	1758.8
1321.314	1770.8
1326.132	1740.8
1330.945	1717.8
1335.753	1687.8
1340.556	1662.8
1345.354	1634.8
1350.148	1577.8
1354.937	1559.8
1359.722	1481.8
1364.501	1435.8
1369.276	1413.8
1374.046	1394.8
1378.811	1389.8
1383.572	1371.8
1388.327	1399.8
1393.079	1419.8
1397.825	1437.8
1402.567	1435.8
1407.304	1447.8
1412.036	1451.8
1416.764	1453.8
1421.487	1444.8
1426.205	1448.8
1430.919	1463.8
1435.628	1480.8
1440.333	1490.8
1445.032	1480.8
1449.727	1508.8
1454.418	1515.8
1459.104	1486.8
1463.785	1462.8
1468.462	1429.8
1473.134	1397.8
1477.802	1354.8
1482.465	1314.8
1487.123	1280.8
1491.777	1247.8
1496.426	1228.8
1501.071	1209.8
1505.711	1210.8
1510.347	1192.8
1514.978	1196.8
1519.604	1177.8
1524.226	1162.8
1528.844	1166.8
1533.457	1171.8
1538.065	1168.8
1542.669	1174.8
1547.269	1178.8
1551.864	1197.8
1556.454	1188.8
1561.041	1230.8
1565.622	1236.8
1570.199	1245.8
1574.772	1243.8
1579.34	1276.8
1583.904	1302.8
1588.464	1327.8
1593.019	1317.8
1597.569	1325.8
1602.115	1322.8
1606.657	1318.8
1611.195	1309.8
1615.728	1307.8
1620.256	1308.8
1624.78	1292.8
1629.3	1301.8
1633.816	1297.8
1638.327	1306.8
1642.834	1293.8
1647.336	1287.8
1651.834	1302.8
1656.328	1277.8
1660.817	1276.8
1665.302	1250.8
1669.783	1222.8
1674.259	1190.8
1678.732	1173.8
1683.199	1102.8
1687.663	1069.8
1692.122	988.8
1696.577	926.8
1701.028	864.8
1705.474	831.8
1709.917	819.8
1714.355	814.8
1718.788	815.8
1723.218	841.8
1727.643	836.8
1732.064	843.8
1736.481	848.8
1740.893	822.8
1745.301	813.8
1749.705	796.8
1754.105	778.8
1758.501	756.8
1762.893	755.8
1767.28	734.8
1771.663	726.8
1776.042	717.8
1780.417	691.8
1784.787	673.8
1789.154	646.8
1793.516	623.8
1797.874	612.8
1802.228	601.8
1806.578	591.8
1810.924	597.8
1815.266	602.8
1819.603	613.8
1823.937	626.8
1828.266	631.8
1832.591	639.8
1836.913	644.8
1841.23	640.8
1845.543	639.8
1849.852	652.8
1854.156	641.8
1858.457	652.8
1862.754	654.8
1867.047	652.8
1871.335	650.8
1875.62	645.8
1879.9	643.8
1884.177	614.8
1888.449	627.8
1892.718	604.8
1896.982	586.8
1901.243	564.8
1905.499	564.8
1909.752	544.8
1914	538.8
1918.245	523.8
1922.485	509.8
1926.722	496.8
1930.954	486.8
1935.183	497.8
1939.408	477.8
1943.628	478.8
1947.845	469.8
1952.058	467.8
1956.267	466.8
1960.472	464.8
1964.673	460.8
1968.87	455.8
1973.063	468.8
1977.252	474.8
1981.438	477.8
1985.619	467.8
1989.797	468.8
1993.971	497.8
1998.14	491.8
2002.306	503.8
2006.469	505.8
2010.627	510.8
2014.781	515.8
2018.932	513.8
2023.078	509.8
2027.221	507.8
2031.36	489.8
2035.495	490.8
2039.627	472.8
2043.754	479.8
2047.878	467.8
2051.998	461.8
2056.114	454.8
2060.226	455.8
2064.334	439.8
2068.439	427.8
2072.54	428.8
2076.637	427.8
2080.73	424.8
2084.82	410.8
2088.906	412.8
2092.988	417.8
2097.066	412.8
2101.14	394.8
2105.211	383.8
2109.278	386.8
2113.342	381.8
2117.401	370.8
2121.457	378.8
2125.509	378.8
2129.558	383.8
2133.602	384.8
2137.643	390.8
2141.681	380.8
2145.714	394.8
2149.744	391.8
2153.77	396.8
2157.793	396.8
2161.812	397.8
2165.827	386.8
2169.838	383.8
2173.846	376.8
2177.851	373.8
2181.851	387.8
2185.848	370.8
2189.841	382.8
2193.831	366.8
2197.817	365.8
2201.799	370.8
2205.778	365.8
2209.753	380.8
2213.725	372.8
2217.693	380.8
2221.657	375.8
2225.618	372.8
2229.575	365.8
2233.529	367.8
2237.479	360.8
2241.425	359.8
2245.368	349.8
2249.307	348.8
2253.243	343.8
2257.175	344.8
2261.104	338.8
2265.029	328.8
2268.95	337.8
2272.868	317.8
2276.783	310.8
2280.694	309.8
2284.601	311.8
2288.505	311.8
2292.405	319.8
2296.302	318.8
2300.195	306.8
2304.085	304.8
2307.971	308.8
2311.854	303.8
2315.734	296.8
2319.609	298.8
2323.482	283.8
2327.351	290.8
2331.216	290.8
2335.078	311.8
2338.937	301.8
2342.792	295.8
2346.643	297.8
2350.492	296.8
2354.336	293.8
2358.178	295.8
2362.015	298.8
2365.85	295.8
2369.681	307.8
2373.508	315.8
2377.333	306.8
2381.153	303.8
2384.971	303.8
2388.785	301.8
2392.595	301.8
2396.402	306.8
2400.206	297.8
2404.007	294.8
2407.804	295.8
2411.597	296.8
2415.388	294.8
2419.174	296.8
2422.958	294.8
2426.738	290.8
2430.515	293.8
2434.289	295.8
2438.059	281.8
2441.825	273.8
2445.589	277.8
2449.349	275.8
2453.106	281.8
2456.859	268.8
2460.61	267.8
2464.356	273.8
2468.1	256.8
2471.84	254.8
2475.577	254.8
2479.311	247.8
2483.041	255.8
2486.768	257.8
2490.492	252.8
2494.213	244.8
2497.93	251.8
2501.644	245.8
2505.355	235.8
2509.062	231.8
2512.766	241.8
2516.467	224.8
2520.165	228.8
2523.859	224.8
2527.551	212.8
2531.239	211.8
2534.923	197.8
2538.605	192.8
2542.283	191.8
2545.958	202.8
2549.63	197.8
2553.299	197.8
2556.964	188.8
2560.626	192.8
2564.285	182.8
2567.941	176.8
2571.594	174.8
2575.243	193.8
2578.89	172.8
2582.533	167.8
2586.173	171.8
2589.809	167.8
2593.443	175.8
2597.073	171.8
2600.701	173.8
2604.325	161.8
2607.946	164.8
2611.564	172.8
2615.178	165.8
2618.79	168.8
2622.398	162.8
2626.004	163.8
2629.606	162.8
2633.205	164.8
2636.801	155.8
2640.394	176.8
2643.983	163.8
2647.57	166.8
2651.153	157.8
2654.734	163.8
2658.311	156.8
2661.885	154.8
2665.456	158.8
2669.025	152.8
2672.589	151.8
2676.151	140.8
2679.71	142.8
2683.266	138.8
2686.819	146.8
2690.368	142.8
2693.915	136.8
2697.458	132.8
2700.999	145.8
2704.536	134.8
2708.071	132.8
2711.602	127.8
2715.13	120.8
2718.656	123.8
2722.178	121.8
2725.697	118.8
2729.214	112.8
2732.727	114.8
2736.237	115.8
2739.744	101.8
2743.249	100.8
2746.75	101.8
2750.248	87.8
2753.743	92.8
2757.236	85.8
2760.725	81.8
2764.211	82.8
2767.695	73.8
2771.175	67.8
2774.652	71.8
2778.127	79.8
2781.598	75.8
2785.067	77.8
2788.532	75.8
2791.995	85.8
2795.455	86.8
2798.911	83.8
2802.365	85.8
2805.816	87.8
2809.264	82.8
2812.709	89.8
2816.151	97.8
2819.59	99.8
2823.026	93.8
2826.46	89.8
2829.89	82.8
2833.318	82.8
2836.742	87.8
2840.164	80.8
2843.583	92.8
2846.999	93.8
2850.412	94.8
2853.822	88.8
2857.229	89.8
2860.634	88.8
2864.035	89.8
2867.434	97.8
2870.83	110.8
2874.223	106.8
2877.613	108.8
2881	112.8
2884.385	114.8
2887.766	113.8
2891.145	113.8
2894.521	114.8
2897.894	124.8
2901.264	124.8
2904.631	117.8
2907.996	117.8
2911.358	127.8
2914.717	122.8
2918.073	121.8
2921.426	124.8
2924.777	133.8
2928.124	138.8
2931.469	142.8
2934.811	153.8
2938.15	149.8
2941.487	161.8
2944.821	146.8
2948.152	149.8
2951.48	147.8
2954.805	149.8
2958.128	146.8
2961.447	146.8
2964.765	134.8
2968.079	132.8
2971.39	139.8
2974.699	132.8
2978.005	135.8
2981.308	132.8
2984.609	132.8
2987.907	130.8
2991.202	131.8
2994.494	130.8
2997.784	127.8
3001.07	127.8
3004.355	129.8
3007.636	139.8
3010.915	137.8
3014.191	141.8
3017.464	142.8
3020.734	153.8
3024.002	155.8
3027.267	157.8
3030.53	158.8
3033.789	167.8
3037.046	158.8
3040.301	164.8
3043.552	176.8
3046.801	180.8
3050.048	179.8
3053.291	196.8
3056.532	204.8
3059.771	209.8
3063.006	207.8
3066.239	220.8
3069.469	232.8
3072.697	231.8
3075.922	243.8
3079.144	248.8
3082.364	245.8
3085.581	262.8
3088.795	267.8
3092.007	274.8
3095.216	271.8
3098.423	276.8
3101.627	274.8
3104.828	282.8
3108.026	294.8
3111.222	293.8
3114.416	286.8
3117.607	310.8
3120.795	309.8
3123.98	319.8
3127.163	330.8
3130.344	332.8
3133.521	336.8
3136.696	343.8
3139.869	360.8
3143.039	354.8
3146.206	361.8
3149.371	365.8
3152.533	370.8
3155.693	385.8
3158.85	384.8
3162.005	392.8
3165.157	379.8
3168.306	390.8
3171.453	386.8
3174.597	396.8
3177.739	392.8
3180.878	393.8
3184.014	386.8
3187.149	394.8
3190.28	399.8
3193.409	396.8
3196.536	403.8
3199.659	405.8
3202.781	402.8
3205.9	407.8
3209.016	399.8
3212.13	403.8
3215.241	405.8
3218.35	393.8
3221.456	390.8
3224.56	382.8
3227.661	379.8
3230.76	367.8
3233.856	368.8
3236.95	358.8
3240.041	348.8
3243.13	347.8
3246.216	342.8
3249.3	331.8
3252.382	335.8
3255.46	317.8
3258.537	310.8
3261.611	313.8
3264.682	311.8
3267.751	313.8
3270.818	306.8
3273.882	311.8
3276.943	306.8
3280.002	316.8
3283.059	307.8
3286.113	303.8
3289.165	292.8
3292.214	294.8
3295.261	307.8
3298.306	300.8
3301.348	295.8
3304.387	278.8
3307.425	292.8
3310.459	284.8
3313.492	288.8
3316.521	283.8
3319.549	292.8
3322.574	282.8
3325.597	276.8
3328.617	279.8
3331.635	286.8
3334.65	299.8
3337.663	264.8
3340.674	287.8
3343.682	274.8
3346.688	277.8
3349.691	288.8
3352.692	277.8
3355.691	281.8
3358.687	271.8
3361.681	273.8
3364.673	267.8
3367.662	270.8
3370.649	260.8
3373.633	253.8
3376.615	252.8
3379.595	246.8
3382.572	247.8
3385.547	244.8
3388.52	237.8
3391.49	230.8
3394.458	222.8
3397.424	231.8
3400.387	224.8
3403.348	224.8
3406.307	216.8
3409.263	216.8
3412.217	220.8
3415.168	210.8
3418.118	205.8
3421.065	196.8
3424.009	200.8
3426.951	199.8
3429.891	195.8
3432.829	183.8
3435.764	178.8
3438.697	175.8
3441.628	168.8
3444.557	158.8
3447.483	152.8
3450.407	140.8
3453.328	144.8
3456.247	138.8
3459.164	129.8
3462.079	119.8
3464.991	115.8
3467.902	108.8
3470.809	106.8
3473.715	98.8
3476.618	100.8
3479.519	93.8
3482.418	88.8
3485.315	85.8
3488.209	78.8
3491.101	75.8
3493.99	76.8
3496.878	61.8
3499.763	60.8
3502.646	59.8
3505.527	48.8
3508.405	51.8
3511.281	48.8
3514.155	39.8
3517.027	31.8
3519.897	38.8
3522.764	22.8
3525.629	19.8
3528.492	21.8
3531.352	16.8
3534.211	8.8
3537.067	9.8
3539.921	3.8
3542.773	-4.2
3545.622	2.8
3548.469	-1.2
3551.315	-0.2
3554.157	-12.2
3556.998	-8.2
3559.837	-13.2
3562.673	-13.2
3565.507	-11.2
3568.339	-15.2
3571.169	-21.2
3573.996	-19.2
3576.822	-37.2
3579.645	-29.2
3582.466	-35.2
3585.285	-33.2
3588.101	-34.2
3590.916	-31.2
3593.728	-31.2
3596.538	-41.2
3599.346	-40.2
3602.152	-37.2
3604.956	-41.2
3607.757	-32.2
3610.556	-37.2
3613.354	-51.2
3616.149	-46.2
3618.942	-51.2
3621.732	-53.2
3624.521	-44.2
3627.307	-46.2
3630.092	-48.2
3632.874	-56.2
3635.654	-54.2
3638.432	-53.2
3641.208	-54.2
3643.982	-54.2
3646.753	-58.2
3649.523	-53.2
3652.29	-60.2
3655.055	-58.2
3657.818	-66.2
3660.579	-64.2
3663.338	-59.2
3666.095	-60.2
3668.849	-65.2
3671.602	-68.2
3674.352	-60.2
3677.101	-60.2
3679.847	-64.2
3682.591	-67.2
3685.333	-59.2
3688.073	-71.2
3690.811	-67.2
3693.547	-71.2
3696.281	-66.2
3699.013	-65.2
3701.742	-76.2
3704.47	-62.2
3707.195	-73.2
3709.919	-72.2
3712.64	-75.2
3715.359	-74.2
3718.076	-76.2
3720.792	-73.2
3723.505	-74.2
3726.216	-70.2
3728.925	-74.2
3731.632	-74.2
3734.336	-78.2
3737.039	-71.2
3739.74	-76.2
3742.439	-81.2
3745.136	-77.2
3747.83	-76.2
3750.523	-75.2
3753.213	-89.2
3755.902	-78.2
3758.589	-78.2
3761.273	-76.2
3763.956	-79.2
3766.636	-78.2
3769.315	-76.2
3771.991	-80.2
3774.665	-84.2
3777.338	-83.2
3780.008	-80.2
3782.677	-84.2
3785.343	-79.2
3788.007	-82.2
3790.67	-81.2
3793.33	-77.2
3795.989	-82.2
3798.645	-82.2
3801.299	-78.2
3803.952	-80.2
3806.602	-85.2
3809.251	-81.2
3811.897	-84.2
3814.542	-83.2
3817.184	-79.2
3819.825	-77.2
3822.463	-80.2
3825.1	-75.2
3827.735	-84.2
3830.367	-88.2
3832.998	-82.2
3835.627	-81.2
3838.253	-80.2
3840.878	-83.2
3843.501	-77.2
3846.122	-88.2
3848.741	-87.2
3851.358	-81.2
3853.973	-74.2
3856.586	-78.2
3859.197	-80.2
3861.806	-80.2
3864.414	-82.2
3867.019	-82.2
3869.622	-75.2
3872.224	-72.2
3874.823	-62.2
3877.421	-62.2
3880.016	-57.2
3882.61	-39.2
3885.202	-43.2
3887.792	-47.2
3890.38	-61.2
3892.966	-72.2
3895.55	-77.2
3898.132	-83.2
3900.713	-86.2
3903.291	-83.2
3905.868	-81.2
3908.442	-85.2
3911.015	-83.2
3913.586	-81.2
3916.155	-84.2
3918.722	-82.2
3921.287	-83.2
3923.85	-76.2
3926.411	-85.2
3928.971	-88.2
3931.528	-85.2
3934.084	-83.2
3936.638	-80.2
3939.19	-88.2
3941.74	-88.2
3944.288	-86.2
3946.834	-89.2
3949.378	-85.2
3951.921	-88.2
3954.462	-84.2
3957	-80.2
3959.537	-78.2
3962.072	-80.2
3964.606	-84.2
3967.137	-81.2
3969.667	-87.2
3972.194	-82.2
3974.72	-75.2
3977.244	-75.2
3979.766	-82.2
3982.286	-83.2
3984.805	-89.2
3987.321	-79.2
3989.836	-78.2
3992.349	-84.2
3994.86	-82.2
3997.369	-83.2
3999.877	-83.2
4002.382	-81.2
4004.886	-81.2
4007.388	-84.2
4009.888	-88.2
4012.386	-82.2
4014.883	-74.2
4017.377	-81.2
4019.87	-83.2
4022.361	-84.2
4024.85	-76.2
4027.338	-84.2
4029.823	-84.2
4032.307	-85.2
4034.789	-80.2
4037.269	-83.2
4039.747	-80.2
4042.224	-85.2
4044.699	-84.2
4047.172	-85.2
4049.643	-88.2
4052.112	-84.2
4054.58	-86.2
4057.046	-83.2
4059.51	-82.2
4061.972	-87.2
4064.432	-81.2
4066.891	-81.2
4069.348	-80.2
4071.803	-76.2
4074.256	-82.2
4076.708	-81.2
4079.158	-83.2
4081.606	-78.2
4084.052	-80.2
4086.497	-79.2
4088.939	-77.2
4091.38	-86.2
4093.819	-90.2
4096.257	-85.2
4098.693	-87.2
4101.127	-83.2
4103.559	-90.2
4105.989	-22.2
4108.418	-25.2
4110.845	-30.2
4113.27	-21.2
4115.694	-12.2
4118.115	-9.2
4120.535	-82.2
4122.954	-80.2
4125.37	-83.2
4127.785	-79.2
4130.198	-83.2
4132.609	-87.2
4135.019	-86.2
4137.427	-91.2
4139.833	-88.2
4142.237	-88.2
