Data from 2018-3-7_conc=6_n=6_RamanShift_02.txt Node
Date: Wed Mar 07 13:12:52 IST 2018
User: aro
Spectrometer: QEPB0276
Trigger mode: 0
Integration Time (sec): 3.000000E1
Scans to average: 1
Electric dark correction enabled: true
Nonlinearity correction enabled: false
Boxcar width: 0
XAxis mode: Raman Shifts
Number of Pixels in Spectrum: 1044
>>>>>Begin Spectral Data<<<<<
160.701	12.4
166.742	12.4
172.777	47.4
178.805	157.4
184.826	404.4
190.841	869.4
196.849	1442.4
202.85	1904.4
208.845	2075.4
214.833	2067.4
220.815	2030.4
226.789	2027.4
232.758	2029.4
238.719	2040.4
244.674	2014.4
250.623	2007.4
256.565	1977.4
262.5	1945.4
268.429	1926.4
274.351	1902.4
280.267	1880.4
286.176	1889.4
292.079	1891.4
297.975	1887.4
303.865	1890.4
309.748	1866.4
315.625	1868.4
321.495	1872.4
327.359	1869.4
333.217	1864.4
339.068	1873.4
344.912	1884.4
350.751	1868.4
356.583	1868.4
362.408	1879.4
368.227	1880.4
374.04	1896.4
379.847	1886.4
385.647	1892.4
391.44	1903.4
397.228	1920.4
403.009	1911.4
408.784	1906.4
414.553	1960.4
420.315	1944.4
426.071	1936.4
431.821	1942.4
437.565	1957.4
443.302	1942.4
449.033	1931.4
454.758	1929.4
460.477	1914.4
466.189	1904.4
471.896	1877.4
477.596	1876.4
483.29	1860.4
488.978	1883.4
494.66	1859.4
500.335	1837.4
506.005	1784.4
511.668	1719.4
517.325	1662.4
522.977	1633.4
528.622	1603.4
534.261	1567.4
539.894	1561.4
545.521	1520.4
551.141	1524.4
556.756	1504.4
562.365	1512.4
567.968	1499.4
573.565	1484.4
579.155	1473.4
584.74	1477.4
590.319	1467.4
595.892	1473.4
601.459	1446.4
607.02	1443.4
612.575	1438.4
618.124	1424.4
623.667	1417.4
629.204	1394.4
634.735	1387.4
640.261	1365.4
645.781	1379.4
651.294	1366.4
656.802	1370.4
662.304	1376.4
667.8	1348.4
673.29	1381.4
678.775	1353.4
684.254	1360.4
689.726	1347.4
695.193	1337.4
700.655	1324.4
706.11	1311.4
711.56	1301.4
717.004	1294.4
722.442	1282.4
727.874	1281.4
733.301	1268.4
738.722	1302.4
744.137	1282.4
749.547	1280.4
754.951	1270.4
760.349	1265.4
765.741	1278.4
771.128	1292.4
776.509	1277.4
781.885	1306.4
787.254	1295.4
792.618	1297.4
797.977	1318.4
803.33	1297.4
808.677	1280.4
814.019	1264.4
819.355	1249.4
824.686	1250.4
830.011	1255.4
835.33	1251.4
840.644	1250.4
845.952	1250.4
851.255	1224.4
856.552	1237.4
861.844	1235.4
867.13	1214.4
872.41	1225.4
877.686	1199.4
882.955	1194.4
888.219	1169.4
893.478	1163.4
898.731	1138.4
903.979	1144.4
909.221	1124.4
914.458	1113.4
919.69	1121.4
924.916	1125.4
930.136	1128.4
935.351	1141.4
940.561	1137.4
945.766	1132.4
950.965	1120.4
956.158	1113.4
961.347	1091.4
966.529	1089.4
971.707	1074.4
976.879	1055.4
982.046	1048.4
987.208	1026.4
992.364	1049.4
997.515	1058.4
1002.66	1059.4
1007.801	1070.4
1012.936	1078.4
1018.066	1093.4
1023.19	1082.4
1028.309	1065.4
1033.423	1066.4
1038.532	1066.4
1043.636	1064.4
1048.734	1056.4
1053.827	1046.4
1058.915	1017.4
1063.998	1011.4
1069.075	1006.4
1074.147	1013.4
1079.214	1032.4
1084.276	1023.4
1089.333	1028.4
1094.385	1009.4
1099.431	1017.4
1104.472	1020.4
1109.509	1001.4
1114.54	993.4
1119.565	989.4
1124.586	968.4
1129.602	960.4
1134.613	951.4
1139.618	957.4
1144.619	948.4
1149.614	955.4
1154.604	947.4
1159.589	961.4
1164.57	971.4
1169.545	959.4
1174.515	950.4
1179.48	957.4
1184.44	939.4
1189.395	937.4
1194.345	927.4
1199.29	915.4
1204.23	921.4
1209.165	929.4
1214.095	931.4
1219.021	928.4
1223.941	938.4
1228.856	947.4
1233.766	952.4
1238.672	966.4
1243.572	959.4
1248.467	949.4
1253.358	927.4
1258.244	914.4
1263.124	888.4
1268	879.4
1272.871	870.4
1277.737	866.4
1282.599	885.4
1287.455	869.4
1292.306	869.4
1297.153	881.4
1301.995	881.4
1306.832	871.4
1311.664	892.4
1316.491	887.4
1321.314	875.4
1326.132	887.4
1330.945	864.4
1335.753	863.4
1340.556	827.4
1345.354	816.4
1350.148	792.4
1354.937	779.4
1359.722	758.4
1364.501	744.4
1369.276	737.4
1374.046	722.4
1378.811	712.4
1383.572	710.4
1388.327	698.4
1393.079	703.4
1397.825	724.4
1402.567	735.4
1407.304	722.4
1412.036	733.4
1416.764	736.4
1421.487	727.4
1426.205	731.4
1430.919	717.4
1435.628	735.4
1440.333	747.4
1445.032	744.4
1449.727	753.4
1454.418	750.4
1459.104	753.4
1463.785	750.4
1468.462	720.4
1473.134	702.4
1477.802	696.4
1482.465	661.4
1487.123	659.4
1491.777	652.4
1496.426	636.4
1501.071	630.4
1505.711	617.4
1510.347	622.4
1514.978	621.4
1519.604	599.4
1524.226	610.4
1528.844	602.4
1533.457	603.4
1538.065	607.4
1542.669	593.4
1547.269	579.4
1551.864	595.4
1556.454	608.4
1561.041	613.4
1565.622	620.4
1570.199	627.4
1574.772	623.4
1579.34	638.4
1583.904	642.4
1588.464	676.4
1593.019	662.4
1597.569	675.4
1602.115	664.4
1606.657	664.4
1611.195	660.4
1615.728	657.4
1620.256	655.4
1624.78	647.4
1629.3	653.4
1633.816	656.4
1638.327	655.4
1642.834	648.4
1647.336	650.4
1651.834	657.4
1656.328	657.4
1660.817	647.4
1665.302	637.4
1669.783	623.4
1674.259	604.4
1678.732	595.4
1683.199	563.4
1687.663	564.4
1692.122	524.4
1696.577	504.4
1701.028	474.4
1705.474	437.4
1709.917	451.4
1714.355	437.4
1718.788	432.4
1723.218	434.4
1727.643	437.4
1732.064	423.4
1736.481	424.4
1740.893	419.4
1745.301	422.4
1749.705	398.4
1754.105	388.4
1758.501	384.4
1762.893	375.4
1767.28	381.4
1771.663	359.4
1776.042	370.4
1780.417	352.4
1784.787	352.4
1789.154	332.4
1793.516	334.4
1797.874	317.4
1802.228	319.4
1806.578	305.4
1810.924	314.4
1815.266	323.4
1819.603	311.4
1823.937	320.4
1828.266	311.4
1832.591	317.4
1836.913	325.4
1841.23	321.4
1845.543	320.4
1849.852	328.4
1854.156	334.4
1858.457	326.4
1862.754	336.4
1867.047	323.4
1871.335	323.4
1875.62	325.4
1879.9	326.4
1884.177	324.4
1888.449	315.4
1892.718	310.4
1896.982	306.4
1901.243	298.4
1905.499	289.4
1909.752	293.4
1914	287.4
1918.245	286.4
1922.485	264.4
1926.722	262.4
1930.954	263.4
1935.183	258.4
1939.408	265.4
1943.628	252.4
1947.845	257.4
1952.058	248.4
1956.267	246.4
1960.472	244.4
1964.673	237.4
1968.87	233.4
1973.063	237.4
1977.252	247.4
1981.438	247.4
1985.619	243.4
1989.797	244.4
1993.971	254.4
1998.14	253.4
2002.306	256.4
2006.469	261.4
2010.627	256.4
2014.781	262.4
2018.932	258.4
2023.078	249.4
2027.221	242.4
2031.36	256.4
2035.495	241.4
2039.627	239.4
2043.754	239.4
2047.878	228.4
2051.998	235.4
2056.114	226.4
2060.226	225.4
2064.334	221.4
2068.439	222.4
2072.54	220.4
2076.637	227.4
2080.73	229.4
2084.82	220.4
2088.906	216.4
2092.988	205.4
2097.066	210.4
2101.14	204.4
2105.211	209.4
2109.278	205.4
2113.342	196.4
2117.401	189.4
2121.457	194.4
2125.509	196.4
2129.558	185.4
2133.602	188.4
2137.643	186.4
2141.681	187.4
2145.714	192.4
2149.744	193.4
2153.77	195.4
2157.793	193.4
2161.812	209.4
2165.827	197.4
2169.838	195.4
2173.846	189.4
2177.851	184.4
2181.851	194.4
2185.848	180.4
2189.841	187.4
2193.831	178.4
2197.817	177.4
2201.799	174.4
2205.778	183.4
2209.753	176.4
2213.725	178.4
2217.693	180.4
2221.657	172.4
2225.618	172.4
2229.575	167.4
2233.529	173.4
2237.479	170.4
2241.425	173.4
2245.368	171.4
2249.307	166.4
2253.243	162.4
2257.175	168.4
2261.104	151.4
2265.029	157.4
2268.95	162.4
2272.868	161.4
2276.783	156.4
2280.694	148.4
2284.601	144.4
2288.505	151.4
2292.405	151.4
2296.302	155.4
2300.195	146.4
2304.085	141.4
2307.971	134.4
2311.854	130.4
2315.734	132.4
2319.609	136.4
2323.482	136.4
2327.351	145.4
2331.216	146.4
2335.078	155.4
2338.937	147.4
2342.792	137.4
2346.643	142.4
2350.492	139.4
2354.336	136.4
2358.178	132.4
2362.015	141.4
2365.85	144.4
2369.681	150.4
2373.508	149.4
2377.333	139.4
2381.153	141.4
2384.971	140.4
2388.785	141.4
2392.595	135.4
2396.402	148.4
2400.206	133.4
2404.007	136.4
2407.804	128.4
2411.597	131.4
2415.388	133.4
2419.174	143.4
2422.958	134.4
2426.738	135.4
2430.515	130.4
2434.289	133.4
2438.059	132.4
2441.825	128.4
2445.589	127.4
2449.349	130.4
2453.106	129.4
2456.859	128.4
2460.61	126.4
2464.356	116.4
2468.1	117.4
2471.84	114.4
2475.577	106.4
2479.311	119.4
2483.041	109.4
2486.768	115.4
2490.492	105.4
2494.213	110.4
2497.93	109.4
2501.644	106.4
2505.355	105.4
2509.062	110.4
2512.766	102.4
2516.467	105.4
2520.165	99.4
2523.859	113.4
2527.551	97.4
2531.239	99.4
2534.923	85.4
2538.605	96.4
2542.283	93.4
2545.958	99.4
2549.63	91.4
2553.299	93.4
2556.964	89.4
2560.626	90.4
2564.285	84.4
2567.941	82.4
2571.594	78.4
2575.243	83.4
2578.89	81.4
2582.533	77.4
2586.173	73.4
2589.809	77.4
2593.443	80.4
2597.073	76.4
2600.701	78.4
2604.325	71.4
2607.946	64.4
2611.564	74.4
2615.178	71.4
2618.79	74.4
2622.398	70.4
2626.004	68.4
2629.606	70.4
2633.205	69.4
2636.801	66.4
2640.394	77.4
2643.983	68.4
2647.57	62.4
2651.153	66.4
2654.734	64.4
2658.311	68.4
2661.885	60.4
2665.456	66.4
2669.025	62.4
2672.589	54.4
2676.151	57.4
2679.71	55.4
2683.266	56.4
2686.819	61.4
2690.368	59.4
2693.915	57.4
2697.458	51.4
2700.999	60.4
2704.536	55.4
2708.071	63.4
2711.602	52.4
2715.13	44.4
2718.656	52.4
2722.178	44.4
2725.697	43.4
2729.214	38.4
2732.727	48.4
2736.237	47.4
2739.744	39.4
2743.249	35.4
2746.75	39.4
2750.248	35.4
2753.743	34.4
2757.236	33.4
2760.725	35.4
2764.211	25.4
2767.695	30.4
2771.175	30.4
2774.652	27.4
2778.127	31.4
2781.598	29.4
2785.067	24.4
2788.532	31.4
2791.995	35.4
2795.455	29.4
2798.911	35.4
2802.365	37.4
2805.816	32.4
2809.264	36.4
2812.709	30.4
2816.151	29.4
2819.59	41.4
2823.026	37.4
2826.46	32.4
2829.89	32.4
2833.318	31.4
2836.742	33.4
2840.164	28.4
2843.583	28.4
2846.999	29.4
2850.412	36.4
2853.822	35.4
2857.229	39.4
2860.634	30.4
2864.035	34.4
2867.434	40.4
2870.83	41.4
2874.223	43.4
2877.613	46.4
2881	41.4
2884.385	50.4
2887.766	47.4
2891.145	44.4
2894.521	50.4
2897.894	48.4
2901.264	44.4
2904.631	44.4
2907.996	50.4
2911.358	54.4
2914.717	42.4
2918.073	44.4
2921.426	47.4
2924.777	52.4
2928.124	52.4
2931.469	60.4
2934.811	64.4
2938.15	65.4
2941.487	66.4
2944.821	64.4
2948.152	71.4
2951.48	61.4
2954.805	68.4
2958.128	64.4
2961.447	62.4
2964.765	57.4
2968.079	59.4
2971.39	62.4
2974.699	58.4
2978.005	64.4
2981.308	50.4
2984.609	54.4
2987.907	49.4
2991.202	60.4
2994.494	49.4
2997.784	51.4
3001.07	56.4
3004.355	60.4
3007.636	53.4
3010.915	63.4
3014.191	64.4
3017.464	59.4
3020.734	64.4
3024.002	68.4
3027.267	69.4
3030.53	71.4
3033.789	61.4
3037.046	73.4
3040.301	72.4
3043.552	86.4
3046.801	85.4
3050.048	80.4
3053.291	86.4
3056.532	84.4
3059.771	90.4
3063.006	93.4
3066.239	99.4
3069.469	104.4
3072.697	108.4
3075.922	116.4
3079.144	116.4
3082.364	122.4
3085.581	121.4
3088.795	129.4
3092.007	124.4
3095.216	132.4
3098.423	142.4
3101.627	136.4
3104.828	149.4
3108.026	135.4
3111.222	140.4
3114.416	148.4
3117.607	157.4
3120.795	153.4
3123.98	151.4
3127.163	169.4
3130.344	157.4
3133.521	168.4
3136.696	168.4
3139.869	179.4
3143.039	172.4
3146.206	175.4
3149.371	188.4
3152.533	191.4
3155.693	194.4
3158.85	187.4
3162.005	192.4
3165.157	193.4
3168.306	193.4
3171.453	191.4
3174.597	197.4
3177.739	195.4
3180.878	195.4
3184.014	188.4
3187.149	193.4
3190.28	188.4
3193.409	201.4
3196.536	193.4
3199.659	196.4
3202.781	201.4
3205.9	191.4
3209.016	189.4
3212.13	192.4
3215.241	194.4
3218.35	186.4
3221.456	195.4
3224.56	180.4
3227.661	191.4
3230.76	186.4
3233.856	177.4
3236.95	173.4
3240.041	170.4
3243.13	171.4
3246.216	173.4
3249.3	158.4
3252.382	161.4
3255.46	156.4
3258.537	152.4
3261.611	155.4
3264.682	155.4
3267.751	152.4
3270.818	141.4
3273.882	150.4
3276.943	145.4
3280.002	148.4
3283.059	139.4
3286.113	142.4
3289.165	140.4
3292.214	142.4
3295.261	138.4
3298.306	139.4
3301.348	141.4
3304.387	131.4
3307.425	140.4
3310.459	135.4
3313.492	134.4
3316.521	133.4
3319.549	136.4
3322.574	129.4
3325.597	134.4
3328.617	138.4
3331.635	134.4
3334.65	139.4
3337.663	119.4
3340.674	131.4
3343.682	130.4
3346.688	124.4
3349.691	135.4
3352.692	132.4
3355.691	132.4
3358.687	131.4
3361.681	137.4
3364.673	134.4
3367.662	128.4
3370.649	119.4
3373.633	128.4
3376.615	118.4
3379.595	123.4
3382.572	109.4
3385.547	116.4
3388.52	107.4
3391.49	106.4
3394.458	100.4
3397.424	112.4
3400.387	116.4
3403.348	93.4
3406.307	95.4
3409.263	107.4
3412.217	92.4
3415.168	101.4
3418.118	93.4
3421.065	81.4
3424.009	93.4
3426.951	93.4
3429.891	91.4
3432.829	90.4
3435.764	88.4
3438.697	76.4
3441.628	70.4
3444.557	76.4
3447.483	71.4
3450.407	70.4
3453.328	66.4
3456.247	58.4
3459.164	58.4
3462.079	47.4
3464.991	49.4
3467.902	41.4
3470.809	48.4
3473.715	40.4
3476.618	36.4
3479.519	36.4
3482.418	38.4
3485.315	37.4
3488.209	27.4
3491.101	22.4
3493.99	26.4
3496.878	23.4
3499.763	17.4
3502.646	24.4
3505.527	15.4
3508.405	14.4
3511.281	15.4
3514.155	8.4
3517.027	-3.6
3519.897	9.4
3522.764	6.4
3525.629	3.4
3528.492	-4.6
3531.352	-3.6
3534.211	-6.6
3537.067	-9.6
3539.921	-3.6
3542.773	-15.6
3545.622	-10.6
3548.469	-7.6
3551.315	-6.6
3554.157	-13.6
3556.998	-16.6
3559.837	-20.6
3562.673	-23.6
3565.507	-14.6
3568.339	-16.6
3571.169	-19.6
3573.996	-18.6
3576.822	-31.6
3579.645	-29.6
3582.466	-33.6
3585.285	-28.6
3588.101	-31.6
3590.916	-29.6
3593.728	-31.6
3596.538	-34.6
3599.346	-28.6
3602.152	-35.6
3604.956	-29.6
3607.757	-27.6
3610.556	-28.6
3613.354	-38.6
3616.149	-37.6
3618.942	-34.6
3621.732	-39.6
3624.521	-31.6
3627.307	-35.6
3630.092	-42.6
3632.874	-37.6
3635.654	-36.6
3638.432	-35.6
3641.208	-36.6
3643.982	-36.6
3646.753	-42.6
3649.523	-39.6
3652.29	-42.6
3655.055	-43.6
3657.818	-48.6
3660.579	-43.6
3663.338	-42.6
3666.095	-39.6
3668.849	-45.6
3671.602	-43.6
3674.352	-42.6
3677.101	-39.6
3679.847	-47.6
3682.591	-45.6
3685.333	-44.6
3688.073	-53.6
3690.811	-48.6
3693.547	-46.6
3696.281	-44.6
3699.013	-47.6
3701.742	-50.6
3704.47	-43.6
3707.195	-51.6
3709.919	-52.6
3712.64	-50.6
3715.359	-51.6
3718.076	-53.6
3720.792	-46.6
3723.505	-53.6
3726.216	-46.6
3728.925	-51.6
3731.632	-47.6
3734.336	-48.6
3737.039	-47.6
3739.74	-52.6
3742.439	-54.6
3745.136	-51.6
3747.83	-49.6
3750.523	-55.6
3753.213	-52.6
3755.902	-54.6
3758.589	-52.6
3761.273	-46.6
3763.956	-53.6
3766.636	-53.6
3769.315	-48.6
3771.991	-51.6
3774.665	-60.6
3777.338	-55.6
3780.008	-52.6
3782.677	-62.6
3785.343	-54.6
3788.007	-55.6
3790.67	-58.6
3793.33	-53.6
3795.989	-53.6
3798.645	-56.6
3801.299	-52.6
3803.952	-58.6
3806.602	-50.6
3809.251	-57.6
3811.897	-55.6
3814.542	-61.6
3817.184	-50.6
3819.825	-51.6
3822.463	-50.6
3825.1	-49.6
3827.735	-57.6
3830.367	-56.6
3832.998	-54.6
3835.627	-51.6
3838.253	-53.6
3840.878	-51.6
3843.501	-52.6
3846.122	-58.6
3848.741	-55.6
3851.358	-54.6
3853.973	-52.6
3856.586	-52.6
3859.197	-53.6
3861.806	-53.6
3864.414	-56.6
3867.019	-52.6
3869.622	-49.6
3872.224	-40.6
3874.823	-32.6
3877.421	-22.6
3880.016	-6.6
3882.61	11.4
3885.202	8.4
3887.792	-4.6
3890.38	-24.6
3892.966	-41.6
3895.55	-47.6
3898.132	-52.6
3900.713	-57.6
3903.291	-61.6
3905.868	-53.6
3908.442	-55.6
3911.015	-55.6
3913.586	-57.6
3916.155	-54.6
3918.722	-55.6
3921.287	-52.6
3923.85	-44.6
3926.411	-55.6
3928.971	-63.6
3931.528	-59.6
3934.084	-52.6
3936.638	-50.6
3939.19	-59.6
3941.74	-49.6
3944.288	-56.6
3946.834	-50.6
3949.378	-55.6
3951.921	-59.6
3954.462	-57.6
3957	-52.6
3959.537	-50.6
3962.072	-50.6
3964.606	-53.6
3967.137	-51.6
3969.667	-54.6
3972.194	-51.6
3974.72	-47.6
3977.244	-50.6
3979.766	-55.6
3982.286	-58.6
3984.805	-59.6
3987.321	-52.6
3989.836	-51.6
3992.349	-53.6
3994.86	-52.6
3997.369	-54.6
3999.877	-55.6
4002.382	-52.6
4004.886	-54.6
4007.388	-55.6
4009.888	-57.6
4012.386	-55.6
4014.883	-53.6
4017.377	-53.6
4019.87	-54.6
4022.361	-59.6
4024.85	-48.6
4027.338	-59.6
4029.823	-61.6
4032.307	-58.6
4034.789	-51.6
4037.269	-56.6
4039.747	-50.6
4042.224	-56.6
4044.699	-55.6
4047.172	-55.6
4049.643	-53.6
4052.112	-58.6
4054.58	-51.6
4057.046	-52.6
4059.51	-56.6
4061.972	-58.6
4064.432	-51.6
4066.891	-53.6
4069.348	-45.6
4071.803	-51.6
4074.256	-55.6
4076.708	-58.6
4079.158	-59.6
4081.606	-55.6
4084.052	-61.6
4086.497	-55.6
4088.939	-54.6
4091.38	-56.6
4093.819	-57.6
4096.257	-53.6
4098.693	-55.6
4101.127	-49.6
4103.559	-62.6
4105.989	3.4
4108.418	2.4
4110.845	-2.6
4113.27	0.4
4115.694	6.4
4118.115	9.4
4120.535	-56.6
4122.954	-54.6
4125.37	-54.6
4127.785	-52.6
4130.198	-50.6
4132.609	-56.6
4135.019	-57.6
4137.427	-57.6
4139.833	-53.6
4142.237	-60.6
