Data from 2018-3-7_conc=3_n=9_RamanShift_01.txt Node
Date: Wed Mar 07 11:40:52 IST 2018
User: aro
Spectrometer: QEPB0276
Trigger mode: 0
Integration Time (sec): 3.000000E1
Scans to average: 1
Electric dark correction enabled: true
Nonlinearity correction enabled: false
Boxcar width: 0
XAxis mode: Raman Shifts
Number of Pixels in Spectrum: 1044
>>>>>Begin Spectral Data<<<<<
160.701	14.4
166.742	23.4
172.777	48.4
178.805	143.4
184.826	356.4
190.841	763.4
196.849	1246.4
202.85	1598.4
208.845	1752.4
214.833	1773.4
220.815	1751.4
226.789	1748.4
232.758	1768.4
238.719	1750.4
244.674	1715.4
250.623	1739.4
256.565	1715.4
262.5	1682.4
268.429	1678.4
274.351	1670.4
280.267	1666.4
286.176	1645.4
292.079	1665.4
297.975	1636.4
303.865	1634.4
309.748	1636.4
315.625	1643.4
321.495	1637.4
327.359	1652.4
333.217	1649.4
339.068	1657.4
344.912	1651.4
350.751	1654.4
356.583	1665.4
362.408	1662.4
368.227	1687.4
374.04	1684.4
379.847	1686.4
385.647	1697.4
391.44	1697.4
397.228	1703.4
403.009	1707.4
408.784	1728.4
414.553	1720.4
420.315	1738.4
426.071	1724.4
431.821	1714.4
437.565	1745.4
443.302	1724.4
449.033	1716.4
454.758	1717.4
460.477	1697.4
466.189	1679.4
471.896	1661.4
477.596	1658.4
483.29	1658.4
488.978	1679.4
494.66	1640.4
500.335	1618.4
506.005	1561.4
511.668	1491.4
517.325	1433.4
522.977	1372.4
528.622	1361.4
534.261	1332.4
539.894	1302.4
545.521	1293.4
551.141	1276.4
556.756	1266.4
562.365	1241.4
567.968	1253.4
573.565	1251.4
579.155	1240.4
584.74	1237.4
590.319	1214.4
595.892	1213.4
601.459	1215.4
607.02	1205.4
612.575	1207.4
618.124	1197.4
623.667	1170.4
629.204	1174.4
634.735	1158.4
640.261	1144.4
645.781	1160.4
651.294	1130.4
656.802	1118.4
662.304	1133.4
667.8	1117.4
673.29	1123.4
678.775	1116.4
684.254	1115.4
689.726	1101.4
695.193	1100.4
700.655	1085.4
706.11	1090.4
711.56	1071.4
717.004	1067.4
722.442	1061.4
727.874	1054.4
733.301	1056.4
738.722	1046.4
744.137	1050.4
749.547	1038.4
754.951	1052.4
760.349	1058.4
765.741	1063.4
771.128	1043.4
776.509	1069.4
781.885	1070.4
787.254	1092.4
792.618	1066.4
797.977	1078.4
803.33	1074.4
808.677	1057.4
814.019	1065.4
819.355	1052.4
824.686	1023.4
830.011	1029.4
835.33	1044.4
840.644	1018.4
845.952	1032.4
851.255	1022.4
856.552	1033.4
861.844	994.4
867.13	986.4
872.41	979.4
877.686	984.4
882.955	974.4
888.219	972.4
893.478	956.4
898.731	922.4
903.979	924.4
909.221	924.4
914.458	916.4
919.69	920.4
924.916	909.4
930.136	920.4
935.351	925.4
940.561	913.4
945.766	912.4
950.965	918.4
956.158	908.4
961.347	893.4
966.529	882.4
971.707	872.4
976.879	854.4
982.046	844.4
987.208	845.4
992.364	850.4
997.515	860.4
1002.66	857.4
1007.801	853.4
1012.936	858.4
1018.066	885.4
1023.19	879.4
1028.309	868.4
1033.423	867.4
1038.532	869.4
1043.636	871.4
1048.734	856.4
1053.827	831.4
1058.915	842.4
1063.998	830.4
1069.075	825.4
1074.147	829.4
1079.214	833.4
1084.276	839.4
1089.333	839.4
1094.385	839.4
1099.431	822.4
1104.472	823.4
1109.509	816.4
1114.54	810.4
1119.565	804.4
1124.586	789.4
1129.602	781.4
1134.613	777.4
1139.618	771.4
1144.619	767.4
1149.614	766.4
1154.604	773.4
1159.589	766.4
1164.57	778.4
1169.545	779.4
1174.515	783.4
1179.48	771.4
1184.44	761.4
1189.395	753.4
1194.345	762.4
1199.29	742.4
1204.23	757.4
1209.165	740.4
1214.095	742.4
1219.021	753.4
1223.941	764.4
1228.856	766.4
1233.766	771.4
1238.672	775.4
1243.572	771.4
1248.467	772.4
1253.358	748.4
1258.244	743.4
1263.124	730.4
1268	719.4
1272.871	710.4
1277.737	699.4
1282.599	691.4
1287.455	692.4
1292.306	687.4
1297.153	705.4
1301.995	707.4
1306.832	708.4
1311.664	710.4
1316.491	707.4
1321.314	706.4
1326.132	702.4
1330.945	685.4
1335.753	684.4
1340.556	659.4
1345.354	656.4
1350.148	628.4
1354.937	624.4
1359.722	603.4
1364.501	618.4
1369.276	591.4
1374.046	590.4
1378.811	579.4
1383.572	580.4
1388.327	572.4
1393.079	570.4
1397.825	579.4
1402.567	588.4
1407.304	580.4
1412.036	588.4
1416.764	585.4
1421.487	585.4
1426.205	590.4
1430.919	596.4
1435.628	587.4
1440.333	602.4
1445.032	588.4
1449.727	599.4
1454.418	608.4
1459.104	598.4
1463.785	572.4
1468.462	575.4
1473.134	566.4
1477.802	550.4
1482.465	534.4
1487.123	522.4
1491.777	515.4
1496.426	510.4
1501.071	513.4
1505.711	488.4
1510.347	496.4
1514.978	496.4
1519.604	484.4
1524.226	487.4
1528.844	484.4
1533.457	479.4
1538.065	479.4
1542.669	470.4
1547.269	487.4
1551.864	490.4
1556.454	499.4
1561.041	506.4
1565.622	503.4
1570.199	511.4
1574.772	496.4
1579.34	522.4
1583.904	519.4
1588.464	528.4
1593.019	537.4
1597.569	537.4
1602.115	525.4
1606.657	522.4
1611.195	513.4
1615.728	516.4
1620.256	510.4
1624.78	524.4
1629.3	518.4
1633.816	523.4
1638.327	527.4
1642.834	521.4
1647.336	525.4
1651.834	513.4
1656.328	525.4
1660.817	522.4
1665.302	514.4
1669.783	494.4
1674.259	481.4
1678.732	474.4
1683.199	452.4
1687.663	441.4
1692.122	415.4
1696.577	407.4
1701.028	391.4
1705.474	366.4
1709.917	362.4
1714.355	352.4
1718.788	350.4
1723.218	351.4
1727.643	354.4
1732.064	348.4
1736.481	352.4
1740.893	334.4
1745.301	333.4
1749.705	343.4
1754.105	317.4
1758.501	310.4
1762.893	310.4
1767.28	293.4
1771.663	293.4
1776.042	293.4
1780.417	286.4
1784.787	288.4
1789.154	282.4
1793.516	266.4
1797.874	260.4
1802.228	270.4
1806.578	268.4
1810.924	256.4
1815.266	264.4
1819.603	263.4
1823.937	258.4
1828.266	261.4
1832.591	259.4
1836.913	266.4
1841.23	255.4
1845.543	261.4
1849.852	276.4
1854.156	265.4
1858.457	268.4
1862.754	262.4
1867.047	261.4
1871.335	258.4
1875.62	268.4
1879.9	264.4
1884.177	256.4
1888.449	251.4
1892.718	256.4
1896.982	253.4
1901.243	241.4
1905.499	235.4
1909.752	222.4
1914	238.4
1918.245	224.4
1922.485	219.4
1926.722	214.4
1930.954	215.4
1935.183	215.4
1939.408	209.4
1943.628	201.4
1947.845	211.4
1952.058	214.4
1956.267	205.4
1960.472	208.4
1964.673	203.4
1968.87	201.4
1973.063	200.4
1977.252	211.4
1981.438	192.4
1985.619	198.4
1989.797	192.4
1993.971	205.4
1998.14	206.4
2002.306	201.4
2006.469	209.4
2010.627	197.4
2014.781	200.4
2018.932	198.4
2023.078	198.4
2027.221	201.4
2031.36	195.4
2035.495	188.4
2039.627	198.4
2043.754	186.4
2047.878	182.4
2051.998	188.4
2056.114	180.4
2060.226	175.4
2064.334	180.4
2068.439	178.4
2072.54	182.4
2076.637	180.4
2080.73	180.4
2084.82	171.4
2088.906	174.4
2092.988	170.4
2097.066	167.4
2101.14	167.4
2105.211	168.4
2109.278	163.4
2113.342	151.4
2117.401	156.4
2121.457	154.4
2125.509	156.4
2129.558	157.4
2133.602	147.4
2137.643	154.4
2141.681	155.4
2145.714	147.4
2149.744	163.4
2153.77	162.4
2157.793	160.4
2161.812	164.4
2165.827	155.4
2169.838	149.4
2173.846	148.4
2177.851	155.4
2181.851	144.4
2185.848	140.4
2189.841	144.4
2193.831	136.4
2197.817	141.4
2201.799	135.4
2205.778	134.4
2209.753	141.4
2213.725	135.4
2217.693	137.4
2221.657	135.4
2225.618	136.4
2229.575	127.4
2233.529	135.4
2237.479	138.4
2241.425	131.4
2245.368	135.4
2249.307	127.4
2253.243	124.4
2257.175	130.4
2261.104	112.4
2265.029	122.4
2268.95	119.4
2272.868	113.4
2276.783	116.4
2280.694	114.4
2284.601	107.4
2288.505	109.4
2292.405	115.4
2296.302	108.4
2300.195	114.4
2304.085	108.4
2307.971	107.4
2311.854	105.4
2315.734	100.4
2319.609	111.4
2323.482	98.4
2327.351	107.4
2331.216	112.4
2335.078	123.4
2338.937	115.4
2342.792	100.4
2346.643	106.4
2350.492	102.4
2354.336	102.4
2358.178	95.4
2362.015	105.4
2365.85	94.4
2369.681	101.4
2373.508	100.4
2377.333	109.4
2381.153	100.4
2384.971	101.4
2388.785	89.4
2392.595	102.4
2396.402	99.4
2400.206	96.4
2404.007	102.4
2407.804	104.4
2411.597	97.4
2415.388	99.4
2419.174	104.4
2422.958	93.4
2426.738	94.4
2430.515	95.4
2434.289	98.4
2438.059	89.4
2441.825	86.4
2445.589	84.4
2449.349	83.4
2453.106	82.4
2456.859	81.4
2460.61	85.4
2464.356	86.4
2468.1	83.4
2471.84	82.4
2475.577	78.4
2479.311	80.4
2483.041	79.4
2486.768	82.4
2490.492	76.4
2494.213	74.4
2497.93	78.4
2501.644	72.4
2505.355	66.4
2509.062	66.4
2512.766	73.4
2516.467	62.4
2520.165	70.4
2523.859	75.4
2527.551	63.4
2531.239	64.4
2534.923	57.4
2538.605	64.4
2542.283	59.4
2545.958	61.4
2549.63	64.4
2553.299	59.4
2556.964	55.4
2560.626	53.4
2564.285	57.4
2567.941	54.4
2571.594	47.4
2575.243	52.4
2578.89	58.4
2582.533	42.4
2586.173	53.4
2589.809	52.4
2593.443	52.4
2597.073	48.4
2600.701	52.4
2604.325	45.4
2607.946	36.4
2611.564	52.4
2615.178	54.4
2618.79	46.4
2622.398	46.4
2626.004	38.4
2629.606	33.4
2633.205	40.4
2636.801	42.4
2640.394	42.4
2643.983	37.4
2647.57	43.4
2651.153	39.4
2654.734	47.4
2658.311	43.4
2661.885	44.4
2665.456	46.4
2669.025	42.4
2672.589	32.4
2676.151	33.4
2679.71	28.4
2683.266	39.4
2686.819	36.4
2690.368	33.4
2693.915	33.4
2697.458	36.4
2700.999	32.4
2704.536	33.4
2708.071	33.4
2711.602	30.4
2715.13	31.4
2718.656	28.4
2722.178	28.4
2725.697	24.4
2729.214	24.4
2732.727	30.4
2736.237	25.4
2739.744	20.4
2743.249	20.4
2746.75	22.4
2750.248	15.4
2753.743	17.4
2757.236	18.4
2760.725	21.4
2764.211	15.4
2767.695	10.4
2771.175	14.4
2774.652	17.4
2778.127	11.4
2781.598	12.4
2785.067	18.4
2788.532	15.4
2791.995	19.4
2795.455	9.4
2798.911	10.4
2802.365	15.4
2805.816	7.4
2809.264	10.4
2812.709	11.4
2816.151	22.4
2819.59	29.4
2823.026	21.4
2826.46	17.4
2829.89	22.4
2833.318	15.4
2836.742	17.4
2840.164	16.4
2843.583	16.4
2846.999	18.4
2850.412	19.4
2853.822	20.4
2857.229	20.4
2860.634	17.4
2864.035	15.4
2867.434	13.4
2870.83	24.4
2874.223	21.4
2877.613	28.4
2881	29.4
2884.385	31.4
2887.766	30.4
2891.145	30.4
2894.521	30.4
2897.894	25.4
2901.264	35.4
2904.631	27.4
2907.996	31.4
2911.358	37.4
2914.717	24.4
2918.073	31.4
2921.426	29.4
2924.777	28.4
2928.124	36.4
2931.469	40.4
2934.811	44.4
2938.15	40.4
2941.487	51.4
2944.821	41.4
2948.152	51.4
2951.48	43.4
2954.805	44.4
2958.128	42.4
2961.447	40.4
2964.765	35.4
2968.079	42.4
2971.39	40.4
2974.699	31.4
2978.005	47.4
2981.308	31.4
2984.609	32.4
2987.907	39.4
2991.202	35.4
2994.494	36.4
2997.784	30.4
3001.07	37.4
3004.355	37.4
3007.636	42.4
3010.915	41.4
3014.191	36.4
3017.464	45.4
3020.734	46.4
3024.002	48.4
3027.267	50.4
3030.53	49.4
3033.789	50.4
3037.046	49.4
3040.301	50.4
3043.552	47.4
3046.801	56.4
3050.048	56.4
3053.291	57.4
3056.532	57.4
3059.771	65.4
3063.006	68.4
3066.239	70.4
3069.469	79.4
3072.697	77.4
3075.922	84.4
3079.144	77.4
3082.364	83.4
3085.581	87.4
3088.795	90.4
3092.007	91.4
3095.216	93.4
3098.423	87.4
3101.627	100.4
3104.828	97.4
3108.026	103.4
3111.222	102.4
3114.416	108.4
3117.607	112.4
3120.795	114.4
3123.98	112.4
3127.163	127.4
3130.344	128.4
3133.521	121.4
3136.696	127.4
3139.869	129.4
3143.039	130.4
3146.206	137.4
3149.371	133.4
3152.533	140.4
3155.693	147.4
3158.85	147.4
3162.005	143.4
3165.157	146.4
3168.306	144.4
3171.453	147.4
3174.597	146.4
3177.739	147.4
3180.878	148.4
3184.014	140.4
3187.149	141.4
3190.28	144.4
3193.409	147.4
3196.536	146.4
3199.659	146.4
3202.781	143.4
3205.9	143.4
3209.016	143.4
3212.13	152.4
3215.241	154.4
3218.35	141.4
3221.456	147.4
3224.56	145.4
3227.661	138.4
3230.76	141.4
3233.856	136.4
3236.95	125.4
3240.041	126.4
3243.13	135.4
3246.216	121.4
3249.3	118.4
3252.382	117.4
3255.46	120.4
3258.537	116.4
3261.611	118.4
3264.682	110.4
3267.751	121.4
3270.818	98.4
3273.882	107.4
3276.943	116.4
3280.002	114.4
3283.059	108.4
3286.113	105.4
3289.165	106.4
3292.214	105.4
3295.261	116.4
3298.306	107.4
3301.348	102.4
3304.387	96.4
3307.425	103.4
3310.459	93.4
3313.492	102.4
3316.521	88.4
3319.549	105.4
3322.574	97.4
3325.597	94.4
3328.617	98.4
3331.635	103.4
3334.65	104.4
3337.663	82.4
3340.674	100.4
3343.682	99.4
3346.688	96.4
3349.691	98.4
3352.692	97.4
3355.691	92.4
3358.687	93.4
3361.681	91.4
3364.673	90.4
3367.662	94.4
3370.649	91.4
3373.633	86.4
3376.615	86.4
3379.595	82.4
3382.572	93.4
3385.547	142.4
3388.52	82.4
3391.49	81.4
3394.458	70.4
3397.424	78.4
3400.387	75.4
3403.348	68.4
3406.307	61.4
3409.263	69.4
3412.217	64.4
3415.168	73.4
3418.118	62.4
3421.065	61.4
3424.009	62.4
3426.951	61.4
3429.891	60.4
3432.829	59.4
3435.764	68.4
3438.697	58.4
3441.628	44.4
3444.557	53.4
3447.483	47.4
3450.407	40.4
3453.328	41.4
3456.247	42.4
3459.164	35.4
3462.079	29.4
3464.991	26.4
3467.902	27.4
3470.809	29.4
3473.715	26.4
3476.618	22.4
3479.519	21.4
3482.418	23.4
3485.315	17.4
3488.209	11.4
3491.101	8.4
3493.99	14.4
3496.878	10.4
3499.763	3.4
3502.646	2.4
3505.527	2.4
3508.405	1.4
3511.281	-3.6
3514.155	1.4
3517.027	-5.6
3519.897	-5.6
3522.764	-9.6
3525.629	-0.6
3528.492	-9.6
3531.352	-14.6
3534.211	-15.6
3537.067	-11.6
3539.921	-11.6
3542.773	-18.6
3545.622	-18.6
3548.469	-18.6
3551.315	-18.6
3554.157	-22.6
3556.998	-25.6
3559.837	-23.6
3562.673	-29.6
3565.507	-27.6
3568.339	-20.6
3571.169	-27.6
3573.996	-25.6
3576.822	-29.6
3579.645	-30.6
3582.466	-27.6
3585.285	-29.6
3588.101	-31.6
3590.916	-30.6
3593.728	-34.6
3596.538	-38.6
3599.346	-40.6
3602.152	-41.6
3604.956	-37.6
3607.757	-23.6
3610.556	-32.6
3613.354	-42.6
3616.149	-41.6
3618.942	-34.6
3621.732	-37.6
3624.521	-34.6
3627.307	-34.6
3630.092	-39.6
3632.874	-39.6
3635.654	-45.6
3638.432	-40.6
3641.208	-41.6
3643.982	-34.6
3646.753	-49.6
3649.523	-43.6
3652.29	-45.6
3655.055	-45.6
3657.818	-49.6
3660.579	-44.6
3663.338	-44.6
3666.095	-47.6
3668.849	-41.6
3671.602	-42.6
3674.352	-40.6
3677.101	-43.6
3679.847	-43.6
3682.591	-49.6
3685.333	-47.6
3688.073	-54.6
3690.811	-48.6
3693.547	-49.6
3696.281	-51.6
3699.013	-50.6
3701.742	-52.6
3704.47	-47.6
3707.195	-45.6
3709.919	-48.6
3712.64	-47.6
3715.359	-48.6
3718.076	-52.6
3720.792	-48.6
3723.505	-51.6
3726.216	-49.6
3728.925	-55.6
3731.632	-46.6
3734.336	-53.6
3737.039	-50.6
3739.74	-54.6
3742.439	-57.6
3745.136	-55.6
3747.83	-51.6
3750.523	-51.6
3753.213	-62.6
3755.902	-48.6
3758.589	-53.6
3761.273	-53.6
3763.956	-53.6
3766.636	-52.6
3769.315	-48.6
3771.991	-53.6
3774.665	-59.6
3777.338	-57.6
3780.008	-58.6
3782.677	-57.6
3785.343	-53.6
3788.007	-57.6
3790.67	-55.6
3793.33	-52.6
3795.989	-54.6
3798.645	-56.6
3801.299	-50.6
3803.952	-53.6
3806.602	-51.6
3809.251	-55.6
3811.897	-55.6
3814.542	-60.6
3817.184	-56.6
3819.825	-51.6
3822.463	-57.6
3825.1	-48.6
3827.735	-58.6
3830.367	-55.6
3832.998	-54.6
3835.627	-55.6
3838.253	-45.6
3840.878	-47.6
3843.501	-45.6
3846.122	-52.6
3848.741	-54.6
3851.358	-55.6
3853.973	-51.6
3856.586	-56.6
3859.197	-53.6
3861.806	-60.6
3864.414	-53.6
3867.019	-56.6
3869.622	-48.6
3872.224	-40.6
3874.823	-32.6
3877.421	-17.6
3880.016	-11.6
3882.61	10.4
3885.202	11.4
3887.792	1.4
3890.38	-16.6
3892.966	-40.6
3895.55	-47.6
3898.132	-52.6
3900.713	-53.6
3903.291	-58.6
3905.868	-54.6
3908.442	-55.6
3911.015	-54.6
3913.586	-62.6
3916.155	-54.6
3918.722	-54.6
3921.287	-54.6
3923.85	-52.6
3926.411	-52.6
3928.971	-62.6
3931.528	-60.6
3934.084	-53.6
3936.638	-48.6
3939.19	-62.6
3941.74	-56.6
3944.288	-59.6
3946.834	-50.6
3949.378	-60.6
3951.921	-56.6
3954.462	-59.6
3957	-51.6
3959.537	-47.6
3962.072	-48.6
3964.606	-51.6
3967.137	-54.6
3969.667	-50.6
3972.194	-49.6
3974.72	-51.6
3977.244	-51.6
3979.766	-56.6
3982.286	-54.6
3984.805	-62.6
3987.321	-57.6
3989.836	-54.6
3992.349	-58.6
3994.86	-57.6
3997.369	-57.6
3999.877	-56.6
4002.382	-55.6
4004.886	-49.6
4007.388	-52.6
4009.888	-54.6
4012.386	-57.6
4014.883	-50.6
4017.377	-52.6
4019.87	-54.6
4022.361	-54.6
4024.85	-56.6
4027.338	-58.6
4029.823	-60.6
4032.307	-53.6
4034.789	-54.6
4037.269	-54.6
4039.747	-55.6
4042.224	-53.6
4044.699	-52.6
4047.172	-56.6
4049.643	-51.6
4052.112	-53.6
4054.58	-53.6
4057.046	-47.6
4059.51	-54.6
4061.972	-60.6
4064.432	-56.6
4066.891	-52.6
4069.348	-54.6
4071.803	-50.6
4074.256	-55.6
4076.708	-53.6
4079.158	-61.6
4081.606	-54.6
4084.052	-57.6
4086.497	-51.6
4088.939	-48.6
4091.38	-53.6
4093.819	-58.6
4096.257	-58.6
4098.693	-59.6
4101.127	-50.6
4103.559	-61.6
4105.989	26.4
4108.418	21.4
4110.845	17.4
4113.27	15.4
4115.694	14.4
4118.115	17.4
4120.535	-53.6
4122.954	-54.6
4125.37	-54.6
4127.785	-46.6
4130.198	-48.6
4132.609	-56.6
4135.019	-55.6
4137.427	-59.6
4139.833	-56.6
4142.237	-57.6
