Data from 2018-3-7_conc=0_n=3_RamanShift_04.txt Node
Date: Wed Mar 07 10:12:53 IST 2018
User: aro
Spectrometer: QEPB0276
Trigger mode: 0
Integration Time (sec): 3.000000E1
Scans to average: 1
Electric dark correction enabled: true
Nonlinearity correction enabled: false
Boxcar width: 0
XAxis mode: Raman Shifts
Number of Pixels in Spectrum: 1044
>>>>>Begin Spectral Data<<<<<
160.701	6.8
166.742	21.8
172.777	64.8
178.805	181.8
184.826	467.8
190.841	996.8
196.849	1668.8
202.85	2183.8
208.845	2408.8
214.833	2432.8
220.815	2402.8
226.789	2406.8
232.758	2413.8
238.719	2427.8
244.674	2424.8
250.623	2422.8
256.565	2403.8
262.5	2378.8
268.429	2376.8
274.351	2352.8
280.267	2337.8
286.176	2354.8
292.079	2336.8
297.975	2333.8
303.865	2347.8
309.748	2352.8
315.625	2352.8
321.495	2340.8
327.359	2333.8
333.217	2347.8
339.068	2366.8
344.912	2372.8
350.751	2385.8
356.583	2373.8
362.408	2368.8
368.227	2403.8
374.04	2404.8
379.847	2452.8
385.647	2421.8
391.44	2444.8
397.228	2452.8
403.009	2475.8
408.784	2499.8
414.553	2504.8
420.315	2495.8
426.071	2508.8
431.821	2525.8
437.565	2551.8
443.302	2536.8
449.033	2538.8
454.758	2493.8
460.477	2484.8
466.189	2462.8
471.896	2440.8
477.596	2403.8
483.29	2401.8
488.978	2392.8
494.66	2381.8
500.335	2342.8
506.005	2247.8
511.668	2135.8
517.325	2054.8
522.977	1964.8
528.622	1907.8
534.261	1877.8
539.894	1833.8
545.521	1825.8
551.141	1783.8
556.756	1775.8
562.365	1773.8
567.968	1740.8
573.565	1743.8
579.155	1717.8
584.74	1732.8
590.319	1708.8
595.892	1707.8
601.459	1698.8
607.02	1726.8
612.575	1693.8
618.124	1663.8
623.667	1659.8
629.204	1622.8
634.735	1632.8
640.261	1610.8
645.781	1581.8
651.294	1585.8
656.802	1579.8
662.304	1555.8
667.8	1571.8
673.29	1560.8
678.775	1546.8
684.254	1555.8
689.726	1539.8
695.193	1531.8
700.655	1534.8
706.11	1524.8
711.56	1502.8
717.004	1493.8
722.442	1485.8
727.874	1471.8
733.301	1486.8
738.722	1467.8
744.137	1464.8
749.547	1465.8
754.951	1470.8
760.349	1457.8
765.741	1476.8
771.128	1491.8
776.509	1489.8
781.885	1530.8
787.254	1524.8
792.618	1532.8
797.977	1539.8
803.33	1507.8
808.677	1511.8
814.019	1491.8
819.355	1476.8
824.686	1457.8
830.011	1457.8
835.33	1453.8
840.644	1454.8
845.952	1461.8
851.255	1465.8
856.552	1461.8
861.844	1443.8
867.13	1447.8
872.41	1508.8
877.686	1607.8
882.955	1682.8
888.219	1662.8
893.478	1575.8
898.731	1431.8
903.979	1355.8
909.221	1319.8
914.458	1301.8
919.69	1312.8
924.916	1298.8
930.136	1290.8
935.351	1292.8
940.561	1283.8
945.766	1306.8
950.965	1278.8
956.158	1271.8
961.347	1261.8
966.529	1242.8
971.707	1210.8
976.879	1223.8
982.046	1176.8
987.208	1199.8
992.364	1195.8
997.515	1187.8
1002.66	1208.8
1007.801	1226.8
1012.936	1242.8
1018.066	1255.8
1023.19	1264.8
1028.309	1282.8
1033.423	1271.8
1038.532	1279.8
1043.636	1282.8
1048.734	1295.8
1053.827	1295.8
1058.915	1268.8
1063.998	1235.8
1069.075	1230.8
1074.147	1212.8
1079.214	1234.8
1084.276	1242.8
1089.333	1280.8
1094.385	1273.8
1099.431	1249.8
1104.472	1235.8
1109.509	1210.8
1114.54	1184.8
1119.565	1161.8
1124.586	1135.8
1129.602	1141.8
1134.613	1108.8
1139.618	1111.8
1144.619	1111.8
1149.614	1098.8
1154.604	1094.8
1159.589	1101.8
1164.57	1095.8
1169.545	1111.8
1174.515	1112.8
1179.48	1115.8
1184.44	1089.8
1189.395	1073.8
1194.345	1074.8
1199.29	1050.8
1204.23	1067.8
1209.165	1068.8
1214.095	1072.8
1219.021	1089.8
1223.941	1075.8
1228.856	1074.8
1233.766	1097.8
1238.672	1103.8
1243.572	1089.8
1248.467	1077.8
1253.358	1063.8
1258.244	1074.8
1263.124	1045.8
1268	1042.8
1272.871	1008.8
1277.737	1021.8
1282.599	1039.8
1287.455	1028.8
1292.306	1007.8
1297.153	1021.8
1301.995	1012.8
1306.832	1016.8
1311.664	1020.8
1316.491	1012.8
1321.314	1006.8
1326.132	1001.8
1330.945	989.8
1335.753	969.8
1340.556	929.8
1345.354	920.8
1350.148	910.8
1354.937	879.8
1359.722	848.8
1364.501	837.8
1369.276	825.8
1374.046	800.8
1378.811	812.8
1383.572	814.8
1388.327	812.8
1393.079	816.8
1397.825	832.8
1402.567	832.8
1407.304	831.8
1412.036	844.8
1416.764	852.8
1421.487	842.8
1426.205	855.8
1430.919	858.8
1435.628	872.8
1440.333	883.8
1445.032	880.8
1449.727	935.8
1454.418	954.8
1459.104	976.8
1463.785	982.8
1468.462	915.8
1473.134	855.8
1477.802	802.8
1482.465	782.8
1487.123	755.8
1491.777	740.8
1496.426	724.8
1501.071	715.8
1505.711	691.8
1510.347	687.8
1514.978	665.8
1519.604	662.8
1524.226	662.8
1528.844	664.8
1533.457	663.8
1538.065	658.8
1542.669	675.8
1547.269	648.8
1551.864	665.8
1556.454	676.8
1561.041	696.8
1565.622	704.8
1570.199	688.8
1574.772	699.8
1579.34	715.8
1583.904	714.8
1588.464	718.8
1593.019	726.8
1597.569	736.8
1602.115	722.8
1606.657	717.8
1611.195	699.8
1615.728	710.8
1620.256	696.8
1624.78	710.8
1629.3	706.8
1633.816	706.8
1638.327	705.8
1642.834	689.8
1647.336	701.8
1651.834	694.8
1656.328	690.8
1660.817	689.8
1665.302	685.8
1669.783	658.8
1674.259	649.8
1678.732	627.8
1683.199	599.8
1687.663	587.8
1692.122	537.8
1696.577	531.8
1701.028	496.8
1705.474	462.8
1709.917	455.8
1714.355	441.8
1718.788	443.8
1723.218	445.8
1727.643	450.8
1732.064	461.8
1736.481	451.8
1740.893	446.8
1745.301	445.8
1749.705	433.8
1754.105	408.8
1758.501	404.8
1762.893	409.8
1767.28	394.8
1771.663	380.8
1776.042	380.8
1780.417	366.8
1784.787	360.8
1789.154	355.8
1793.516	333.8
1797.874	331.8
1802.228	338.8
1806.578	328.8
1810.924	325.8
1815.266	316.8
1819.603	325.8
1823.937	334.8
1828.266	337.8
1832.591	340.8
1836.913	348.8
1841.23	345.8
1845.543	346.8
1849.852	353.8
1854.156	357.8
1858.457	364.8
1862.754	341.8
1867.047	343.8
1871.335	338.8
1875.62	336.8
1879.9	339.8
1884.177	328.8
1888.449	330.8
1892.718	327.8
1896.982	313.8
1901.243	300.8
1905.499	300.8
1909.752	280.8
1914	280.8
1918.245	276.8
1922.485	267.8
1926.722	257.8
1930.954	256.8
1935.183	254.8
1939.408	257.8
1943.628	251.8
1947.845	248.8
1952.058	244.8
1956.267	240.8
1960.472	248.8
1964.673	240.8
1968.87	250.8
1973.063	249.8
1977.252	245.8
1981.438	246.8
1985.619	234.8
1989.797	252.8
1993.971	261.8
1998.14	263.8
2002.306	261.8
2006.469	261.8
2010.627	255.8
2014.781	260.8
2018.932	256.8
2023.078	262.8
2027.221	261.8
2031.36	255.8
2035.495	244.8
2039.627	242.8
2043.754	238.8
2047.878	241.8
2051.998	232.8
2056.114	235.8
2060.226	220.8
2064.334	224.8
2068.439	212.8
2072.54	213.8
2076.637	216.8
2080.73	226.8
2084.82	214.8
2088.906	211.8
2092.988	199.8
2097.066	202.8
2101.14	209.8
2105.211	194.8
2109.278	195.8
2113.342	194.8
2117.401	200.8
2121.457	185.8
2125.509	186.8
2129.558	190.8
2133.602	188.8
2137.643	200.8
2141.681	203.8
2145.714	195.8
2149.744	204.8
2153.77	200.8
2157.793	201.8
2161.812	208.8
2165.827	206.8
2169.838	201.8
2173.846	188.8
2177.851	193.8
2181.851	197.8
2185.848	187.8
2189.841	185.8
2193.831	184.8
2197.817	189.8
2201.799	185.8
2205.778	187.8
2209.753	191.8
2213.725	186.8
2217.693	196.8
2221.657	188.8
2225.618	182.8
2229.575	187.8
2233.529	180.8
2237.479	188.8
2241.425	175.8
2245.368	180.8
2249.307	173.8
2253.243	175.8
2257.175	168.8
2261.104	167.8
2265.029	170.8
2268.95	168.8
2272.868	162.8
2276.783	164.8
2280.694	163.8
2284.601	153.8
2288.505	161.8
2292.405	162.8
2296.302	164.8
2300.195	150.8
2304.085	151.8
2307.971	161.8
2311.854	152.8
2315.734	142.8
2319.609	154.8
2323.482	150.8
2327.351	159.8
2331.216	164.8
2335.078	187.8
2338.937	173.8
2342.792	159.8
2346.643	153.8
2350.492	152.8
2354.336	152.8
2358.178	145.8
2362.015	153.8
2365.85	154.8
2369.681	157.8
2373.508	157.8
2377.333	158.8
2381.153	151.8
2384.971	146.8
2388.785	148.8
2392.595	161.8
2396.402	155.8
2400.206	157.8
2404.007	156.8
2407.804	150.8
2411.597	146.8
2415.388	145.8
2419.174	154.8
2422.958	155.8
2426.738	154.8
2430.515	147.8
2434.289	145.8
2438.059	142.8
2441.825	131.8
2445.589	136.8
2449.349	138.8
2453.106	146.8
2456.859	124.8
2460.61	134.8
2464.356	137.8
2468.1	125.8
2471.84	124.8
2475.577	127.8
2479.311	127.8
2483.041	123.8
2486.768	124.8
2490.492	123.8
2494.213	119.8
2497.93	120.8
2501.644	119.8
2505.355	110.8
2509.062	112.8
2512.766	118.8
2516.467	106.8
2520.165	113.8
2523.859	105.8
2527.551	101.8
2531.239	107.8
2534.923	95.8
2538.605	90.8
2542.283	83.8
2545.958	96.8
2549.63	96.8
2553.299	85.8
2556.964	88.8
2560.626	92.8
2564.285	92.8
2567.941	84.8
2571.594	87.8
2575.243	81.8
2578.89	76.8
2582.533	85.8
2586.173	80.8
2589.809	85.8
2593.443	84.8
2597.073	78.8
2600.701	82.8
2604.325	70.8
2607.946	68.8
2611.564	77.8
2615.178	76.8
2618.79	73.8
2622.398	74.8
2626.004	72.8
2629.606	68.8
2633.205	76.8
2636.801	75.8
2640.394	74.8
2643.983	73.8
2647.57	65.8
2651.153	63.8
2654.734	65.8
2658.311	66.8
2661.885	70.8
2665.456	68.8
2669.025	71.8
2672.589	60.8
2676.151	69.8
2679.71	61.8
2683.266	65.8
2686.819	70.8
2690.368	66.8
2693.915	68.8
2697.458	54.8
2700.999	64.8
2704.536	67.8
2708.071	60.8
2711.602	51.8
2715.13	54.8
2718.656	64.8
2722.178	53.8
2725.697	49.8
2729.214	48.8
2732.727	60.8
2736.237	54.8
2739.744	45.8
2743.249	46.8
2746.75	48.8
2750.248	41.8
2753.743	37.8
2757.236	43.8
2760.725	34.8
2764.211	38.8
2767.695	34.8
2771.175	35.8
2774.652	40.8
2778.127	30.8
2781.598	38.8
2785.067	29.8
2788.532	32.8
2791.995	37.8
2795.455	33.8
2798.911	40.8
2802.365	38.8
2805.816	38.8
2809.264	36.8
2812.709	35.8
2816.151	39.8
2819.59	50.8
2823.026	49.8
2826.46	47.8
2829.89	45.8
2833.318	47.8
2836.742	52.8
2840.164	46.8
2843.583	51.8
2846.999	55.8
2850.412	61.8
2853.822	57.8
2857.229	64.8
2860.634	63.8
2864.035	67.8
2867.434	76.8
2870.83	83.8
2874.223	94.8
2877.613	98.8
2881	112.8
2884.385	117.8
2887.766	119.8
2891.145	120.8
2894.521	125.8
2897.894	112.8
2901.264	118.8
2904.631	112.8
2907.996	114.8
2911.358	120.8
2914.717	119.8
2918.073	117.8
2921.426	119.8
2924.777	129.8
2928.124	144.8
2931.469	149.8
2934.811	179.8
2938.15	177.8
2941.487	187.8
2944.821	175.8
2948.152	164.8
2951.48	152.8
2954.805	143.8
2958.128	123.8
2961.447	117.8
2964.765	106.8
2968.079	104.8
2971.39	110.8
2974.699	110.8
2978.005	110.8
2981.308	98.8
2984.609	101.8
2987.907	103.8
2991.202	98.8
2994.494	95.8
2997.784	91.8
3001.07	85.8
3004.355	87.8
3007.636	78.8
3010.915	78.8
3014.191	75.8
3017.464	71.8
3020.734	79.8
3024.002	79.8
3027.267	77.8
3030.53	75.8
3033.789	82.8
3037.046	80.8
3040.301	79.8
3043.552	80.8
3046.801	89.8
3050.048	89.8
3053.291	81.8
3056.532	93.8
3059.771	96.8
3063.006	103.8
3066.239	105.8
3069.469	109.8
3072.697	112.8
3075.922	114.8
3079.144	117.8
3082.364	122.8
3085.581	115.8
3088.795	125.8
3092.007	123.8
3095.216	130.8
3098.423	128.8
3101.627	130.8
3104.828	137.8
3108.026	137.8
3111.222	142.8
3114.416	140.8
3117.607	138.8
3120.795	148.8
3123.98	157.8
3127.163	170.8
3130.344	158.8
3133.521	161.8
3136.696	159.8
3139.869	169.8
3143.039	169.8
3146.206	184.8
3149.371	175.8
3152.533	188.8
3155.693	188.8
3158.85	187.8
3162.005	184.8
3165.157	176.8
3168.306	183.8
3171.453	180.8
3174.597	189.8
3177.739	187.8
3180.878	181.8
3184.014	183.8
3187.149	186.8
3190.28	187.8
3193.409	194.8
3196.536	181.8
3199.659	197.8
3202.781	189.8
3205.9	185.8
3209.016	193.8
3212.13	190.8
3215.241	184.8
3218.35	180.8
3221.456	189.8
3224.56	171.8
3227.661	167.8
3230.76	156.8
3233.856	165.8
3236.95	157.8
3240.041	155.8
3243.13	160.8
3246.216	146.8
3249.3	150.8
3252.382	150.8
3255.46	135.8
3258.537	139.8
3261.611	136.8
3264.682	135.8
3267.751	132.8
3270.818	125.8
3273.882	134.8
3276.943	120.8
3280.002	129.8
3283.059	131.8
3286.113	127.8
3289.165	123.8
3292.214	128.8
3295.261	121.8
3298.306	122.8
3301.348	122.8
3304.387	123.8
3307.425	127.8
3310.459	121.8
3313.492	118.8
3316.521	124.8
3319.549	124.8
3322.574	123.8
3325.597	121.8
3328.617	115.8
3331.635	123.8
3334.65	129.8
3337.663	118.8
3340.674	129.8
3343.682	110.8
3346.688	117.8
3349.691	120.8
3352.692	124.8
3355.691	119.8
3358.687	108.8
3361.681	114.8
3364.673	117.8
3367.662	110.8
3370.649	118.8
3373.633	106.8
3376.615	105.8
3379.595	99.8
3382.572	97.8
3385.547	99.8
3388.52	90.8
3391.49	92.8
3394.458	95.8
3397.424	80.8
3400.387	95.8
3403.348	82.8
3406.307	82.8
3409.263	88.8
3412.217	81.8
3415.168	91.8
3418.118	72.8
3421.065	74.8
3424.009	75.8
3426.951	72.8
3429.891	71.8
3432.829	74.8
3435.764	71.8
3438.697	66.8
3441.628	56.8
3444.557	53.8
3447.483	51.8
3450.407	47.8
3453.328	41.8
3456.247	42.8
3459.164	42.8
3462.079	37.8
3464.991	32.8
3467.902	31.8
3470.809	27.8
3473.715	27.8
3476.618	20.8
3479.519	18.8
3482.418	18.8
3485.315	18.8
3488.209	9.8
3491.101	1.8
3493.99	9.8
3496.878	9.8
3499.763	4.8
3502.646	2.8
3505.527	3.8
3508.405	0.8
3511.281	-0.2
3514.155	-8.2
3517.027	-10.2
3519.897	-5.2
3522.764	-11.2
3525.629	-4.2
3528.492	-20.2
3531.352	-20.2
3534.211	-17.2
3537.067	-20.2
3539.921	-16.2
3542.773	-24.2
3545.622	-24.2
3548.469	-24.2
3551.315	-30.2
3554.157	-33.2
3556.998	-23.2
3559.837	-27.2
3562.673	-37.2
3565.507	-33.2
3568.339	-29.2
3571.169	-40.2
3573.996	-34.2
3576.822	-41.2
3579.645	-39.2
3582.466	-30.2
3585.285	-36.2
3588.101	-43.2
3590.916	-36.2
3593.728	-42.2
3596.538	-45.2
3599.346	-47.2
3602.152	-38.2
3604.956	-44.2
3607.757	-38.2
3610.556	-41.2
3613.354	-51.2
3616.149	-53.2
3618.942	-45.2
3621.732	-43.2
3624.521	-46.2
3627.307	-46.2
3630.092	-51.2
3632.874	-56.2
3635.654	-52.2
3638.432	-52.2
3641.208	-53.2
3643.982	-45.2
3646.753	-53.2
3649.523	-45.2
3652.29	-55.2
3655.055	-51.2
3657.818	-56.2
3660.579	-50.2
3663.338	-51.2
3666.095	-54.2
3668.849	-56.2
3671.602	-58.2
3674.352	-56.2
3677.101	-58.2
3679.847	-56.2
3682.591	-57.2
3685.333	-55.2
3688.073	-63.2
3690.811	-59.2
3693.547	-59.2
3696.281	-57.2
3699.013	-56.2
3701.742	-60.2
3704.47	-55.2
3707.195	-57.2
3709.919	-58.2
3712.64	-58.2
3715.359	-63.2
3718.076	-64.2
3720.792	-60.2
3723.505	-62.2
3726.216	-59.2
3728.925	-62.2
3731.632	-60.2
3734.336	-61.2
3737.039	-57.2
3739.74	-66.2
3742.439	-62.2
3745.136	-63.2
3747.83	-67.2
3750.523	-68.2
3753.213	-71.2
3755.902	-65.2
3758.589	-63.2
3761.273	-60.2
3763.956	-62.2
3766.636	-62.2
3769.315	-60.2
3771.991	-68.2
3774.665	-67.2
3777.338	-63.2
3780.008	-67.2
3782.677	-66.2
3785.343	-64.2
3788.007	-62.2
3790.67	-67.2
3793.33	-64.2
3795.989	-64.2
3798.645	-67.2
3801.299	-64.2
3803.952	-66.2
3806.602	-71.2
3809.251	-65.2
3811.897	-70.2
3814.542	-74.2
3817.184	-65.2
3819.825	-65.2
3822.463	-61.2
3825.1	-62.2
3827.735	-72.2
3830.367	-65.2
3832.998	-67.2
3835.627	-68.2
3838.253	-63.2
3840.878	-61.2
3843.501	-65.2
3846.122	-69.2
3848.741	-68.2
3851.358	-70.2
3853.973	-64.2
3856.586	-64.2
3859.197	-66.2
3861.806	-69.2
3864.414	-67.2
3867.019	-67.2
3869.622	-62.2
3872.224	-59.2
3874.823	-51.2
3877.421	-49.2
3880.016	-40.2
3882.61	-26.2
3885.202	-28.2
3887.792	-32.2
3890.38	-44.2
3892.966	-54.2
3895.55	-59.2
3898.132	-62.2
3900.713	-63.2
3903.291	-69.2
3905.868	-65.2
3908.442	-73.2
3911.015	-63.2
3913.586	-70.2
3916.155	-71.2
3918.722	-66.2
3921.287	-67.2
3923.85	-64.2
3926.411	-67.2
3928.971	-72.2
3931.528	-62.2
3934.084	-60.2
3936.638	-64.2
3939.19	-69.2
3941.74	-65.2
3944.288	-63.2
3946.834	-63.2
3949.378	-67.2
3951.921	-71.2
3954.462	-67.2
3957	-57.2
3959.537	-59.2
3962.072	-67.2
3964.606	-66.2
3967.137	-63.2
3969.667	-64.2
3972.194	-60.2
3974.72	-63.2
3977.244	-64.2
3979.766	-68.2
3982.286	-63.2
3984.805	-73.2
3987.321	-62.2
3989.836	-62.2
3992.349	-65.2
3994.86	-67.2
3997.369	-68.2
3999.877	-69.2
4002.382	-68.2
4004.886	-67.2
4007.388	-67.2
4009.888	-63.2
4012.386	-69.2
4014.883	-67.2
4017.377	-67.2
4019.87	-71.2
4022.361	-71.2
4024.85	-64.2
4027.338	-68.2
4029.823	-69.2
4032.307	-68.2
4034.789	-67.2
4037.269	-67.2
4039.747	-66.2
4042.224	-67.2
4044.699	-66.2
4047.172	-71.2
4049.643	-68.2
4052.112	-69.2
4054.58	-69.2
4057.046	-63.2
4059.51	-68.2
4061.972	-69.2
4064.432	-63.2
4066.891	-59.2
4069.348	-69.2
4071.803	-59.2
4074.256	-65.2
4076.708	-65.2
4079.158	-62.2
4081.606	-61.2
4084.052	-65.2
4086.497	-62.2
4088.939	-60.2
4091.38	-68.2
4093.819	-74.2
4096.257	-66.2
4098.693	-67.2
4101.127	-64.2
4103.559	-71.2
4105.989	16.8
4108.418	6.8
4110.845	4.8
4113.27	7.8
4115.694	7.8
4118.115	9.8
4120.535	-66.2
4122.954	-58.2
4125.37	-61.2
4127.785	-56.2
4130.198	-61.2
4132.609	-65.2
4135.019	-71.2
4137.427	-70.2
4139.833	-68.2
4142.237	-65.2
