Data from 2018-3-7_conc=4_n=8_RamanShift_05.txt Node
Date: Wed Mar 07 12:14:22 IST 2018
User: aro
Spectrometer: QEPB0276
Trigger mode: 0
Integration Time (sec): 3.000000E1
Scans to average: 1
Electric dark correction enabled: true
Nonlinearity correction enabled: false
Boxcar width: 0
XAxis mode: Raman Shifts
Number of Pixels in Spectrum: 1044
>>>>>Begin Spectral Data<<<<<
160.701	5.4
166.742	16.4
172.777	52.4
178.805	150.4
184.826	380.4
190.841	826.4
196.849	1377.4
202.85	1784.4
208.845	1958.4
214.833	1971.4
220.815	1924.4
226.789	1926.4
232.758	1938.4
238.719	1928.4
244.674	1917.4
250.623	1920.4
256.565	1893.4
262.5	1864.4
268.429	1826.4
274.351	1832.4
280.267	1800.4
286.176	1819.4
292.079	1823.4
297.975	1819.4
303.865	1808.4
309.748	1804.4
315.625	1806.4
321.495	1805.4
327.359	1810.4
333.217	1810.4
339.068	1816.4
344.912	1810.4
350.751	1800.4
356.583	1833.4
362.408	1815.4
368.227	1818.4
374.04	1832.4
379.847	1837.4
385.647	1854.4
391.44	1855.4
397.228	1858.4
403.009	1869.4
408.784	1871.4
414.553	1889.4
420.315	1877.4
426.071	1899.4
431.821	1870.4
437.565	1884.4
443.302	1879.4
449.033	1884.4
454.758	1861.4
460.477	1847.4
466.189	1827.4
471.896	1822.4
477.596	1818.4
483.29	1806.4
488.978	1819.4
494.66	1779.4
500.335	1782.4
506.005	1725.4
511.668	1666.4
517.325	1614.4
522.977	1566.4
528.622	1522.4
534.261	1502.4
539.894	1461.4
545.521	1458.4
551.141	1450.4
556.756	1436.4
562.365	1433.4
567.968	1401.4
573.565	1411.4
579.155	1395.4
584.74	1401.4
590.319	1371.4
595.892	1389.4
601.459	1389.4
607.02	1374.4
612.575	1357.4
618.124	1360.4
623.667	1340.4
629.204	1315.4
634.735	1304.4
640.261	1301.4
645.781	1310.4
651.294	1295.4
656.802	1299.4
662.304	1289.4
667.8	1291.4
673.29	1284.4
678.775	1269.4
684.254	1279.4
689.726	1280.4
695.193	1272.4
700.655	1238.4
706.11	1235.4
711.56	1241.4
717.004	1244.4
722.442	1204.4
727.874	1213.4
733.301	1218.4
738.722	1199.4
744.137	1198.4
749.547	1222.4
754.951	1183.4
760.349	1208.4
765.741	1187.4
771.128	1202.4
776.509	1224.4
781.885	1232.4
787.254	1228.4
792.618	1242.4
797.977	1235.4
803.33	1226.4
808.677	1201.4
814.019	1207.4
819.355	1206.4
824.686	1185.4
830.011	1188.4
835.33	1163.4
840.644	1163.4
845.952	1178.4
851.255	1179.4
856.552	1150.4
861.844	1150.4
867.13	1132.4
872.41	1143.4
877.686	1124.4
882.955	1130.4
888.219	1099.4
893.478	1096.4
898.731	1063.4
903.979	1070.4
909.221	1057.4
914.458	1054.4
919.69	1065.4
924.916	1048.4
930.136	1055.4
935.351	1055.4
940.561	1054.4
945.766	1058.4
950.965	1053.4
956.158	1059.4
961.347	1032.4
966.529	1023.4
971.707	1008.4
976.879	992.4
982.046	986.4
987.208	972.4
992.364	992.4
997.515	986.4
1002.66	989.4
1007.801	1005.4
1012.936	993.4
1018.066	1004.4
1023.19	1011.4
1028.309	1004.4
1033.423	995.4
1038.532	1000.4
1043.636	994.4
1048.734	986.4
1053.827	967.4
1058.915	968.4
1063.998	955.4
1069.075	950.4
1074.147	962.4
1079.214	955.4
1084.276	967.4
1089.333	960.4
1094.385	967.4
1099.431	961.4
1104.472	961.4
1109.509	950.4
1114.54	939.4
1119.565	927.4
1124.586	927.4
1129.602	909.4
1134.613	885.4
1139.618	888.4
1144.619	886.4
1149.614	886.4
1154.604	898.4
1159.589	899.4
1164.57	899.4
1169.545	894.4
1174.515	891.4
1179.48	895.4
1184.44	897.4
1189.395	876.4
1194.345	875.4
1199.29	874.4
1204.23	870.4
1209.165	868.4
1214.095	881.4
1219.021	884.4
1223.941	888.4
1228.856	895.4
1233.766	890.4
1238.672	896.4
1243.572	884.4
1248.467	882.4
1253.358	855.4
1258.244	856.4
1263.124	844.4
1268	837.4
1272.871	825.4
1277.737	821.4
1282.599	829.4
1287.455	810.4
1292.306	831.4
1297.153	824.4
1301.995	831.4
1306.832	827.4
1311.664	823.4
1316.491	824.4
1321.314	819.4
1326.132	831.4
1330.945	795.4
1335.753	805.4
1340.556	767.4
1345.354	767.4
1350.148	756.4
1354.937	731.4
1359.722	711.4
1364.501	707.4
1369.276	681.4
1374.046	680.4
1378.811	678.4
1383.572	666.4
1388.327	657.4
1393.079	664.4
1397.825	660.4
1402.567	672.4
1407.304	691.4
1412.036	681.4
1416.764	686.4
1421.487	680.4
1426.205	680.4
1430.919	692.4
1435.628	691.4
1440.333	707.4
1445.032	695.4
1449.727	720.4
1454.418	707.4
1459.104	711.4
1463.785	689.4
1468.462	671.4
1473.134	664.4
1477.802	646.4
1482.465	621.4
1487.123	601.4
1491.777	605.4
1496.426	603.4
1501.071	598.4
1505.711	583.4
1510.347	575.4
1514.978	566.4
1519.604	569.4
1524.226	559.4
1528.844	564.4
1533.457	553.4
1538.065	559.4
1542.669	560.4
1547.269	549.4
1551.864	560.4
1556.454	578.4
1561.041	597.4
1565.622	596.4
1570.199	579.4
1574.772	590.4
1579.34	599.4
1583.904	604.4
1588.464	618.4
1593.019	606.4
1597.569	630.4
1602.115	603.4
1606.657	610.4
1611.195	630.4
1615.728	608.4
1620.256	601.4
1624.78	607.4
1629.3	613.4
1633.816	626.4
1638.327	615.4
1642.834	621.4
1647.336	598.4
1651.834	607.4
1656.328	616.4
1660.817	606.4
1665.302	600.4
1669.783	585.4
1674.259	579.4
1678.732	547.4
1683.199	536.4
1687.663	522.4
1692.122	478.4
1696.577	462.4
1701.028	441.4
1705.474	428.4
1709.917	415.4
1714.355	400.4
1718.788	403.4
1723.218	398.4
1727.643	407.4
1732.064	410.4
1736.481	396.4
1740.893	381.4
1745.301	394.4
1749.705	384.4
1754.105	365.4
1758.501	364.4
1762.893	353.4
1767.28	345.4
1771.663	340.4
1776.042	331.4
1780.417	330.4
1784.787	323.4
1789.154	315.4
1793.516	312.4
1797.874	299.4
1802.228	310.4
1806.578	303.4
1810.924	294.4
1815.266	295.4
1819.603	295.4
1823.937	302.4
1828.266	305.4
1832.591	304.4
1836.913	303.4
1841.23	304.4
1845.543	312.4
1849.852	313.4
1854.156	308.4
1858.457	305.4
1862.754	321.4
1867.047	309.4
1871.335	308.4
1875.62	308.4
1879.9	300.4
1884.177	302.4
1888.449	299.4
1892.718	291.4
1896.982	289.4
1901.243	280.4
1905.499	277.4
1909.752	273.4
1914	274.4
1918.245	266.4
1922.485	249.4
1926.722	247.4
1930.954	245.4
1935.183	249.4
1939.408	251.4
1943.628	243.4
1947.845	246.4
1952.058	236.4
1956.267	231.4
1960.472	232.4
1964.673	229.4
1968.87	225.4
1973.063	230.4
1977.252	229.4
1981.438	230.4
1985.619	225.4
1989.797	230.4
1993.971	236.4
1998.14	227.4
2002.306	247.4
2006.469	247.4
2010.627	235.4
2014.781	238.4
2018.932	242.4
2023.078	240.4
2027.221	234.4
2031.36	242.4
2035.495	225.4
2039.627	223.4
2043.754	219.4
2047.878	216.4
2051.998	210.4
2056.114	213.4
2060.226	211.4
2064.334	215.4
2068.439	205.4
2072.54	206.4
2076.637	210.4
2080.73	211.4
2084.82	205.4
2088.906	207.4
2092.988	198.4
2097.066	197.4
2101.14	202.4
2105.211	192.4
2109.278	187.4
2113.342	179.4
2117.401	191.4
2121.457	177.4
2125.509	174.4
2129.558	177.4
2133.602	184.4
2137.643	187.4
2141.681	173.4
2145.714	185.4
2149.744	188.4
2153.77	186.4
2157.793	185.4
2161.812	199.4
2165.827	195.4
2169.838	177.4
2173.846	179.4
2177.851	174.4
2181.851	176.4
2185.848	171.4
2189.841	170.4
2193.831	161.4
2197.817	162.4
2201.799	164.4
2205.778	180.4
2209.753	164.4
2213.725	170.4
2217.693	166.4
2221.657	168.4
2225.618	170.4
2229.575	157.4
2233.529	158.4
2237.479	169.4
2241.425	159.4
2245.368	165.4
2249.307	160.4
2253.243	151.4
2257.175	151.4
2261.104	146.4
2265.029	145.4
2268.95	150.4
2272.868	148.4
2276.783	140.4
2280.694	135.4
2284.601	132.4
2288.505	140.4
2292.405	140.4
2296.302	140.4
2300.195	133.4
2304.085	135.4
2307.971	130.4
2311.854	127.4
2315.734	121.4
2319.609	136.4
2323.482	132.4
2327.351	134.4
2331.216	131.4
2335.078	145.4
2338.937	135.4
2342.792	118.4
2346.643	128.4
2350.492	132.4
2354.336	128.4
2358.178	123.4
2362.015	130.4
2365.85	126.4
2369.681	130.4
2373.508	139.4
2377.333	132.4
2381.153	130.4
2384.971	123.4
2388.785	126.4
2392.595	125.4
2396.402	126.4
2400.206	128.4
2404.007	120.4
2407.804	127.4
2411.597	125.4
2415.388	123.4
2419.174	123.4
2422.958	126.4
2426.738	119.4
2430.515	117.4
2434.289	118.4
2438.059	112.4
2441.825	118.4
2445.589	110.4
2449.349	121.4
2453.106	116.4
2456.859	117.4
2460.61	108.4
2464.356	109.4
2468.1	111.4
2471.84	110.4
2475.577	103.4
2479.311	101.4
2483.041	100.4
2486.768	99.4
2490.492	109.4
2494.213	101.4
2497.93	91.4
2501.644	99.4
2505.355	89.4
2509.062	97.4
2512.766	98.4
2516.467	94.4
2520.165	93.4
2523.859	103.4
2527.551	89.4
2531.239	86.4
2534.923	84.4
2538.605	86.4
2542.283	77.4
2545.958	82.4
2549.63	83.4
2553.299	76.4
2556.964	72.4
2560.626	73.4
2564.285	72.4
2567.941	67.4
2571.594	79.4
2575.243	77.4
2578.89	71.4
2582.533	66.4
2586.173	66.4
2589.809	74.4
2593.443	75.4
2597.073	70.4
2600.701	66.4
2604.325	61.4
2607.946	58.4
2611.564	66.4
2615.178	68.4
2618.79	65.4
2622.398	69.4
2626.004	59.4
2629.606	62.4
2633.205	64.4
2636.801	63.4
2640.394	63.4
2643.983	61.4
2647.57	67.4
2651.153	55.4
2654.734	60.4
2658.311	62.4
2661.885	59.4
2665.456	60.4
2669.025	64.4
2672.589	51.4
2676.151	56.4
2679.71	54.4
2683.266	57.4
2686.819	51.4
2690.368	51.4
2693.915	56.4
2697.458	44.4
2700.999	48.4
2704.536	45.4
2708.071	53.4
2711.602	44.4
2715.13	42.4
2718.656	46.4
2722.178	44.4
2725.697	44.4
2729.214	35.4
2732.727	45.4
2736.237	38.4
2739.744	37.4
2743.249	38.4
2746.75	37.4
2750.248	38.4
2753.743	27.4
2757.236	24.4
2760.725	28.4
2764.211	26.4
2767.695	25.4
2771.175	29.4
2774.652	29.4
2778.127	32.4
2781.598	30.4
2785.067	29.4
2788.532	25.4
2791.995	35.4
2795.455	24.4
2798.911	31.4
2802.365	32.4
2805.816	23.4
2809.264	23.4
2812.709	24.4
2816.151	27.4
2819.59	42.4
2823.026	36.4
2826.46	32.4
2829.89	30.4
2833.318	28.4
2836.742	38.4
2840.164	37.4
2843.583	29.4
2846.999	33.4
2850.412	32.4
2853.822	36.4
2857.229	35.4
2860.634	23.4
2864.035	31.4
2867.434	36.4
2870.83	45.4
2874.223	30.4
2877.613	37.4
2881	43.4
2884.385	43.4
2887.766	44.4
2891.145	41.4
2894.521	43.4
2897.894	41.4
2901.264	48.4
2904.631	35.4
2907.996	44.4
2911.358	53.4
2914.717	44.4
2918.073	43.4
2921.426	51.4
2924.777	44.4
2928.124	51.4
2931.469	48.4
2934.811	63.4
2938.15	60.4
2941.487	61.4
2944.821	50.4
2948.152	65.4
2951.48	51.4
2954.805	60.4
2958.128	58.4
2961.447	61.4
2964.765	49.4
2968.079	57.4
2971.39	59.4
2974.699	50.4
2978.005	59.4
2981.308	47.4
2984.609	54.4
2987.907	56.4
2991.202	51.4
2994.494	48.4
2997.784	43.4
3001.07	44.4
3004.355	51.4
3007.636	58.4
3010.915	54.4
3014.191	50.4
3017.464	51.4
3020.734	65.4
3024.002	66.4
3027.267	70.4
3030.53	64.4
3033.789	66.4
3037.046	68.4
3040.301	66.4
3043.552	77.4
3046.801	78.4
3050.048	76.4
3053.291	81.4
3056.532	83.4
3059.771	74.4
3063.006	81.4
3066.239	93.4
3069.469	97.4
3072.697	92.4
3075.922	107.4
3079.144	98.4
3082.364	106.4
3085.581	108.4
3088.795	114.4
3092.007	120.4
3095.216	116.4
3098.423	114.4
3101.627	115.4
3104.828	132.4
3108.026	126.4
3111.222	131.4
3114.416	135.4
3117.607	131.4
3120.795	142.4
3123.98	136.4
3127.163	147.4
3130.344	152.4
3133.521	148.4
3136.696	152.4
3139.869	158.4
3143.039	170.4
3146.206	161.4
3149.371	163.4
3152.533	178.4
3155.693	173.4
3158.85	174.4
3162.005	174.4
3165.157	166.4
3168.306	176.4
3171.453	173.4
3174.597	174.4
3177.739	182.4
3180.878	176.4
3184.014	169.4
3187.149	169.4
3190.28	180.4
3193.409	176.4
3196.536	176.4
3199.659	174.4
3202.781	179.4
3205.9	174.4
3209.016	177.4
3212.13	183.4
3215.241	183.4
3218.35	182.4
3221.456	184.4
3224.56	164.4
3227.661	168.4
3230.76	169.4
3233.856	161.4
3236.95	153.4
3240.041	156.4
3243.13	157.4
3246.216	146.4
3249.3	145.4
3252.382	149.4
3255.46	152.4
3258.537	140.4
3261.611	138.4
3264.682	135.4
3267.751	146.4
3270.818	131.4
3273.882	137.4
3276.943	131.4
3280.002	139.4
3283.059	132.4
3286.113	133.4
3289.165	124.4
3292.214	131.4
3295.261	127.4
3298.306	124.4
3301.348	122.4
3304.387	130.4
3307.425	118.4
3310.459	118.4
3313.492	119.4
3316.521	119.4
3319.549	125.4
3322.574	118.4
3325.597	119.4
3328.617	118.4
3331.635	126.4
3334.65	131.4
3337.663	115.4
3340.674	126.4
3343.682	121.4
3346.688	111.4
3349.691	123.4
3352.692	119.4
3355.691	123.4
3358.687	121.4
3361.681	116.4
3364.673	114.4
3367.662	112.4
3370.649	116.4
3373.633	103.4
3376.615	105.4
3379.595	107.4
3382.572	101.4
3385.547	99.4
3388.52	99.4
3391.49	94.4
3394.458	93.4
3397.424	99.4
3400.387	98.4
3403.348	85.4
3406.307	85.4
3409.263	87.4
3412.217	94.4
3415.168	94.4
3418.118	89.4
3421.065	83.4
3424.009	79.4
3426.951	77.4
3429.891	75.4
3432.829	66.4
3435.764	78.4
3438.697	74.4
3441.628	64.4
3444.557	66.4
3447.483	66.4
3450.407	55.4
3453.328	61.4
3456.247	60.4
3459.164	58.4
3462.079	46.4
3464.991	52.4
3467.902	40.4
3470.809	36.4
3473.715	40.4
3476.618	33.4
3479.519	29.4
3482.418	29.4
3485.315	30.4
3488.209	21.4
3491.101	17.4
3493.99	22.4
3496.878	14.4
3499.763	10.4
3502.646	9.4
3505.527	16.4
3508.405	10.4
3511.281	15.4
3514.155	5.4
3517.027	2.4
3519.897	12.4
3522.764	4.4
3525.629	1.4
3528.492	-4.6
3531.352	-6.6
3534.211	-7.6
3537.067	-9.6
3539.921	-2.6
3542.773	-18.6
3545.622	-10.6
3548.469	-9.6
3551.315	-9.6
3554.157	-18.6
3556.998	-16.6
3559.837	-20.6
3562.673	-13.6
3565.507	-21.6
3568.339	-15.6
3571.169	-20.6
3573.996	-14.6
3576.822	-27.6
3579.645	-25.6
3582.466	-18.6
3585.285	-31.6
3588.101	-29.6
3590.916	-26.6
3593.728	-28.6
3596.538	-33.6
3599.346	-29.6
3602.152	-29.6
3604.956	-20.6
3607.757	-27.6
3610.556	-26.6
3613.354	-34.6
3616.149	-38.6
3618.942	-32.6
3621.732	-38.6
3624.521	-29.6
3627.307	-34.6
3630.092	-38.6
3632.874	-37.6
3635.654	-35.6
3638.432	-32.6
3641.208	-34.6
3643.982	-37.6
3646.753	-37.6
3649.523	-33.6
3652.29	-47.6
3655.055	-45.6
3657.818	-44.6
3660.579	-44.6
3663.338	-36.6
3666.095	-38.6
3668.849	-44.6
3671.602	-38.6
3674.352	-42.6
3677.101	-43.6
3679.847	-41.6
3682.591	-43.6
3685.333	-43.6
3688.073	-46.6
3690.811	-41.6
3693.547	-47.6
3696.281	-42.6
3699.013	-45.6
3701.742	-52.6
3704.47	-42.6
3707.195	-42.6
3709.919	-46.6
3712.64	-49.6
3715.359	-43.6
3718.076	-48.6
3720.792	-52.6
3723.505	-46.6
3726.216	-45.6
3728.925	-47.6
3731.632	-46.6
3734.336	-46.6
3737.039	-45.6
3739.74	-52.6
3742.439	-55.6
3745.136	-53.6
3747.83	-51.6
3750.523	-51.6
3753.213	-47.6
3755.902	-52.6
3758.589	-56.6
3761.273	-46.6
3763.956	-52.6
3766.636	-44.6
3769.315	-43.6
3771.991	-47.6
3774.665	-53.6
3777.338	-47.6
3780.008	-49.6
3782.677	-53.6
3785.343	-52.6
3788.007	-48.6
3790.67	-50.6
3793.33	-49.6
3795.989	-55.6
3798.645	-55.6
3801.299	-50.6
3803.952	-48.6
3806.602	-53.6
3809.251	-58.6
3811.897	-58.6
3814.542	-56.6
3817.184	-48.6
3819.825	-43.6
3822.463	-49.6
3825.1	-44.6
3827.735	-57.6
3830.367	-53.6
3832.998	-55.6
3835.627	-50.6
3838.253	-49.6
3840.878	-45.6
3843.501	-48.6
3846.122	-53.6
3848.741	-55.6
3851.358	-55.6
3853.973	-53.6
3856.586	-49.6
3859.197	-52.6
3861.806	-54.6
3864.414	-55.6
3867.019	-50.6
3869.622	-42.6
3872.224	-43.6
3874.823	-31.6
3877.421	-32.6
3880.016	-19.6
3882.61	-5.6
3885.202	-4.6
3887.792	-4.6
3890.38	-26.6
3892.966	-39.6
3895.55	-49.6
3898.132	-52.6
3900.713	-53.6
3903.291	-55.6
3905.868	-48.6
3908.442	-50.6
3911.015	-54.6
3913.586	-55.6
3916.155	-50.6
3918.722	-53.6
3921.287	-54.6
3923.85	-42.6
3926.411	-49.6
3928.971	-58.6
3931.528	-56.6
3934.084	-49.6
3936.638	-52.6
3939.19	-57.6
3941.74	-52.6
3944.288	-51.6
3946.834	-56.6
3949.378	-52.6
3951.921	-56.6
3954.462	-57.6
3957	-44.6
3959.537	-42.6
3962.072	-49.6
3964.606	-49.6
3967.137	-46.6
3969.667	-48.6
3972.194	-47.6
3974.72	-50.6
3977.244	-54.6
3979.766	-50.6
3982.286	-54.6
3984.805	-61.6
3987.321	-50.6
3989.836	-50.6
3992.349	-54.6
3994.86	-55.6
3997.369	-55.6
3999.877	-52.6
4002.382	-50.6
4004.886	-48.6
4007.388	-56.6
4009.888	-48.6
4012.386	-50.6
4014.883	-45.6
4017.377	-44.6
4019.87	-52.6
4022.361	-52.6
4024.85	-50.6
4027.338	-55.6
4029.823	-53.6
4032.307	-49.6
4034.789	-50.6
4037.269	-56.6
4039.747	-48.6
4042.224	-53.6
4044.699	-49.6
4047.172	-53.6
4049.643	-55.6
4052.112	-53.6
4054.58	-46.6
4057.046	-52.6
4059.51	-52.6
4061.972	-54.6
4064.432	-49.6
4066.891	-51.6
4069.348	-51.6
4071.803	-46.6
4074.256	-51.6
4076.708	-53.6
4079.158	-60.6
4081.606	-56.6
4084.052	-50.6
4086.497	-45.6
4088.939	-50.6
4091.38	-49.6
4093.819	-53.6
4096.257	-53.6
4098.693	-51.6
4101.127	-47.6
4103.559	-54.6
4105.989	14.4
4108.418	7.4
4110.845	9.4
4113.27	8.4
4115.694	9.4
4118.115	14.4
4120.535	-51.6
4122.954	-51.6
4125.37	-51.6
4127.785	-44.6
4130.198	-47.6
4132.609	-51.6
4135.019	-55.6
4137.427	-57.6
4139.833	-54.6
4142.237	-56.6
