Data from 2018-3-7_conc=2_n=9_RamanShift_05.txt Node
Date: Wed Mar 07 11:06:22 IST 2018
User: aro
Spectrometer: QEPB0276
Trigger mode: 0
Integration Time (sec): 3.000000E1
Scans to average: 1
Electric dark correction enabled: true
Nonlinearity correction enabled: false
Boxcar width: 0
XAxis mode: Raman Shifts
Number of Pixels in Spectrum: 1044
>>>>>Begin Spectral Data<<<<<
160.701	4.9
166.742	20.9
172.777	47.9
178.805	136.9
184.826	352.9
190.841	725.9
196.849	1203.9
202.85	1560.9
208.845	1705.9
214.833	1687.9
220.815	1654.9
226.789	1677.9
232.758	1704.9
238.719	1710.9
244.674	1717.9
250.623	1690.9
256.565	1670.9
262.5	1670.9
268.429	1647.9
274.351	1643.9
280.267	1640.9
286.176	1627.9
292.079	1641.9
297.975	1630.9
303.865	1648.9
309.748	1648.9
315.625	1638.9
321.495	1633.9
327.359	1648.9
333.217	1658.9
339.068	1657.9
344.912	1670.9
350.751	1675.9
356.583	1659.9
362.408	1680.9
368.227	1687.9
374.04	1684.9
379.847	1683.9
385.647	1697.9
391.44	1715.9
397.228	1700.9
403.009	1736.9
408.784	1734.9
414.553	1745.9
420.315	1748.9
426.071	1755.9
431.821	1752.9
437.565	1747.9
443.302	1743.9
449.033	1731.9
454.758	1739.9
460.477	1718.9
466.189	1692.9
471.896	1683.9
477.596	1676.9
483.29	1664.9
488.978	1654.9
494.66	1680.9
500.335	1618.9
506.005	1551.9
511.668	1500.9
517.325	1424.9
522.977	1362.9
528.622	1344.9
534.261	1305.9
539.894	1285.9
545.521	1271.9
551.141	1249.9
556.756	1236.9
562.365	1228.9
567.968	1229.9
573.565	1208.9
579.155	1207.9
584.74	1211.9
590.319	1188.9
595.892	1195.9
601.459	1187.9
607.02	1193.9
612.575	1164.9
618.124	1171.9
623.667	1143.9
629.204	1147.9
634.735	1132.9
640.261	1112.9
645.781	1102.9
651.294	1104.9
656.802	1109.9
662.304	1097.9
667.8	1081.9
673.29	1094.9
678.775	1091.9
684.254	1083.9
689.726	1081.9
695.193	1064.9
700.655	1067.9
706.11	1059.9
711.56	1046.9
717.004	1036.9
722.442	1043.9
727.874	1035.9
733.301	1037.9
738.722	1016.9
744.137	1007.9
749.547	1024.9
754.951	1007.9
760.349	1031.9
765.741	1017.9
771.128	1031.9
776.509	1049.9
781.885	1051.9
787.254	1051.9
792.618	1067.9
797.977	1070.9
803.33	1040.9
808.677	1044.9
814.019	1044.9
819.355	1030.9
824.686	1022.9
830.011	1010.9
835.33	1011.9
840.644	991.9
845.952	1000.9
851.255	982.9
856.552	1008.9
861.844	966.9
867.13	961.9
872.41	967.9
877.686	976.9
882.955	950.9
888.219	948.9
893.478	941.9
898.731	914.9
903.979	897.9
909.221	895.9
914.458	890.9
919.69	882.9
924.916	894.9
930.136	893.9
935.351	895.9
940.561	887.9
945.766	894.9
950.965	871.9
956.158	878.9
961.347	874.9
966.529	859.9
971.707	843.9
976.879	835.9
982.046	815.9
987.208	826.9
992.364	818.9
997.515	824.9
1002.66	834.9
1007.801	844.9
1012.936	842.9
1018.066	851.9
1023.19	846.9
1028.309	847.9
1033.423	848.9
1038.532	845.9
1043.636	848.9
1048.734	844.9
1053.827	826.9
1058.915	820.9
1063.998	800.9
1069.075	810.9
1074.147	809.9
1079.214	813.9
1084.276	810.9
1089.333	811.9
1094.385	816.9
1099.431	814.9
1104.472	808.9
1109.509	793.9
1114.54	787.9
1119.565	790.9
1124.586	778.9
1129.602	748.9
1134.613	758.9
1139.618	746.9
1144.619	758.9
1149.614	756.9
1154.604	752.9
1159.589	744.9
1164.57	753.9
1169.545	749.9
1174.515	750.9
1179.48	760.9
1184.44	759.9
1189.395	741.9
1194.345	738.9
1199.29	724.9
1204.23	740.9
1209.165	725.9
1214.095	739.9
1219.021	734.9
1223.941	743.9
1228.856	754.9
1233.766	749.9
1238.672	738.9
1243.572	745.9
1248.467	745.9
1253.358	732.9
1258.244	723.9
1263.124	716.9
1268	689.9
1272.871	681.9
1277.737	680.9
1282.599	684.9
1287.455	671.9
1292.306	672.9
1297.153	671.9
1301.995	678.9
1306.832	685.9
1311.664	686.9
1316.491	695.9
1321.314	697.9
1326.132	681.9
1330.945	675.9
1335.753	665.9
1340.556	641.9
1345.354	627.9
1350.148	623.9
1354.937	608.9
1359.722	587.9
1364.501	584.9
1369.276	578.9
1374.046	569.9
1378.811	561.9
1383.572	560.9
1388.327	569.9
1393.079	556.9
1397.825	565.9
1402.567	570.9
1407.304	576.9
1412.036	566.9
1416.764	569.9
1421.487	566.9
1426.205	561.9
1430.919	563.9
1435.628	584.9
1440.333	582.9
1445.032	581.9
1449.727	590.9
1454.418	591.9
1459.104	578.9
1463.785	568.9
1468.462	564.9
1473.134	553.9
1477.802	522.9
1482.465	521.9
1487.123	504.9
1491.777	498.9
1496.426	499.9
1501.071	484.9
1505.711	479.9
1510.347	478.9
1514.978	476.9
1519.604	481.9
1524.226	475.9
1528.844	481.9
1533.457	477.9
1538.065	467.9
1542.669	471.9
1547.269	463.9
1551.864	478.9
1556.454	493.9
1561.041	494.9
1565.622	486.9
1570.199	492.9
1574.772	480.9
1579.34	505.9
1583.904	503.9
1588.464	520.9
1593.019	514.9
1597.569	515.9
1602.115	515.9
1606.657	505.9
1611.195	504.9
1615.728	506.9
1620.256	503.9
1624.78	507.9
1629.3	500.9
1633.816	513.9
1638.327	503.9
1642.834	511.9
1647.336	497.9
1651.834	499.9
1656.328	509.9
1660.817	503.9
1665.302	495.9
1669.783	473.9
1674.259	466.9
1678.732	459.9
1683.199	451.9
1687.663	424.9
1692.122	401.9
1696.577	395.9
1701.028	376.9
1705.474	351.9
1709.917	354.9
1714.355	346.9
1718.788	339.9
1723.218	350.9
1727.643	348.9
1732.064	341.9
1736.481	346.9
1740.893	325.9
1745.301	324.9
1749.705	324.9
1754.105	311.9
1758.501	298.9
1762.893	294.9
1767.28	293.9
1771.663	295.9
1776.042	289.9
1780.417	279.9
1784.787	287.9
1789.154	275.9
1793.516	254.9
1797.874	261.9
1802.228	264.9
1806.578	256.9
1810.924	252.9
1815.266	252.9
1819.603	250.9
1823.937	258.9
1828.266	249.9
1832.591	272.9
1836.913	260.9
1841.23	264.9
1845.543	255.9
1849.852	268.9
1854.156	268.9
1858.457	270.9
1862.754	264.9
1867.047	259.9
1871.335	263.9
1875.62	254.9
1879.9	262.9
1884.177	243.9
1888.449	252.9
1892.718	246.9
1896.982	238.9
1901.243	235.9
1905.499	232.9
1909.752	226.9
1914	218.9
1918.245	212.9
1922.485	207.9
1926.722	206.9
1930.954	206.9
1935.183	213.9
1939.408	213.9
1943.628	217.9
1947.845	199.9
1952.058	203.9
1956.267	203.9
1960.472	205.9
1964.673	192.9
1968.87	197.9
1973.063	201.9
1977.252	196.9
1981.438	190.9
1985.619	196.9
1989.797	193.9
1993.971	194.9
1998.14	204.9
2002.306	203.9
2006.469	203.9
2010.627	200.9
2014.781	195.9
2018.932	195.9
2023.078	204.9
2027.221	189.9
2031.36	201.9
2035.495	184.9
2039.627	177.9
2043.754	185.9
2047.878	186.9
2051.998	184.9
2056.114	182.9
2060.226	175.9
2064.334	175.9
2068.439	168.9
2072.54	177.9
2076.637	173.9
2080.73	174.9
2084.82	176.9
2088.906	172.9
2092.988	165.9
2097.066	168.9
2101.14	167.9
2105.211	164.9
2109.278	158.9
2113.342	155.9
2117.401	159.9
2121.457	149.9
2125.509	153.9
2129.558	148.9
2133.602	156.9
2137.643	156.9
2141.681	144.9
2145.714	155.9
2149.744	157.9
2153.77	159.9
2157.793	157.9
2161.812	155.9
2165.827	156.9
2169.838	152.9
2173.846	151.9
2177.851	145.9
2181.851	143.9
2185.848	135.9
2189.841	139.9
2193.831	135.9
2197.817	136.9
2201.799	141.9
2205.778	138.9
2209.753	139.9
2213.725	135.9
2217.693	136.9
2221.657	137.9
2225.618	134.9
2229.575	130.9
2233.529	128.9
2237.479	131.9
2241.425	126.9
2245.368	122.9
2249.307	132.9
2253.243	124.9
2257.175	119.9
2261.104	119.9
2265.029	119.9
2268.95	129.9
2272.868	115.9
2276.783	122.9
2280.694	111.9
2284.601	105.9
2288.505	112.9
2292.405	113.9
2296.302	109.9
2300.195	108.9
2304.085	103.9
2307.971	102.9
2311.854	104.9
2315.734	97.9
2319.609	112.9
2323.482	107.9
2327.351	112.9
2331.216	113.9
2335.078	127.9
2338.937	118.9
2342.792	104.9
2346.643	103.9
2350.492	102.9
2354.336	102.9
2358.178	101.9
2362.015	104.9
2365.85	96.9
2369.681	111.9
2373.508	105.9
2377.333	110.9
2381.153	105.9
2384.971	103.9
2388.785	101.9
2392.595	100.9
2396.402	100.9
2400.206	105.9
2404.007	102.9
2407.804	99.9
2411.597	95.9
2415.388	101.9
2419.174	98.9
2422.958	93.9
2426.738	99.9
2430.515	95.9
2434.289	101.9
2438.059	92.9
2441.825	91.9
2445.589	90.9
2449.349	90.9
2453.106	94.9
2456.859	89.9
2460.61	92.9
2464.356	84.9
2468.1	87.9
2471.84	79.9
2475.577	77.9
2479.311	76.9
2483.041	72.9
2486.768	80.9
2490.492	80.9
2494.213	76.9
2497.93	82.9
2501.644	80.9
2505.355	68.9
2509.062	72.9
2512.766	72.9
2516.467	61.9
2520.165	71.9
2523.859	75.9
2527.551	67.9
2531.239	64.9
2534.923	59.9
2538.605	71.9
2542.283	59.9
2545.958	61.9
2549.63	54.9
2553.299	59.9
2556.964	60.9
2560.626	61.9
2564.285	62.9
2567.941	53.9
2571.594	50.9
2575.243	60.9
2578.89	57.9
2582.533	47.9
2586.173	49.9
2589.809	57.9
2593.443	57.9
2597.073	53.9
2600.701	55.9
2604.325	50.9
2607.946	38.9
2611.564	48.9
2615.178	54.9
2618.79	45.9
2622.398	46.9
2626.004	42.9
2629.606	38.9
2633.205	43.9
2636.801	45.9
2640.394	49.9
2643.983	45.9
2647.57	37.9
2651.153	39.9
2654.734	41.9
2658.311	44.9
2661.885	45.9
2665.456	40.9
2669.025	42.9
2672.589	45.9
2676.151	40.9
2679.71	31.9
2683.266	36.9
2686.819	39.9
2690.368	31.9
2693.915	39.9
2697.458	35.9
2700.999	41.9
2704.536	38.9
2708.071	34.9
2711.602	30.9
2715.13	28.9
2718.656	25.9
2722.178	27.9
2725.697	23.9
2729.214	22.9
2732.727	27.9
2736.237	33.9
2739.744	18.9
2743.249	28.9
2746.75	24.9
2750.248	25.9
2753.743	20.9
2757.236	20.9
2760.725	19.9
2764.211	27.9
2767.695	13.9
2771.175	19.9
2774.652	14.9
2778.127	19.9
2781.598	14.9
2785.067	13.9
2788.532	14.9
2791.995	19.9
2795.455	12.9
2798.911	18.9
2802.365	20.9
2805.816	17.9
2809.264	15.9
2812.709	11.9
2816.151	22.9
2819.59	28.9
2823.026	20.9
2826.46	23.9
2829.89	16.9
2833.318	19.9
2836.742	21.9
2840.164	24.9
2843.583	20.9
2846.999	25.9
2850.412	20.9
2853.822	31.9
2857.229	20.9
2860.634	18.9
2864.035	19.9
2867.434	23.9
2870.83	25.9
2874.223	22.9
2877.613	23.9
2881	23.9
2884.385	26.9
2887.766	32.9
2891.145	29.9
2894.521	31.9
2897.894	30.9
2901.264	32.9
2904.631	25.9
2907.996	31.9
2911.358	33.9
2914.717	29.9
2918.073	28.9
2921.426	29.9
2924.777	38.9
2928.124	37.9
2931.469	36.9
2934.811	43.9
2938.15	46.9
2941.487	49.9
2944.821	38.9
2948.152	47.9
2951.48	41.9
2954.805	41.9
2958.128	46.9
2961.447	44.9
2964.765	32.9
2968.079	34.9
2971.39	35.9
2974.699	30.9
2978.005	43.9
2981.308	34.9
2984.609	38.9
2987.907	35.9
2991.202	43.9
2994.494	36.9
2997.784	27.9
3001.07	36.9
3004.355	42.9
3007.636	39.9
3010.915	42.9
3014.191	30.9
3017.464	40.9
3020.734	45.9
3024.002	47.9
3027.267	50.9
3030.53	49.9
3033.789	48.9
3037.046	42.9
3040.301	43.9
3043.552	50.9
3046.801	54.9
3050.048	57.9
3053.291	55.9
3056.532	56.9
3059.771	53.9
3063.006	63.9
3066.239	70.9
3069.469	73.9
3072.697	72.9
3075.922	78.9
3079.144	72.9
3082.364	77.9
3085.581	79.9
3088.795	85.9
3092.007	83.9
3095.216	86.9
3098.423	86.9
3101.627	81.9
3104.828	94.9
3108.026	93.9
3111.222	100.9
3114.416	96.9
3117.607	104.9
3120.795	103.9
3123.98	104.9
3127.163	117.9
3130.344	112.9
3133.521	112.9
3136.696	114.9
3139.869	130.9
3143.039	127.9
3146.206	128.9
3149.371	117.9
3152.533	129.9
3155.693	137.9
3158.85	139.9
3162.005	132.9
3165.157	132.9
3168.306	127.9
3171.453	130.9
3174.597	136.9
3177.739	138.9
3180.878	133.9
3184.014	131.9
3187.149	122.9
3190.28	131.9
3193.409	131.9
3196.536	125.9
3199.659	139.9
3202.781	146.9
3205.9	129.9
3209.016	128.9
3212.13	135.9
3215.241	131.9
3218.35	130.9
3221.456	131.9
3224.56	127.9
3227.661	124.9
3230.76	123.9
3233.856	117.9
3236.95	119.9
3240.041	118.9
3243.13	110.9
3246.216	114.9
3249.3	108.9
3252.382	110.9
3255.46	111.9
3258.537	100.9
3261.611	103.9
3264.682	96.9
3267.751	108.9
3270.818	93.9
3273.882	96.9
3276.943	96.9
3280.002	103.9
3283.059	98.9
3286.113	99.9
3289.165	91.9
3292.214	96.9
3295.261	97.9
3298.306	92.9
3301.348	90.9
3304.387	91.9
3307.425	84.9
3310.459	90.9
3313.492	89.9
3316.521	89.9
3319.549	93.9
3322.574	90.9
3325.597	85.9
3328.617	88.9
3331.635	93.9
3334.65	95.9
3337.663	72.9
3340.674	82.9
3343.682	94.9
3346.688	80.9
3349.691	88.9
3352.692	88.9
3355.691	91.9
3358.687	83.9
3361.681	83.9
3364.673	90.9
3367.662	88.9
3370.649	82.9
3373.633	76.9
3376.615	80.9
3379.595	70.9
3382.572	72.9
3385.547	72.9
3388.52	69.9
3391.49	64.9
3394.458	59.9
3397.424	68.9
3400.387	74.9
3403.348	59.9
3406.307	62.9
3409.263	61.9
3412.217	67.9
3415.168	64.9
3418.118	57.9
3421.065	56.9
3424.009	56.9
3426.951	51.9
3429.891	50.9
3432.829	55.9
3435.764	55.9
3438.697	45.9
3441.628	35.9
3444.557	44.9
3447.483	44.9
3450.407	31.9
3453.328	35.9
3456.247	37.9
3459.164	28.9
3462.079	27.9
3464.991	27.9
3467.902	29.9
3470.809	18.9
3473.715	23.9
3476.618	17.9
3479.519	16.9
3482.418	17.9
3485.315	14.9
3488.209	8.9
3491.101	9.9
3493.99	7.9
3496.878	7.9
3499.763	1.9
3502.646	4.9
3505.527	3.9
3508.405	1.9
3511.281	2.9
3514.155	-7.1
3517.027	-10.1
3519.897	-2.1
3522.764	-7.1
3525.629	-14.1
3528.492	-15.1
3531.352	-16.1
3534.211	-13.1
3537.067	-16.1
3539.921	-16.1
3542.773	-22.1
3545.622	-16.1
3548.469	-19.1
3551.315	-22.1
3554.157	-20.1
3556.998	-23.1
3559.837	-25.1
3562.673	-21.1
3565.507	-24.1
3568.339	-14.1
3571.169	-25.1
3573.996	-23.1
3576.822	-32.1
3579.645	-31.1
3582.466	-26.1
3585.285	-31.1
3588.101	-33.1
3590.916	-28.1
3593.728	-28.1
3596.538	-31.1
3599.346	-32.1
3602.152	-32.1
3604.956	-31.1
3607.757	-24.1
3610.556	-33.1
3613.354	-39.1
3616.149	-38.1
3618.942	-33.1
3621.732	-38.1
3624.521	-34.1
3627.307	-38.1
3630.092	-36.1
3632.874	-40.1
3635.654	-39.1
3638.432	-39.1
3641.208	-38.1
3643.982	-36.1
3646.753	-40.1
3649.523	-37.1
3652.29	-43.1
3655.055	-42.1
3657.818	-44.1
3660.579	-44.1
3663.338	-34.1
3666.095	-42.1
3668.849	-47.1
3671.602	-44.1
3674.352	-42.1
3677.101	-42.1
3679.847	-39.1
3682.591	-44.1
3685.333	-38.1
3688.073	-48.1
3690.811	-44.1
3693.547	-45.1
3696.281	-40.1
3699.013	-38.1
3701.742	-48.1
3704.47	-43.1
3707.195	-44.1
3709.919	-45.1
3712.64	-43.1
3715.359	-46.1
3718.076	-47.1
3720.792	-47.1
3723.505	-49.1
3726.216	-43.1
3728.925	-52.1
3731.632	-44.1
3734.336	-49.1
3737.039	-45.1
3739.74	-51.1
3742.439	-53.1
3745.136	-49.1
3747.83	-50.1
3750.523	-56.1
3753.213	-63.1
3755.902	-46.1
3758.589	-49.1
3761.273	-44.1
3763.956	-50.1
3766.636	-48.1
3769.315	-44.1
3771.991	-48.1
3774.665	-51.1
3777.338	-49.1
3780.008	-49.1
3782.677	-55.1
3785.343	-48.1
3788.007	-55.1
3790.67	-49.1
3793.33	-50.1
3795.989	-51.1
3798.645	-49.1
3801.299	-52.1
3803.952	-53.1
3806.602	-51.1
3809.251	-56.1
3811.897	-51.1
3814.542	-55.1
3817.184	-54.1
3819.825	-48.1
3822.463	-52.1
3825.1	-51.1
3827.735	-51.1
3830.367	-53.1
3832.998	-50.1
3835.627	-54.1
3838.253	-43.1
3840.878	-46.1
3843.501	-43.1
3846.122	-53.1
3848.741	-48.1
3851.358	-51.1
3853.973	-50.1
3856.586	-45.1
3859.197	-49.1
3861.806	-52.1
3864.414	-51.1
3867.019	-52.1
3869.622	-41.1
3872.224	-36.1
3874.823	-28.1
3877.421	-23.1
3880.016	-9.1
3882.61	6.9
3885.202	11.9
3887.792	-2.1
3890.38	-19.1
3892.966	-37.1
3895.55	-47.1
3898.132	-51.1
3900.713	-50.1
3903.291	-61.1
3905.868	-47.1
3908.442	-48.1
3911.015	-51.1
3913.586	-49.1
3916.155	-48.1
3918.722	-45.1
3921.287	-51.1
3923.85	-40.1
3926.411	-52.1
3928.971	-56.1
3931.528	-54.1
3934.084	-47.1
3936.638	-45.1
3939.19	-55.1
3941.74	-49.1
3944.288	-50.1
3946.834	-53.1
3949.378	-48.1
3951.921	-52.1
3954.462	-48.1
3957	-43.1
3959.537	-39.1
3962.072	-45.1
3964.606	-49.1
3967.137	-53.1
3969.667	-51.1
3972.194	-50.1
3974.72	-49.1
3977.244	-49.1
3979.766	-51.1
3982.286	-49.1
3984.805	-56.1
3987.321	-47.1
3989.836	-44.1
3992.349	-47.1
3994.86	-51.1
3997.369	-51.1
3999.877	-51.1
4002.382	-52.1
4004.886	-48.1
4007.388	-56.1
4009.888	-50.1
4012.386	-49.1
4014.883	-52.1
4017.377	-48.1
4019.87	-48.1
4022.361	-56.1
4024.85	-47.1
4027.338	-52.1
4029.823	-50.1
4032.307	-52.1
4034.789	-49.1
4037.269	-51.1
4039.747	-50.1
4042.224	-53.1
4044.699	-54.1
4047.172	-51.1
4049.643	-57.1
4052.112	-47.1
4054.58	-50.1
4057.046	-46.1
4059.51	-52.1
4061.972	-56.1
4064.432	-45.1
4066.891	-48.1
4069.348	-49.1
4071.803	-49.1
4074.256	-50.1
4076.708	-50.1
4079.158	-51.1
4081.606	-50.1
4084.052	-54.1
4086.497	-47.1
4088.939	-44.1
4091.38	-52.1
4093.819	-50.1
4096.257	-52.1
4098.693	-52.1
4101.127	-46.1
4103.559	-52.1
4105.989	17.9
4108.418	10.9
4110.845	10.9
4113.27	5.9
4115.694	9.9
4118.115	8.9
4120.535	-52.1
4122.954	-50.1
4125.37	-51.1
4127.785	-51.1
4130.198	-50.1
4132.609	-55.1
4135.019	-52.1
4137.427	-54.1
4139.833	-52.1
4142.237	-52.1
