Data from 2018-3-7_conc=3_n=6_RamanShift_03.txt Node
Date: Wed Mar 07 11:32:22 IST 2018
User: aro
Spectrometer: QEPB0276
Trigger mode: 0
Integration Time (sec): 3.000000E1
Scans to average: 1
Electric dark correction enabled: true
Nonlinearity correction enabled: false
Boxcar width: 0
XAxis mode: Raman Shifts
Number of Pixels in Spectrum: 1044
>>>>>Begin Spectral Data<<<<<
160.701	15.5
166.742	19.5
172.777	47.5
178.805	130.5
184.826	351.5
190.841	705.5
196.849	1175.5
202.85	1540.5
208.845	1694.5
214.833	1689.5
220.815	1662.5
226.789	1654.5
232.758	1682.5
238.719	1688.5
244.674	1665.5
250.623	1656.5
256.565	1649.5
262.5	1630.5
268.429	1609.5
274.351	1591.5
280.267	1600.5
286.176	1600.5
292.079	1590.5
297.975	1592.5
303.865	1595.5
309.748	1580.5
315.625	1580.5
321.495	1567.5
327.359	1596.5
333.217	1591.5
339.068	1620.5
344.912	1613.5
350.751	1614.5
356.583	1600.5
362.408	1611.5
368.227	1615.5
374.04	1638.5
379.847	1637.5
385.647	1647.5
391.44	1654.5
397.228	1641.5
403.009	1653.5
408.784	1667.5
414.553	1684.5
420.315	1665.5
426.071	1684.5
431.821	1671.5
437.565	1690.5
443.302	1675.5
449.033	1677.5
454.758	1685.5
460.477	1657.5
466.189	1638.5
471.896	1614.5
477.596	1613.5
483.29	1596.5
488.978	1595.5
494.66	1578.5
500.335	1579.5
506.005	1510.5
511.668	1430.5
517.325	1377.5
522.977	1321.5
528.622	1286.5
534.261	1267.5
539.894	1245.5
545.521	1236.5
551.141	1224.5
556.756	1208.5
562.365	1206.5
567.968	1184.5
573.565	1191.5
579.155	1170.5
584.74	1176.5
590.319	1160.5
595.892	1168.5
601.459	1161.5
607.02	1158.5
612.575	1161.5
618.124	1134.5
623.667	1124.5
629.204	1115.5
634.735	1092.5
640.261	1104.5
645.781	1088.5
651.294	1082.5
656.802	1076.5
662.304	1075.5
667.8	1069.5
673.29	1079.5
678.775	1074.5
684.254	1078.5
689.726	1056.5
695.193	1042.5
700.655	1050.5
706.11	1039.5
711.56	1019.5
717.004	1016.5
722.442	1025.5
727.874	1017.5
733.301	1004.5
738.722	1016.5
744.137	1015.5
749.547	1005.5
754.951	993.5
760.349	1004.5
765.741	1003.5
771.128	1010.5
776.509	1021.5
781.885	1026.5
787.254	1024.5
792.618	1030.5
797.977	1041.5
803.33	1019.5
808.677	1017.5
814.019	1019.5
819.355	994.5
824.686	975.5
830.011	1001.5
835.33	987.5
840.644	990.5
845.952	970.5
851.255	983.5
856.552	977.5
861.844	945.5
867.13	942.5
872.41	940.5
877.686	950.5
882.955	933.5
888.219	927.5
893.478	907.5
898.731	893.5
903.979	874.5
909.221	869.5
914.458	872.5
919.69	875.5
924.916	873.5
930.136	879.5
935.351	873.5
940.561	880.5
945.766	872.5
950.965	860.5
956.158	853.5
961.347	850.5
966.529	834.5
971.707	829.5
976.879	817.5
982.046	812.5
987.208	799.5
992.364	812.5
997.515	818.5
1002.66	817.5
1007.801	841.5
1012.936	826.5
1018.066	826.5
1023.19	829.5
1028.309	831.5
1033.423	831.5
1038.532	828.5
1043.636	820.5
1048.734	819.5
1053.827	804.5
1058.915	806.5
1063.998	797.5
1069.075	785.5
1074.147	787.5
1079.214	784.5
1084.276	799.5
1089.333	800.5
1094.385	805.5
1099.431	783.5
1104.472	792.5
1109.509	782.5
1114.54	778.5
1119.565	761.5
1124.586	753.5
1129.602	742.5
1134.613	743.5
1139.618	732.5
1144.619	720.5
1149.614	746.5
1154.604	731.5
1159.589	733.5
1164.57	732.5
1169.545	750.5
1174.515	748.5
1179.48	735.5
1184.44	737.5
1189.395	725.5
1194.345	709.5
1199.29	713.5
1204.23	714.5
1209.165	711.5
1214.095	718.5
1219.021	722.5
1223.941	731.5
1228.856	740.5
1233.766	736.5
1238.672	734.5
1243.572	743.5
1248.467	729.5
1253.358	721.5
1258.244	712.5
1263.124	698.5
1268	688.5
1272.871	667.5
1277.737	659.5
1282.599	675.5
1287.455	673.5
1292.306	663.5
1297.153	661.5
1301.995	665.5
1306.832	673.5
1311.664	678.5
1316.491	677.5
1321.314	669.5
1326.132	678.5
1330.945	657.5
1335.753	641.5
1340.556	635.5
1345.354	632.5
1350.148	606.5
1354.937	598.5
1359.722	584.5
1364.501	574.5
1369.276	566.5
1374.046	548.5
1378.811	553.5
1383.572	542.5
1388.327	537.5
1393.079	534.5
1397.825	549.5
1402.567	552.5
1407.304	564.5
1412.036	559.5
1416.764	553.5
1421.487	567.5
1426.205	557.5
1430.919	561.5
1435.628	569.5
1440.333	577.5
1445.032	566.5
1449.727	572.5
1454.418	579.5
1459.104	564.5
1463.785	556.5
1468.462	552.5
1473.134	543.5
1477.802	522.5
1482.465	521.5
1487.123	503.5
1491.777	493.5
1496.426	494.5
1501.071	487.5
1505.711	473.5
1510.347	480.5
1514.978	477.5
1519.604	469.5
1524.226	470.5
1528.844	466.5
1533.457	457.5
1538.065	462.5
1542.669	451.5
1547.269	462.5
1551.864	457.5
1556.454	478.5
1561.041	475.5
1565.622	478.5
1570.199	476.5
1574.772	482.5
1579.34	494.5
1583.904	489.5
1588.464	503.5
1593.019	510.5
1597.569	516.5
1602.115	506.5
1606.657	507.5
1611.195	506.5
1615.728	490.5
1620.256	493.5
1624.78	505.5
1629.3	504.5
1633.816	502.5
1638.327	505.5
1642.834	497.5
1647.336	497.5
1651.834	499.5
1656.328	498.5
1660.817	495.5
1665.302	486.5
1669.783	471.5
1674.259	465.5
1678.732	449.5
1683.199	430.5
1687.663	419.5
1692.122	398.5
1696.577	384.5
1701.028	380.5
1705.474	346.5
1709.917	345.5
1714.355	344.5
1718.788	326.5
1723.218	344.5
1727.643	338.5
1732.064	345.5
1736.481	339.5
1740.893	328.5
1745.301	321.5
1749.705	322.5
1754.105	311.5
1758.501	289.5
1762.893	294.5
1767.28	298.5
1771.663	275.5
1776.042	276.5
1780.417	276.5
1784.787	270.5
1789.154	265.5
1793.516	257.5
1797.874	249.5
1802.228	253.5
1806.578	258.5
1810.924	248.5
1815.266	248.5
1819.603	248.5
1823.937	254.5
1828.266	250.5
1832.591	250.5
1836.913	250.5
1841.23	254.5
1845.543	236.5
1849.852	258.5
1854.156	254.5
1858.457	255.5
1862.754	261.5
1867.047	262.5
1871.335	252.5
1875.62	254.5
1879.9	253.5
1884.177	241.5
1888.449	245.5
1892.718	247.5
1896.982	234.5
1901.243	229.5
1905.499	227.5
1909.752	221.5
1914	224.5
1918.245	209.5
1922.485	218.5
1926.722	203.5
1930.954	205.5
1935.183	206.5
1939.408	212.5
1943.628	206.5
1947.845	208.5
1952.058	205.5
1956.267	193.5
1960.472	203.5
1964.673	194.5
1968.87	195.5
1973.063	192.5
1977.252	194.5
1981.438	189.5
1985.619	191.5
1989.797	188.5
1993.971	193.5
1998.14	200.5
2002.306	201.5
2006.469	199.5
2010.627	188.5
2014.781	202.5
2018.932	189.5
2023.078	197.5
2027.221	191.5
2031.36	186.5
2035.495	187.5
2039.627	179.5
2043.754	181.5
2047.878	178.5
2051.998	189.5
2056.114	174.5
2060.226	174.5
2064.334	171.5
2068.439	168.5
2072.54	167.5
2076.637	171.5
2080.73	167.5
2084.82	167.5
2088.906	167.5
2092.988	159.5
2097.066	157.5
2101.14	161.5
2105.211	155.5
2109.278	159.5
2113.342	153.5
2117.401	154.5
2121.457	152.5
2125.509	156.5
2129.558	147.5
2133.602	147.5
2137.643	145.5
2141.681	142.5
2145.714	150.5
2149.744	145.5
2153.77	144.5
2157.793	150.5
2161.812	153.5
2165.827	148.5
2169.838	146.5
2173.846	143.5
2177.851	148.5
2181.851	145.5
2185.848	133.5
2189.841	135.5
2193.831	137.5
2197.817	137.5
2201.799	142.5
2205.778	131.5
2209.753	127.5
2213.725	130.5
2217.693	134.5
2221.657	135.5
2225.618	132.5
2229.575	126.5
2233.529	123.5
2237.479	131.5
2241.425	121.5
2245.368	129.5
2249.307	131.5
2253.243	122.5
2257.175	118.5
2261.104	117.5
2265.029	120.5
2268.95	118.5
2272.868	118.5
2276.783	106.5
2280.694	106.5
2284.601	105.5
2288.505	107.5
2292.405	113.5
2296.302	115.5
2300.195	107.5
2304.085	93.5
2307.971	98.5
2311.854	105.5
2315.734	96.5
2319.609	98.5
2323.482	97.5
2327.351	99.5
2331.216	114.5
2335.078	121.5
2338.937	109.5
2342.792	98.5
2346.643	100.5
2350.492	103.5
2354.336	103.5
2358.178	91.5
2362.015	101.5
2365.85	97.5
2369.681	102.5
2373.508	98.5
2377.333	95.5
2381.153	94.5
2384.971	99.5
2388.785	90.5
2392.595	96.5
2396.402	94.5
2400.206	93.5
2404.007	94.5
2407.804	95.5
2411.597	92.5
2415.388	88.5
2419.174	96.5
2422.958	87.5
2426.738	95.5
2430.515	89.5
2434.289	93.5
2438.059	79.5
2441.825	83.5
2445.589	81.5
2449.349	81.5
2453.106	86.5
2456.859	77.5
2460.61	82.5
2464.356	86.5
2468.1	78.5
2471.84	79.5
2475.577	72.5
2479.311	77.5
2483.041	77.5
2486.768	76.5
2490.492	74.5
2494.213	71.5
2497.93	72.5
2501.644	74.5
2505.355	68.5
2509.062	67.5
2512.766	70.5
2516.467	67.5
2520.165	71.5
2523.859	70.5
2527.551	66.5
2531.239	63.5
2534.923	68.5
2538.605	55.5
2542.283	57.5
2545.958	53.5
2549.63	59.5
2553.299	58.5
2556.964	54.5
2560.626	65.5
2564.285	56.5
2567.941	49.5
2571.594	47.5
2575.243	48.5
2578.89	53.5
2582.533	45.5
2586.173	50.5
2589.809	55.5
2593.443	61.5
2597.073	43.5
2600.701	51.5
2604.325	41.5
2607.946	40.5
2611.564	46.5
2615.178	46.5
2618.79	43.5
2622.398	47.5
2626.004	43.5
2629.606	36.5
2633.205	36.5
2636.801	43.5
2640.394	48.5
2643.983	46.5
2647.57	36.5
2651.153	27.5
2654.734	34.5
2658.311	39.5
2661.885	44.5
2665.456	43.5
2669.025	39.5
2672.589	33.5
2676.151	34.5
2679.71	29.5
2683.266	32.5
2686.819	45.5
2690.368	31.5
2693.915	35.5
2697.458	26.5
2700.999	37.5
2704.536	26.5
2708.071	33.5
2711.602	28.5
2715.13	28.5
2718.656	25.5
2722.178	20.5
2725.697	30.5
2729.214	18.5
2732.727	26.5
2736.237	23.5
2739.744	14.5
2743.249	17.5
2746.75	19.5
2750.248	15.5
2753.743	13.5
2757.236	22.5
2760.725	15.5
2764.211	15.5
2767.695	14.5
2771.175	12.5
2774.652	11.5
2778.127	19.5
2781.598	13.5
2785.067	15.5
2788.532	9.5
2791.995	18.5
2795.455	10.5
2798.911	15.5
2802.365	14.5
2805.816	9.5
2809.264	17.5
2812.709	9.5
2816.151	15.5
2819.59	29.5
2823.026	20.5
2826.46	17.5
2829.89	19.5
2833.318	10.5
2836.742	17.5
2840.164	14.5
2843.583	20.5
2846.999	21.5
2850.412	19.5
2853.822	12.5
2857.229	21.5
2860.634	15.5
2864.035	19.5
2867.434	18.5
2870.83	22.5
2874.223	23.5
2877.613	20.5
2881	27.5
2884.385	30.5
2887.766	28.5
2891.145	27.5
2894.521	29.5
2897.894	22.5
2901.264	31.5
2904.631	17.5
2907.996	21.5
2911.358	30.5
2914.717	22.5
2918.073	27.5
2921.426	24.5
2924.777	35.5
2928.124	37.5
2931.469	37.5
2934.811	41.5
2938.15	49.5
2941.487	49.5
2944.821	39.5
2948.152	46.5
2951.48	35.5
2954.805	38.5
2958.128	33.5
2961.447	36.5
2964.765	25.5
2968.079	33.5
2971.39	38.5
2974.699	28.5
2978.005	39.5
2981.308	34.5
2984.609	34.5
2987.907	34.5
2991.202	40.5
2994.494	36.5
2997.784	30.5
3001.07	40.5
3004.355	40.5
3007.636	39.5
3010.915	37.5
3014.191	37.5
3017.464	38.5
3020.734	42.5
3024.002	46.5
3027.267	45.5
3030.53	43.5
3033.789	44.5
3037.046	45.5
3040.301	42.5
3043.552	51.5
3046.801	53.5
3050.048	53.5
3053.291	53.5
3056.532	58.5
3059.771	61.5
3063.006	63.5
3066.239	64.5
3069.469	68.5
3072.697	72.5
3075.922	78.5
3079.144	70.5
3082.364	74.5
3085.581	76.5
3088.795	87.5
3092.007	89.5
3095.216	88.5
3098.423	83.5
3101.627	84.5
3104.828	104.5
3108.026	93.5
3111.222	102.5
3114.416	107.5
3117.607	104.5
3120.795	101.5
3123.98	100.5
3127.163	118.5
3130.344	110.5
3133.521	110.5
3136.696	120.5
3139.869	121.5
3143.039	130.5
3146.206	123.5
3149.371	134.5
3152.533	139.5
3155.693	131.5
3158.85	135.5
3162.005	135.5
3165.157	132.5
3168.306	131.5
3171.453	128.5
3174.597	136.5
3177.739	136.5
3180.878	126.5
3184.014	133.5
3187.149	134.5
3190.28	132.5
3193.409	142.5
3196.536	139.5
3199.659	138.5
3202.781	142.5
3205.9	135.5
3209.016	135.5
3212.13	127.5
3215.241	134.5
3218.35	129.5
3221.456	128.5
3224.56	128.5
3227.661	126.5
3230.76	124.5
3233.856	127.5
3236.95	116.5
3240.041	114.5
3243.13	121.5
3246.216	111.5
3249.3	116.5
3252.382	115.5
3255.46	114.5
3258.537	100.5
3261.611	104.5
3264.682	106.5
3267.751	102.5
3270.818	89.5
3273.882	94.5
3276.943	107.5
3280.002	103.5
3283.059	97.5
3286.113	90.5
3289.165	93.5
3292.214	93.5
3295.261	101.5
3298.306	102.5
3301.348	95.5
3304.387	95.5
3307.425	88.5
3310.459	88.5
3313.492	98.5
3316.521	87.5
3319.549	101.5
3322.574	85.5
3325.597	88.5
3328.617	92.5
3331.635	88.5
3334.65	93.5
3337.663	86.5
3340.674	89.5
3343.682	88.5
3346.688	88.5
3349.691	92.5
3352.692	92.5
3355.691	93.5
3358.687	83.5
3361.681	85.5
3364.673	82.5
3367.662	82.5
3370.649	81.5
3373.633	77.5
3376.615	75.5
3379.595	67.5
3382.572	76.5
3385.547	71.5
3388.52	75.5
3391.49	67.5
3394.458	61.5
3397.424	67.5
3400.387	72.5
3403.348	59.5
3406.307	61.5
3409.263	62.5
3412.217	64.5
3415.168	64.5
3418.118	54.5
3421.065	56.5
3424.009	51.5
3426.951	50.5
3429.891	47.5
3432.829	55.5
3435.764	58.5
3438.697	51.5
3441.628	45.5
3444.557	47.5
3447.483	46.5
3450.407	29.5
3453.328	43.5
3456.247	36.5
3459.164	36.5
3462.079	22.5
3464.991	26.5
3467.902	19.5
3470.809	27.5
3473.715	21.5
3476.618	21.5
3479.519	14.5
3482.418	19.5
3485.315	13.5
3488.209	4.5
3491.101	2.5
3493.99	14.5
3496.878	3.5
3499.763	-2.5
3502.646	4.5
3505.527	2.5
3508.405	0.5
3511.281	-2.5
3514.155	-4.5
3517.027	-11.5
3519.897	-4.5
3522.764	-7.5
3525.629	-6.5
3528.492	-9.5
3531.352	-17.5
3534.211	-20.5
3537.067	-15.5
3539.921	-17.5
3542.773	-24.5
3545.622	-23.5
3548.469	-19.5
3551.315	-19.5
3554.157	-17.5
3556.998	-24.5
3559.837	-24.5
3562.673	-22.5
3565.507	-19.5
3568.339	-22.5
3571.169	-25.5
3573.996	-21.5
3576.822	-34.5
3579.645	-32.5
3582.466	-31.5
3585.285	-33.5
3588.101	-35.5
3590.916	-25.5
3593.728	-37.5
3596.538	-36.5
3599.346	-34.5
3602.152	-28.5
3604.956	-28.5
3607.757	-30.5
3610.556	-30.5
3613.354	-37.5
3616.149	-41.5
3618.942	-33.5
3621.732	-39.5
3624.521	-33.5
3627.307	-43.5
3630.092	-39.5
3632.874	-41.5
3635.654	-43.5
3638.432	-43.5
3641.208	-42.5
3643.982	-38.5
3646.753	-39.5
3649.523	-37.5
3652.29	-46.5
3655.055	-42.5
3657.818	-50.5
3660.579	-43.5
3663.338	-38.5
3666.095	-44.5
3668.849	-44.5
3671.602	-47.5
3674.352	-41.5
3677.101	-49.5
3679.847	-46.5
3682.591	-47.5
3685.333	-39.5
3688.073	-44.5
3690.811	-41.5
3693.547	-43.5
3696.281	-39.5
3699.013	-46.5
3701.742	-51.5
3704.47	-42.5
3707.195	-47.5
3709.919	-48.5
3712.64	-50.5
3715.359	-43.5
3718.076	-54.5
3720.792	-48.5
3723.505	-49.5
3726.216	-46.5
3728.925	-50.5
3731.632	-48.5
3734.336	-49.5
3737.039	-44.5
3739.74	-55.5
3742.439	-51.5
3745.136	-46.5
3747.83	-50.5
3750.523	-55.5
3753.213	-58.5
3755.902	-54.5
3758.589	-53.5
3761.273	-55.5
3763.956	-52.5
3766.636	-50.5
3769.315	-49.5
3771.991	-51.5
3774.665	-50.5
3777.338	-46.5
3780.008	-50.5
3782.677	-53.5
3785.343	-53.5
3788.007	-53.5
3790.67	-52.5
3793.33	-50.5
3795.989	-56.5
3798.645	-57.5
3801.299	-50.5
3803.952	-50.5
3806.602	-54.5
3809.251	-56.5
3811.897	-56.5
3814.542	-53.5
3817.184	-53.5
3819.825	-49.5
3822.463	-46.5
3825.1	-48.5
3827.735	-57.5
3830.367	-53.5
3832.998	-57.5
3835.627	-52.5
3838.253	-50.5
3840.878	-45.5
3843.501	-52.5
3846.122	-54.5
3848.741	-59.5
3851.358	-49.5
3853.973	-54.5
3856.586	-52.5
3859.197	-50.5
3861.806	-53.5
3864.414	-52.5
3867.019	-52.5
3869.622	-44.5
3872.224	-39.5
3874.823	-34.5
3877.421	-22.5
3880.016	-10.5
3882.61	5.5
3885.202	8.5
3887.792	2.5
3890.38	-21.5
3892.966	-33.5
3895.55	-46.5
3898.132	-48.5
3900.713	-51.5
3903.291	-56.5
3905.868	-48.5
3908.442	-48.5
3911.015	-50.5
3913.586	-57.5
3916.155	-54.5
3918.722	-53.5
3921.287	-55.5
3923.85	-44.5
3926.411	-57.5
3928.971	-59.5
3931.528	-56.5
3934.084	-51.5
3936.638	-53.5
3939.19	-60.5
3941.74	-57.5
3944.288	-52.5
3946.834	-49.5
3949.378	-54.5
3951.921	-56.5
3954.462	-52.5
3957	-45.5
3959.537	-42.5
3962.072	-47.5
3964.606	-52.5
3967.137	-51.5
3969.667	-57.5
3972.194	-52.5
3974.72	-47.5
3977.244	-49.5
3979.766	-52.5
3982.286	-53.5
3984.805	-57.5
3987.321	-51.5
3989.836	-44.5
3992.349	-53.5
3994.86	-48.5
3997.369	-51.5
3999.877	-51.5
4002.382	-55.5
4004.886	-53.5
4007.388	-60.5
4009.888	-50.5
4012.386	-55.5
4014.883	-49.5
4017.377	-52.5
4019.87	-50.5
4022.361	-53.5
4024.85	-53.5
4027.338	-52.5
4029.823	-55.5
4032.307	-53.5
4034.789	-51.5
4037.269	-53.5
4039.747	-53.5
4042.224	-53.5
4044.699	-53.5
4047.172	-60.5
4049.643	-57.5
4052.112	-55.5
4054.58	-53.5
4057.046	-49.5
4059.51	-56.5
4061.972	-56.5
4064.432	-52.5
4066.891	-53.5
4069.348	-47.5
4071.803	-49.5
4074.256	-50.5
4076.708	-49.5
4079.158	-55.5
4081.606	-52.5
4084.052	-54.5
4086.497	-50.5
4088.939	-51.5
4091.38	-60.5
4093.819	-59.5
4096.257	-53.5
4098.693	-54.5
4101.127	-48.5
4103.559	-62.5
4105.989	19.5
4108.418	13.5
4110.845	12.5
4113.27	12.5
4115.694	12.5
4118.115	18.5
4120.535	-54.5
4122.954	-48.5
4125.37	-53.5
4127.785	-48.5
4130.198	-53.5
4132.609	-50.5
4135.019	-52.5
4137.427	-53.5
4139.833	-51.5
4142.237	-55.5
