Data from 2018-3-7_conc=2_n=6_RamanShift_04.txt Node
Date: Wed Mar 07 10:55:52 IST 2018
User: aro
Spectrometer: QEPB0276
Trigger mode: 0
Integration Time (sec): 3.000000E1
Scans to average: 1
Electric dark correction enabled: true
Nonlinearity correction enabled: false
Boxcar width: 0
XAxis mode: Raman Shifts
Number of Pixels in Spectrum: 1044
>>>>>Begin Spectral Data<<<<<
160.701	13.9
166.742	19.9
172.777	43.9
178.805	139.9
184.826	346.9
190.841	736.9
196.849	1205.9
202.85	1559.9
208.845	1714.9
214.833	1726.9
220.815	1694.9
226.789	1703.9
232.758	1715.9
238.719	1722.9
244.674	1700.9
250.623	1712.9
256.565	1686.9
262.5	1673.9
268.429	1687.9
274.351	1675.9
280.267	1662.9
286.176	1666.9
292.079	1650.9
297.975	1657.9
303.865	1671.9
309.748	1665.9
315.625	1671.9
321.495	1659.9
327.359	1674.9
333.217	1665.9
339.068	1695.9
344.912	1679.9
350.751	1684.9
356.583	1687.9
362.408	1700.9
368.227	1707.9
374.04	1721.9
379.847	1720.9
385.647	1721.9
391.44	1731.9
397.228	1746.9
403.009	1758.9
408.784	1758.9
414.553	1780.9
420.315	1781.9
426.071	1763.9
431.821	1788.9
437.565	1794.9
443.302	1783.9
449.033	1771.9
454.758	1773.9
460.477	1746.9
466.189	1728.9
471.896	1713.9
477.596	1710.9
483.29	1702.9
488.978	1711.9
494.66	1682.9
500.335	1658.9
506.005	1578.9
511.668	1504.9
517.325	1428.9
522.977	1381.9
528.622	1323.9
534.261	1296.9
539.894	1283.9
545.521	1263.9
551.141	1248.9
556.756	1234.9
562.365	1225.9
567.968	1212.9
573.565	1216.9
579.155	1200.9
584.74	1188.9
590.319	1193.9
595.892	1201.9
601.459	1185.9
607.02	1185.9
612.575	1175.9
618.124	1169.9
623.667	1143.9
629.204	1112.9
634.735	1127.9
640.261	1096.9
645.781	1091.9
651.294	1090.9
656.802	1082.9
662.304	1074.9
667.8	1072.9
673.29	1082.9
678.775	1083.9
684.254	1077.9
689.726	1062.9
695.193	1063.9
700.655	1059.9
706.11	1037.9
711.56	1030.9
717.004	1036.9
722.442	1015.9
727.874	1020.9
733.301	1013.9
738.722	1020.9
744.137	1012.9
749.547	1016.9
754.951	993.9
760.349	1029.9
765.741	1017.9
771.128	1015.9
776.509	1039.9
781.885	1041.9
787.254	1055.9
792.618	1049.9
797.977	1067.9
803.33	1037.9
808.677	1048.9
814.019	1042.9
819.355	1011.9
824.686	1005.9
830.011	1005.9
835.33	994.9
840.644	991.9
845.952	987.9
851.255	969.9
856.552	978.9
861.844	967.9
867.13	967.9
872.41	963.9
877.686	954.9
882.955	956.9
888.219	938.9
893.478	920.9
898.731	911.9
903.979	900.9
909.221	895.9
914.458	877.9
919.69	882.9
924.916	881.9
930.136	861.9
935.351	883.9
940.561	874.9
945.766	877.9
950.965	864.9
956.158	873.9
961.347	859.9
966.529	850.9
971.707	818.9
976.879	804.9
982.046	810.9
987.208	810.9
992.364	817.9
997.515	819.9
1002.66	826.9
1007.801	839.9
1012.936	822.9
1018.066	850.9
1023.19	847.9
1028.309	836.9
1033.423	844.9
1038.532	831.9
1043.636	839.9
1048.734	823.9
1053.827	828.9
1058.915	816.9
1063.998	803.9
1069.075	803.9
1074.147	807.9
1079.214	811.9
1084.276	814.9
1089.333	808.9
1094.385	806.9
1099.431	808.9
1104.472	798.9
1109.509	797.9
1114.54	783.9
1119.565	766.9
1124.586	759.9
1129.602	751.9
1134.613	753.9
1139.618	738.9
1144.619	738.9
1149.614	757.9
1154.604	746.9
1159.589	756.9
1164.57	738.9
1169.545	742.9
1174.515	750.9
1179.48	754.9
1184.44	735.9
1189.395	741.9
1194.345	725.9
1199.29	720.9
1204.23	724.9
1209.165	728.9
1214.095	729.9
1219.021	726.9
1223.941	743.9
1228.856	735.9
1233.766	741.9
1238.672	744.9
1243.572	735.9
1248.467	718.9
1253.358	724.9
1258.244	718.9
1263.124	686.9
1268	696.9
1272.871	678.9
1277.737	666.9
1282.599	682.9
1287.455	676.9
1292.306	666.9
1297.153	671.9
1301.995	671.9
1306.832	679.9
1311.664	686.9
1316.491	691.9
1321.314	683.9
1326.132	670.9
1330.945	661.9
1335.753	653.9
1340.556	638.9
1345.354	620.9
1350.148	620.9
1354.937	601.9
1359.722	580.9
1364.501	574.9
1369.276	579.9
1374.046	548.9
1378.811	560.9
1383.572	559.9
1388.327	553.9
1393.079	560.9
1397.825	552.9
1402.567	565.9
1407.304	561.9
1412.036	568.9
1416.764	564.9
1421.487	567.9
1426.205	551.9
1430.919	561.9
1435.628	572.9
1440.333	571.9
1445.032	562.9
1449.727	594.9
1454.418	587.9
1459.104	577.9
1463.785	570.9
1468.462	568.9
1473.134	544.9
1477.802	521.9
1482.465	515.9
1487.123	507.9
1491.777	493.9
1496.426	492.9
1501.071	484.9
1505.711	480.9
1510.347	472.9
1514.978	471.9
1519.604	474.9
1524.226	478.9
1528.844	461.9
1533.457	469.9
1538.065	467.9
1542.669	464.9
1547.269	455.9
1551.864	460.9
1556.454	481.9
1561.041	481.9
1565.622	481.9
1570.199	485.9
1574.772	479.9
1579.34	489.9
1583.904	498.9
1588.464	503.9
1593.019	502.9
1597.569	500.9
1602.115	511.9
1606.657	511.9
1611.195	497.9
1615.728	494.9
1620.256	495.9
1624.78	499.9
1629.3	483.9
1633.816	498.9
1638.327	500.9
1642.834	488.9
1647.336	501.9
1651.834	491.9
1656.328	492.9
1660.817	493.9
1665.302	477.9
1669.783	472.9
1674.259	469.9
1678.732	450.9
1683.199	436.9
1687.663	420.9
1692.122	392.9
1696.577	390.9
1701.028	375.9
1705.474	351.9
1709.917	350.9
1714.355	347.9
1718.788	331.9
1723.218	342.9
1727.643	337.9
1732.064	340.9
1736.481	338.9
1740.893	317.9
1745.301	327.9
1749.705	312.9
1754.105	297.9
1758.501	297.9
1762.893	291.9
1767.28	282.9
1771.663	287.9
1776.042	277.9
1780.417	271.9
1784.787	268.9
1789.154	260.9
1793.516	252.9
1797.874	254.9
1802.228	261.9
1806.578	257.9
1810.924	251.9
1815.266	250.9
1819.603	246.9
1823.937	260.9
1828.266	249.9
1832.591	254.9
1836.913	255.9
1841.23	252.9
1845.543	247.9
1849.852	259.9
1854.156	259.9
1858.457	248.9
1862.754	250.9
1867.047	251.9
1871.335	258.9
1875.62	247.9
1879.9	255.9
1884.177	246.9
1888.449	245.9
1892.718	244.9
1896.982	234.9
1901.243	228.9
1905.499	222.9
1909.752	223.9
1914	224.9
1918.245	214.9
1922.485	210.9
1926.722	203.9
1930.954	217.9
1935.183	211.9
1939.408	209.9
1943.628	204.9
1947.845	205.9
1952.058	201.9
1956.267	188.9
1960.472	201.9
1964.673	186.9
1968.87	191.9
1973.063	201.9
1977.252	197.9
1981.438	199.9
1985.619	191.9
1989.797	188.9
1993.971	198.9
1998.14	189.9
2002.306	188.9
2006.469	201.9
2010.627	189.9
2014.781	197.9
2018.932	181.9
2023.078	190.9
2027.221	195.9
2031.36	195.9
2035.495	192.9
2039.627	180.9
2043.754	178.9
2047.878	177.9
2051.998	178.9
2056.114	174.9
2060.226	175.9
2064.334	169.9
2068.439	163.9
2072.54	166.9
2076.637	180.9
2080.73	167.9
2084.82	172.9
2088.906	170.9
2092.988	170.9
2097.066	158.9
2101.14	161.9
2105.211	160.9
2109.278	156.9
2113.342	143.9
2117.401	156.9
2121.457	141.9
2125.509	151.9
2129.558	158.9
2133.602	149.9
2137.643	154.9
2141.681	146.9
2145.714	150.9
2149.744	149.9
2153.77	150.9
2157.793	155.9
2161.812	159.9
2165.827	154.9
2169.838	144.9
2173.846	145.9
2177.851	137.9
2181.851	144.9
2185.848	139.9
2189.841	136.9
2193.831	137.9
2197.817	144.9
2201.799	133.9
2205.778	132.9
2209.753	127.9
2213.725	131.9
2217.693	133.9
2221.657	131.9
2225.618	124.9
2229.575	125.9
2233.529	123.9
2237.479	134.9
2241.425	119.9
2245.368	122.9
2249.307	131.9
2253.243	121.9
2257.175	119.9
2261.104	109.9
2265.029	116.9
2268.95	116.9
2272.868	113.9
2276.783	110.9
2280.694	109.9
2284.601	107.9
2288.505	109.9
2292.405	109.9
2296.302	109.9
2300.195	105.9
2304.085	109.9
2307.971	100.9
2311.854	91.9
2315.734	97.9
2319.609	103.9
2323.482	103.9
2327.351	108.9
2331.216	115.9
2335.078	125.9
2338.937	114.9
2342.792	103.9
2346.643	104.9
2350.492	100.9
2354.336	102.9
2358.178	101.9
2362.015	101.9
2365.85	95.9
2369.681	106.9
2373.508	100.9
2377.333	104.9
2381.153	100.9
2384.971	97.9
2388.785	92.9
2392.595	99.9
2396.402	99.9
2400.206	94.9
2404.007	98.9
2407.804	87.9
2411.597	94.9
2415.388	97.9
2419.174	101.9
2422.958	97.9
2426.738	91.9
2430.515	93.9
2434.289	87.9
2438.059	86.9
2441.825	89.9
2445.589	83.9
2449.349	81.9
2453.106	84.9
2456.859	87.9
2460.61	84.9
2464.356	83.9
2468.1	88.9
2471.84	80.9
2475.577	75.9
2479.311	78.9
2483.041	72.9
2486.768	75.9
2490.492	77.9
2494.213	73.9
2497.93	75.9
2501.644	77.9
2505.355	68.9
2509.062	74.9
2512.766	71.9
2516.467	66.9
2520.165	71.9
2523.859	71.9
2527.551	67.9
2531.239	63.9
2534.923	56.9
2538.605	57.9
2542.283	57.9
2545.958	57.9
2549.63	62.9
2553.299	55.9
2556.964	49.9
2560.626	49.9
2564.285	59.9
2567.941	50.9
2571.594	53.9
2575.243	47.9
2578.89	51.9
2582.533	48.9
2586.173	51.9
2589.809	54.9
2593.443	59.9
2597.073	51.9
2600.701	55.9
2604.325	44.9
2607.946	36.9
2611.564	51.9
2615.178	46.9
2618.79	47.9
2622.398	45.9
2626.004	41.9
2629.606	40.9
2633.205	40.9
2636.801	45.9
2640.394	46.9
2643.983	48.9
2647.57	41.9
2651.153	38.9
2654.734	39.9
2658.311	39.9
2661.885	40.9
2665.456	36.9
2669.025	38.9
2672.589	36.9
2676.151	33.9
2679.71	35.9
2683.266	34.9
2686.819	43.9
2690.368	39.9
2693.915	35.9
2697.458	32.9
2700.999	27.9
2704.536	33.9
2708.071	35.9
2711.602	25.9
2715.13	21.9
2718.656	28.9
2722.178	21.9
2725.697	26.9
2729.214	28.9
2732.727	35.9
2736.237	29.9
2739.744	24.9
2743.249	20.9
2746.75	30.9
2750.248	19.9
2753.743	24.9
2757.236	18.9
2760.725	18.9
2764.211	11.9
2767.695	14.9
2771.175	15.9
2774.652	20.9
2778.127	20.9
2781.598	12.9
2785.067	17.9
2788.532	18.9
2791.995	16.9
2795.455	10.9
2798.911	12.9
2802.365	17.9
2805.816	15.9
2809.264	15.9
2812.709	10.9
2816.151	18.9
2819.59	32.9
2823.026	16.9
2826.46	21.9
2829.89	19.9
2833.318	13.9
2836.742	24.9
2840.164	16.9
2843.583	15.9
2846.999	16.9
2850.412	18.9
2853.822	17.9
2857.229	19.9
2860.634	17.9
2864.035	20.9
2867.434	20.9
2870.83	23.9
2874.223	21.9
2877.613	25.9
2881	23.9
2884.385	33.9
2887.766	26.9
2891.145	27.9
2894.521	27.9
2897.894	26.9
2901.264	30.9
2904.631	24.9
2907.996	25.9
2911.358	34.9
2914.717	25.9
2918.073	27.9
2921.426	33.9
2924.777	37.9
2928.124	32.9
2931.469	38.9
2934.811	47.9
2938.15	43.9
2941.487	49.9
2944.821	38.9
2948.152	43.9
2951.48	38.9
2954.805	42.9
2958.128	39.9
2961.447	39.9
2964.765	38.9
2968.079	35.9
2971.39	30.9
2974.699	29.9
2978.005	38.9
2981.308	35.9
2984.609	31.9
2987.907	34.9
2991.202	33.9
2994.494	34.9
2997.784	35.9
3001.07	39.9
3004.355	35.9
3007.636	42.9
3010.915	42.9
3014.191	42.9
3017.464	40.9
3020.734	41.9
3024.002	44.9
3027.267	45.9
3030.53	42.9
3033.789	41.9
3037.046	38.9
3040.301	39.9
3043.552	53.9
3046.801	58.9
3050.048	48.9
3053.291	53.9
3056.532	57.9
3059.771	58.9
3063.006	55.9
3066.239	60.9
3069.469	75.9
3072.697	65.9
3075.922	64.9
3079.144	74.9
3082.364	77.9
3085.581	79.9
3088.795	84.9
3092.007	83.9
3095.216	87.9
3098.423	84.9
3101.627	80.9
3104.828	92.9
3108.026	88.9
3111.222	91.9
3114.416	97.9
3117.607	96.9
3120.795	98.9
3123.98	106.9
3127.163	117.9
3130.344	107.9
3133.521	107.9
3136.696	107.9
3139.869	122.9
3143.039	120.9
3146.206	118.9
3149.371	122.9
3152.533	125.9
3155.693	124.9
3158.85	133.9
3162.005	126.9
3165.157	135.9
3168.306	133.9
3171.453	132.9
3174.597	133.9
3177.739	131.9
3180.878	140.9
3184.014	127.9
3187.149	127.9
3190.28	129.9
3193.409	127.9
3196.536	124.9
3199.659	129.9
3202.781	135.9
3205.9	126.9
3209.016	128.9
3212.13	135.9
3215.241	132.9
3218.35	129.9
3221.456	134.9
3224.56	132.9
3227.661	121.9
3230.76	116.9
3233.856	118.9
3236.95	110.9
3240.041	113.9
3243.13	118.9
3246.216	102.9
3249.3	105.9
3252.382	112.9
3255.46	111.9
3258.537	107.9
3261.611	101.9
3264.682	102.9
3267.751	96.9
3270.818	92.9
3273.882	96.9
3276.943	95.9
3280.002	101.9
3283.059	94.9
3286.113	94.9
3289.165	93.9
3292.214	94.9
3295.261	92.9
3298.306	92.9
3301.348	86.9
3304.387	90.9
3307.425	90.9
3310.459	77.9
3313.492	88.9
3316.521	90.9
3319.549	94.9
3322.574	84.9
3325.597	81.9
3328.617	84.9
3331.635	94.9
3334.65	86.9
3337.663	78.9
3340.674	80.9
3343.682	84.9
3346.688	75.9
3349.691	87.9
3352.692	78.9
3355.691	88.9
3358.687	81.9
3361.681	77.9
3364.673	82.9
3367.662	83.9
3370.649	81.9
3373.633	78.9
3376.615	77.9
3379.595	68.9
3382.572	67.9
3385.547	67.9
3388.52	66.9
3391.49	60.9
3394.458	55.9
3397.424	66.9
3400.387	64.9
3403.348	62.9
3406.307	53.9
3409.263	63.9
3412.217	64.9
3415.168	63.9
3418.118	53.9
3421.065	51.9
3424.009	53.9
3426.951	46.9
3429.891	44.9
3432.829	43.9
3435.764	51.9
3438.697	51.9
3441.628	39.9
3444.557	40.9
3447.483	39.9
3450.407	36.9
3453.328	36.9
3456.247	31.9
3459.164	26.9
3462.079	23.9
3464.991	23.9
3467.902	20.9
3470.809	20.9
3473.715	19.9
3476.618	20.9
3479.519	8.9
3482.418	14.9
3485.315	9.9
3488.209	5.9
3491.101	8.9
3493.99	10.9
3496.878	4.9
3499.763	-8.1
3502.646	-2.1
3505.527	1.9
3508.405	-3.1
3511.281	-7.1
3514.155	-1.1
3517.027	-7.1
3519.897	-4.1
3522.764	-12.1
3525.629	-6.1
3528.492	-13.1
3531.352	-20.1
3534.211	-21.1
3537.067	-16.1
3539.921	-15.1
3542.773	-22.1
3545.622	-24.1
3548.469	-14.1
3551.315	-14.1
3554.157	-22.1
3556.998	-21.1
3559.837	-25.1
3562.673	-25.1
3565.507	-29.1
3568.339	-27.1
3571.169	-29.1
3573.996	-25.1
3576.822	-32.1
3579.645	-31.1
3582.466	-28.1
3585.285	-31.1
3588.101	-34.1
3590.916	-27.1
3593.728	-33.1
3596.538	-36.1
3599.346	-38.1
3602.152	-38.1
3604.956	-31.1
3607.757	-32.1
3610.556	-30.1
3613.354	-38.1
3616.149	-38.1
3618.942	-36.1
3621.732	-40.1
3624.521	-38.1
3627.307	-40.1
3630.092	-41.1
3632.874	-37.1
3635.654	-41.1
3638.432	-37.1
3641.208	-43.1
3643.982	-37.1
3646.753	-43.1
3649.523	-40.1
3652.29	-41.1
3655.055	-42.1
3657.818	-47.1
3660.579	-44.1
3663.338	-43.1
3666.095	-47.1
3668.849	-47.1
3671.602	-40.1
3674.352	-39.1
3677.101	-45.1
3679.847	-44.1
3682.591	-48.1
3685.333	-41.1
3688.073	-49.1
3690.811	-41.1
3693.547	-48.1
3696.281	-43.1
3699.013	-48.1
3701.742	-48.1
3704.47	-47.1
3707.195	-50.1
3709.919	-47.1
3712.64	-41.1
3715.359	-43.1
3718.076	-51.1
3720.792	-47.1
3723.505	-49.1
3726.216	-43.1
3728.925	-55.1
3731.632	-50.1
3734.336	-51.1
3737.039	-49.1
3739.74	-52.1
3742.439	-61.1
3745.136	-50.1
3747.83	-45.1
3750.523	-54.1
3753.213	-53.1
3755.902	-51.1
3758.589	-50.1
3761.273	-51.1
3763.956	-50.1
3766.636	-50.1
3769.315	-46.1
3771.991	-52.1
3774.665	-55.1
3777.338	-51.1
3780.008	-55.1
3782.677	-54.1
3785.343	-51.1
3788.007	-49.1
3790.67	-48.1
3793.33	-49.1
3795.989	-54.1
3798.645	-51.1
3801.299	-55.1
3803.952	-51.1
3806.602	-57.1
3809.251	-52.1
3811.897	-50.1
3814.542	-57.1
3817.184	-54.1
3819.825	-44.1
3822.463	-49.1
3825.1	-48.1
3827.735	-56.1
3830.367	-53.1
3832.998	-52.1
3835.627	-55.1
3838.253	-47.1
3840.878	-47.1
3843.501	-46.1
3846.122	-50.1
3848.741	-47.1
3851.358	-51.1
3853.973	-50.1
3856.586	-49.1
3859.197	-52.1
3861.806	-51.1
3864.414	-53.1
3867.019	-55.1
3869.622	-45.1
3872.224	-43.1
3874.823	-33.1
3877.421	-23.1
3880.016	-15.1
3882.61	-1.1
3885.202	1.9
3887.792	-1.1
3890.38	-20.1
3892.966	-36.1
3895.55	-45.1
3898.132	-48.1
3900.713	-55.1
3903.291	-58.1
3905.868	-52.1
3908.442	-52.1
3911.015	-49.1
3913.586	-51.1
3916.155	-53.1
3918.722	-50.1
3921.287	-55.1
3923.85	-45.1
3926.411	-51.1
3928.971	-58.1
3931.528	-58.1
3934.084	-49.1
3936.638	-55.1
3939.19	-58.1
3941.74	-50.1
3944.288	-47.1
3946.834	-55.1
3949.378	-51.1
3951.921	-53.1
3954.462	-55.1
3957	-43.1
3959.537	-44.1
3962.072	-53.1
3964.606	-51.1
3967.137	-47.1
3969.667	-55.1
3972.194	-49.1
3974.72	-44.1
3977.244	-49.1
3979.766	-50.1
3982.286	-47.1
3984.805	-59.1
3987.321	-52.1
3989.836	-51.1
3992.349	-55.1
3994.86	-55.1
3997.369	-55.1
3999.877	-52.1
4002.382	-52.1
4004.886	-50.1
4007.388	-53.1
4009.888	-52.1
4012.386	-47.1
4014.883	-50.1
4017.377	-48.1
4019.87	-52.1
4022.361	-57.1
4024.85	-52.1
4027.338	-58.1
4029.823	-57.1
4032.307	-58.1
4034.789	-51.1
4037.269	-52.1
4039.747	-51.1
4042.224	-50.1
4044.699	-56.1
4047.172	-47.1
4049.643	-51.1
4052.112	-48.1
4054.58	-52.1
4057.046	-45.1
4059.51	-56.1
4061.972	-55.1
4064.432	-56.1
4066.891	-48.1
4069.348	-53.1
4071.803	-48.1
4074.256	-49.1
4076.708	-49.1
4079.158	-55.1
4081.606	-50.1
4084.052	-50.1
4086.497	-51.1
4088.939	-51.1
4091.38	-57.1
4093.819	-57.1
4096.257	-54.1
4098.693	-59.1
4101.127	-50.1
4103.559	-58.1
4105.989	16.9
4108.418	11.9
4110.845	6.9
4113.27	9.9
4115.694	13.9
4118.115	14.9
4120.535	-56.1
4122.954	-53.1
4125.37	-56.1
4127.785	-50.1
4130.198	-48.1
4132.609	-48.1
4135.019	-50.1
4137.427	-57.1
4139.833	-55.1
4142.237	-55.1
