Data from 1000CFU1_B_RamanShift_1.txt Node
Date: Thu Jan 26 11:30:48 IST 2017
User: aro
Spectrometer: QEPB0276
Trigger mode: 0
Integration Time (sec): 5.000000E0
Scans to average: 1
Electric dark correction enabled: true
Nonlinearity correction enabled: false
Boxcar width: 0
XAxis mode: Raman Shifts
Number of Pixels in Spectrum: 1044
>>>>>Begin Spectral Data<<<<<
160.701	-38.25
166.742	0.75
172.777	96.75
178.805	407.75
184.826	1103.75
190.841	2269.75
196.849	3550.75
202.85	4339.75
208.845	4514.75
214.833	4363.75
220.815	4213.75
226.789	4097.75
232.758	3958.75
238.719	3860.75
244.674	3724.75
250.623	3542.75
256.565	3418.75
262.5	3220.75
268.429	3120.75
274.351	2977.75
280.267	2880.75
286.176	2784.75
292.079	2675.75
297.975	2589.75
303.865	2525.75
309.748	2487.75
315.625	2411.75
321.495	2356.75
327.359	2333.75
333.217	2313.75
339.068	2301.75
344.912	2279.75
350.751	2273.75
356.583	2264.75
362.408	2253.75
368.227	2264.75
374.04	2257.75
379.847	2273.75
385.647	2292.75
391.44	2306.75
397.228	2317.75
403.009	2303.75
408.784	2310.75
414.553	2335.75
420.315	2358.75
426.071	2354.75
431.821	2337.75
437.565	2334.75
443.302	2317.75
449.033	2324.75
454.758	2325.75
460.477	2294.75
466.189	2289.75
471.896	2296.75
477.596	2261.75
483.29	2257.75
488.978	2244.75
494.66	2230.75
500.335	2199.75
506.005	2173.75
511.668	2130.75
517.325	2102.75
522.977	2066.75
528.622	2031.75
534.261	2027.75
539.894	1994.75
545.521	1980.75
551.141	1977.75
556.756	1960.75
562.365	1940.75
567.968	1923.75
573.565	1904.75
579.155	1909.75
584.74	1903.75
590.319	1894.75
595.892	1876.75
601.459	1854.75
607.02	1854.75
612.575	1828.75
618.124	1813.75
623.667	1789.75
629.204	1773.75
634.735	1748.75
640.261	1750.75
645.781	1740.75
651.294	1745.75
656.802	1730.75
662.304	1722.75
667.8	1725.75
673.29	1719.75
678.775	1689.75
684.254	1670.75
689.726	1686.75
695.193	1672.75
700.655	1644.75
706.11	1645.75
711.56	1643.75
717.004	1626.75
722.442	1618.75
727.874	1606.75
733.301	1615.75
738.722	1602.75
744.137	1603.75
749.547	1581.75
754.951	1587.75
760.349	1575.75
765.741	1564.75
771.128	1586.75
776.509	1584.75
781.885	1589.75
787.254	1571.75
792.618	1565.75
797.977	1561.75
803.33	1548.75
808.677	1527.75
814.019	1513.75
819.355	1488.75
824.686	1482.75
830.011	1485.75
835.33	1469.75
840.644	1465.75
845.952	1465.75
851.255	1458.75
856.552	1458.75
861.844	1446.75
867.13	1418.75
872.41	1419.75
877.686	1414.75
882.955	1386.75
888.219	1380.75
893.478	1355.75
898.731	1314.75
903.979	1310.75
909.221	1310.75
914.458	1289.75
919.69	1295.75
924.916	1288.75
930.136	1291.75
935.351	1281.75
940.561	1285.75
945.766	1273.75
950.965	1262.75
956.158	1253.75
961.347	1250.75
966.529	1223.75
971.707	1209.75
976.879	1201.75
982.046	1187.75
987.208	1179.75
992.364	1180.75
997.515	1181.75
1002.66	1196.75
1007.801	1196.75
1012.936	1223.75
1018.066	1232.75
1023.19	1229.75
1028.309	1220.75
1033.423	1225.75
1038.532	1237.75
1043.636	1225.75
1048.734	1215.75
1053.827	1191.75
1058.915	1183.75
1063.998	1174.75
1069.075	1177.75
1074.147	1165.75
1079.214	1174.75
1084.276	1181.75
1089.333	1207.75
1094.385	1208.75
1099.431	1202.75
1104.472	1209.75
1109.509	1211.75
1114.54	1185.75
1119.565	1179.75
1124.586	1159.75
1129.602	1143.75
1134.613	1142.75
1139.618	1150.75
1144.619	1150.75
1149.614	1154.75
1154.604	1155.75
1159.589	1170.75
1164.57	1161.75
1169.545	1160.75
1174.515	1174.75
1179.48	1158.75
1184.44	1162.75
1189.395	1155.75
1194.345	1151.75
1199.29	1148.75
1204.23	1152.75
1209.165	1148.75
1214.095	1160.75
1219.021	1167.75
1223.941	1181.75
1228.856	1189.75
1233.766	1187.75
1238.672	1203.75
1243.572	1184.75
1248.467	1184.75
1253.358	1170.75
1258.244	1149.75
1263.124	1134.75
1268	1128.75
1272.871	1119.75
1277.737	1108.75
1282.599	1094.75
1287.455	1099.75
1292.306	1097.75
1297.153	1122.75
1301.995	1127.75
1306.832	1129.75
1311.664	1125.75
1316.491	1133.75
1321.314	1119.75
1326.132	1111.75
1330.945	1119.75
1335.753	1097.75
1340.556	1087.75
1345.354	1093.75
1350.148	1090.75
1354.937	1078.75
1359.722	1064.75
1364.501	1064.75
1369.276	1044.75
1374.046	1035.75
1378.811	1019.75
1383.572	1021.75
1388.327	1013.75
1393.079	1020.75
1397.825	996.75
1402.567	1010.75
1407.304	998.75
1412.036	984.75
1416.764	998.75
1421.487	1004.75
1426.205	1002.75
1430.919	1002.75
1435.628	1025.75
1440.333	1034.75
1445.032	1036.75
1449.727	1046.75
1454.418	1053.75
1459.104	1046.75
1463.785	1032.75
1468.462	1023.75
1473.134	1029.75
1477.802	1011.75
1482.465	1020.75
1487.123	1013.75
1491.777	1009.75
1496.426	1027.75
1501.071	1015.75
1505.711	1051.75
1510.347	1050.75
1514.978	1075.75
1519.604	1068.75
1524.226	1066.75
1528.844	1067.75
1533.457	1065.75
1538.065	1073.75
1542.669	1070.75
1547.269	1056.75
1551.864	1055.75
1556.454	1069.75
1561.041	1071.75
1565.622	1086.75
1570.199	1095.75
1574.772	1128.75
1579.34	1139.75
1583.904	1154.75
1588.464	1164.75
1593.019	1198.75
1597.569	1215.75
1602.115	1229.75
1606.657	1239.75
1611.195	1243.75
1615.728	1261.75
1620.256	1264.75
1624.78	1296.75
1629.3	1309.75
1633.816	1331.75
1638.327	1356.75
1642.834	1357.75
1647.336	1378.75
1651.834	1390.75
1656.328	1369.75
1660.817	1361.75
1665.302	1332.75
1669.783	1312.75
1674.259	1287.75
1678.732	1255.75
1683.199	1207.75
1687.663	1176.75
1692.122	1133.75
1696.577	1088.75
1701.028	1048.75
1705.474	1000.75
1709.917	946.75
1714.355	946.75
1718.788	938.75
1723.218	928.75
1727.643	898.75
1732.064	880.75
1736.481	857.75
1740.893	836.75
1745.301	824.75
1749.705	786.75
1754.105	777.75
1758.501	761.75
1762.893	742.75
1767.28	741.75
1771.663	732.75
1776.042	730.75
1780.417	737.75
1784.787	739.75
1789.154	734.75
1793.516	735.75
1797.874	721.75
1802.228	722.75
1806.578	713.75
1810.924	693.75
1815.266	667.75
1819.603	682.75
1823.937	674.75
1828.266	655.75
1832.591	649.75
1836.913	651.75
1841.23	646.75
1845.543	648.75
1849.852	652.75
1854.156	659.75
1858.457	658.75
1862.754	662.75
1867.047	668.75
1871.335	660.75
1875.62	673.75
1879.9	676.75
1884.177	686.75
1888.449	668.75
1892.718	680.75
1896.982	665.75
1901.243	665.75
1905.499	667.75
1909.752	662.75
1914	658.75
1918.245	662.75
1922.485	666.75
1926.722	663.75
1930.954	669.75
1935.183	673.75
1939.408	671.75
1943.628	671.75
1947.845	673.75
1952.058	677.75
1956.267	656.75
1960.472	658.75
1964.673	642.75
1968.87	631.75
1973.063	627.75
1977.252	625.75
1981.438	630.75
1985.619	624.75
1989.797	623.75
1993.971	624.75
1998.14	629.75
2002.306	624.75
2006.469	641.75
2010.627	651.75
2014.781	638.75
2018.932	640.75
2023.078	644.75
2027.221	637.75
2031.36	633.75
2035.495	622.75
2039.627	618.75
2043.754	624.75
2047.878	617.75
2051.998	632.75
2056.114	620.75
2060.226	619.75
2064.334	624.75
2068.439	635.75
2072.54	632.75
2076.637	646.75
2080.73	641.75
2084.82	635.75
2088.906	645.75
2092.988	627.75
2097.066	616.75
2101.14	627.75
2105.211	623.75
2109.278	628.75
2113.342	619.75
2117.401	628.75
2121.457	621.75
2125.509	616.75
2129.558	611.75
2133.602	611.75
2137.643	608.75
2141.681	599.75
2145.714	608.75
2149.744	600.75
2153.77	599.75
2157.793	588.75
2161.812	578.75
2165.827	577.75
2169.838	565.75
2173.846	550.75
2177.851	544.75
2181.851	536.75
2185.848	544.75
2189.841	528.75
2193.831	527.75
2197.817	520.75
2201.799	532.75
2205.778	517.75
2209.753	527.75
2213.725	517.75
2217.693	514.75
2221.657	518.75
2225.618	504.75
2229.575	515.75
2233.529	504.75
2237.479	502.75
2241.425	491.75
2245.368	484.75
2249.307	485.75
2253.243	481.75
2257.175	475.75
2261.104	460.75
2265.029	450.75
2268.95	448.75
2272.868	454.75
2276.783	438.75
2280.694	446.75
2284.601	417.75
2288.505	433.75
2292.405	416.75
2296.302	414.75
2300.195	408.75
2304.085	404.75
2307.971	398.75
2311.854	390.75
2315.734	384.75
2319.609	376.75
2323.482	371.75
2327.351	360.75
2331.216	357.75
2335.078	364.75
2338.937	363.75
2342.792	358.75
2346.643	362.75
2350.492	355.75
2354.336	351.75
2358.178	347.75
2362.015	358.75
2365.85	355.75
2369.681	357.75
2373.508	357.75
2377.333	368.75
2381.153	358.75
2384.971	350.75
2388.785	363.75
2392.595	344.75
2396.402	348.75
2400.206	346.75
2404.007	346.75
2407.804	353.75
2411.597	342.75
2415.388	341.75
2419.174	341.75
2422.958	337.75
2426.738	337.75
2430.515	338.75
2434.289	332.75
2438.059	332.75
2441.825	334.75
2445.589	328.75
2449.349	325.75
2453.106	325.75
2456.859	321.75
2460.61	314.75
2464.356	315.75
2468.1	313.75
2471.84	315.75
2475.577	317.75
2479.311	313.75
2483.041	317.75
2486.768	316.75
2490.492	310.75
2494.213	304.75
2497.93	308.75
2501.644	308.75
2505.355	311.75
2509.062	305.75
2512.766	308.75
2516.467	310.75
2520.165	304.75
2523.859	298.75
2527.551	309.75
2531.239	295.75
2534.923	296.75
2538.605	297.75
2542.283	291.75
2545.958	288.75
2549.63	279.75
2553.299	281.75
2556.964	276.75
2560.626	282.75
2564.285	278.75
2567.941	278.75
2571.594	280.75
2575.243	271.75
2578.89	277.75
2582.533	277.75
2586.173	270.75
2589.809	264.75
2593.443	262.75
2597.073	262.75
2600.701	265.75
2604.325	266.75
2607.946	256.75
2611.564	260.75
2615.178	260.75
2618.79	253.75
2622.398	252.75
2626.004	255.75
2629.606	240.75
2633.205	240.75
2636.801	241.75
2640.394	239.75
2643.983	238.75
2647.57	238.75
2651.153	237.75
2654.734	229.75
2658.311	222.75
2661.885	227.75
2665.456	223.75
2669.025	216.75
2672.589	222.75
2676.151	212.75
2679.71	214.75
2683.266	215.75
2686.819	213.75
2690.368	208.75
2693.915	206.75
2697.458	208.75
2700.999	205.75
2704.536	204.75
2708.071	206.75
2711.602	197.75
2715.13	197.75
2718.656	196.75
2722.178	204.75
2725.697	202.75
2729.214	205.75
2732.727	209.75
2736.237	208.75
2739.744	201.75
2743.249	207.75
2746.75	209.75
2750.248	207.75
2753.743	206.75
2757.236	193.75
2760.725	200.75
2764.211	198.75
2767.695	192.75
2771.175	195.75
2774.652	192.75
2778.127	178.75
2781.598	187.75
2785.067	192.75
2788.532	192.75
2791.995	191.75
2795.455	196.75
2798.911	192.75
2802.365	191.75
2805.816	196.75
2809.264	197.75
2812.709	199.75
2816.151	200.75
2819.59	197.75
2823.026	191.75
2826.46	193.75
2829.89	207.75
2833.318	202.75
2836.742	202.75
2840.164	203.75
2843.583	203.75
2846.999	205.75
2850.412	205.75
2853.822	207.75
2857.229	214.75
2860.634	212.75
2864.035	212.75
2867.434	217.75
2870.83	234.75
2874.223	226.75
2877.613	227.75
2881	217.75
2884.385	234.75
2887.766	229.75
2891.145	228.75
2894.521	232.75
2897.894	236.75
2901.264	234.75
2904.631	229.75
2907.996	239.75
2911.358	238.75
2914.717	242.75
2918.073	244.75
2921.426	257.75
2924.777	253.75
2928.124	250.75
2931.469	263.75
2934.811	273.75
2938.15	273.75
2941.487	272.75
2944.821	284.75
2948.152	286.75
2951.48	286.75
2954.805	287.75
2958.128	299.75
2961.447	303.75
2964.765	306.75
2968.079	317.75
2971.39	319.75
2974.699	330.75
2978.005	334.75
2981.308	337.75
2984.609	347.75
2987.907	363.75
2991.202	365.75
2994.494	375.75
2997.784	395.75
3001.07	407.75
3004.355	420.75
3007.636	433.75
3010.915	438.75
3014.191	444.75
3017.464	449.75
3020.734	460.75
3024.002	474.75
3027.267	462.75
3030.53	469.75
3033.789	498.75
3037.046	503.75
3040.301	514.75
3043.552	514.75
3046.801	530.75
3050.048	545.75
3053.291	570.75
3056.532	582.75
3059.771	591.75
3063.006	613.75
3066.239	637.75
3069.469	662.75
3072.697	675.75
3075.922	701.75
3079.144	713.75
3082.364	722.75
3085.581	732.75
3088.795	768.75
3092.007	784.75
3095.216	800.75
3098.423	806.75
3101.627	831.75
3104.828	859.75
3108.026	869.75
3111.222	884.75
3114.416	907.75
3117.607	923.75
3120.795	943.75
3123.98	961.75
3127.163	1000.75
3130.344	1016.75
3133.521	1038.75
3136.696	1049.75
3139.869	1077.75
3143.039	1108.75
3146.206	1123.75
3149.371	1130.75
3152.533	1136.75
3155.693	1150.75
3158.85	1172.75
3162.005	1156.75
3165.157	1155.75
3168.306	1174.75
3171.453	1192.75
3174.597	1174.75
3177.739	1186.75
3180.878	1182.75
3184.014	1202.75
3187.149	1195.75
3190.28	1199.75
3193.409	1200.75
3196.536	1220.75
3199.659	1208.75
3202.781	1229.75
3205.9	1226.75
3209.016	1220.75
3212.13	1237.75
3215.241	1240.75
3218.35	1204.75
3221.456	1199.75
3224.56	1190.75
3227.661	1192.75
3230.76	1156.75
3233.856	1162.75
3236.95	1146.75
3240.041	1137.75
3243.13	1126.75
3246.216	1114.75
3249.3	1109.75
3252.382	1108.75
3255.46	1109.75
3258.537	1098.75
3261.611	1090.75
3264.682	1100.75
3267.751	1091.75
3270.818	1077.75
3273.882	1062.75
3276.943	1071.75
3280.002	1048.75
3283.059	1055.75
3286.113	1034.75
3289.165	1024.75
3292.214	1013.75
3295.261	977.75
3298.306	976.75
3301.348	968.75
3304.387	949.75
3307.425	929.75
3310.459	917.75
3313.492	915.75
3316.521	907.75
3319.549	889.75
3322.574	882.75
3325.597	880.75
3328.617	877.75
3331.635	869.75
3334.65	863.75
3337.663	860.75
3340.674	860.75
3343.682	853.75
3346.688	854.75
3349.691	837.75
3352.692	845.75
3355.691	846.75
3358.687	821.75
3361.681	812.75
3364.673	801.75
3367.662	795.75
3370.649	790.75
3373.633	767.75
3376.615	773.75
3379.595	769.75
3382.572	750.75
3385.547	752.75
3388.52	726.75
3391.49	733.75
3394.458	705.75
3397.424	705.75
3400.387	698.75
3403.348	689.75
3406.307	670.75
3409.263	670.75
3412.217	672.75
3415.168	657.75
3418.118	661.75
3421.065	641.75
3424.009	641.75
3426.951	628.75
3429.891	600.75
3432.829	602.75
3435.764	581.75
3438.697	562.75
3441.628	585.75
3444.557	544.75
3447.483	533.75
3450.407	515.75
3453.328	504.75
3456.247	498.75
3459.164	479.75
3462.079	465.75
3464.991	451.75
3467.902	430.75
3470.809	422.75
3473.715	422.75
3476.618	403.75
3479.519	382.75
3482.418	382.75
3485.315	369.75
3488.209	356.75
3491.101	343.75
3493.99	343.75
3496.878	326.75
3499.763	308.75
3502.646	300.75
3505.527	290.75
3508.405	277.75
3511.281	266.75
3514.155	264.75
3517.027	244.75
3519.897	235.75
3522.764	221.75
3525.629	214.75
3528.492	200.75
3531.352	185.75
3534.211	174.75
3537.067	168.75
3539.921	161.75
3542.773	143.75
3545.622	142.75
3548.469	132.75
3551.315	118.75
3554.157	112.75
3556.998	103.75
3559.837	101.75
3562.673	94.75
3565.507	84.75
3568.339	81.75
3571.169	73.75
3573.996	64.75
3576.822	64.75
3579.645	55.75
3582.466	46.75
3585.285	42.75
3588.101	36.75
3590.916	33.75
3593.728	33.75
3596.538	19.75
3599.346	22.75
3602.152	16.75
3604.956	6.75
3607.757	3.75
3610.556	3.75
3613.354	3.75
3616.149	0.75
3618.942	-6.25
3621.732	-8.25
3624.521	-9.25
3627.307	-16.25
3630.092	-17.25
3632.874	-24.25
3635.654	-31.25
3638.432	-26.25
3641.208	-31.25
3643.982	-33.25
3646.753	-38.25
3649.523	-44.25
3652.29	-40.25
3655.055	-46.25
3657.818	-51.25
3660.579	-50.25
3663.338	-55.25
3666.095	-56.25
3668.849	-66.25
3671.602	-60.25
3674.352	-67.25
3677.101	-63.25
3679.847	-69.25
3682.591	-71.25
3685.333	-71.25
3688.073	-65.25
3690.811	-70.25
3693.547	-76.25
3696.281	-76.25
3699.013	-79.25
3701.742	-80.25
3704.47	-81.25
3707.195	-77.25
3709.919	-81.25
3712.64	-83.25
3715.359	-84.25
3718.076	-87.25
3720.792	-85.25
3723.505	-87.25
3726.216	-88.25
3728.925	-92.25
3731.632	-90.25
3734.336	-93.25
3737.039	-95.25
3739.74	-96.25
3742.439	-95.25
3745.136	-96.25
3747.83	-92.25
3750.523	-96.25
3753.213	-91.25
3755.902	-90.25
3758.589	-90.25
3761.273	-94.25
3763.956	-101.25
3766.636	-101.25
3769.315	-97.25
3771.991	-99.25
3774.665	-96.25
3777.338	-101.25
3780.008	-100.25
3782.677	-100.25
3785.343	-100.25
3788.007	-97.25
3790.67	-99.25
3793.33	-101.25
3795.989	-102.25
3798.645	-102.25
3801.299	-102.25
3803.952	-100.25
3806.602	-103.25
3809.251	-98.25
3811.897	-102.25
3814.542	-108.25
3817.184	-105.25
3819.825	-102.25
3822.463	-102.25
3825.1	-105.25
3827.735	-104.25
3830.367	-107.25
3832.998	-104.25
3835.627	-107.25
3838.253	-108.25
3840.878	-112.25
3843.501	-105.25
3846.122	-107.25
3848.741	-106.25
3851.358	-106.25
3853.973	-102.25
3856.586	-108.25
3859.197	-108.25
3861.806	-109.25
3864.414	-107.25
3867.019	-115.25
3869.622	-108.25
3872.224	-107.25
3874.823	-101.25
3877.421	-99.25
3880.016	-101.25
3882.61	-96.25
3885.202	-94.25
3887.792	-98.25
3890.38	-101.25
3892.966	-105.25
3895.55	-107.25
3898.132	-115.25
3900.713	-111.25
3903.291	-110.25
3905.868	-111.25
3908.442	-114.25
3911.015	-112.25
3913.586	-111.25
3916.155	-111.25
3918.722	-111.25
3921.287	-112.25
3923.85	-113.25
3926.411	-110.25
3928.971	-116.25
3931.528	-112.25
3934.084	-113.25
3936.638	-112.25
3939.19	-107.25
3941.74	-107.25
3944.288	-111.25
3946.834	-109.25
3949.378	-110.25
3951.921	-112.25
3954.462	-112.25
3957	-113.25
3959.537	-113.25
3962.072	-113.25
3964.606	-113.25
3967.137	-112.25
3969.667	-115.25
3972.194	-109.25
3974.72	-110.25
3977.244	-110.25
3979.766	-111.25
3982.286	-112.25
3984.805	-114.25
3987.321	-114.25
3989.836	-112.25
3992.349	-114.25
3994.86	-110.25
3997.369	-115.25
3999.877	-112.25
4002.382	-110.25
4004.886	-109.25
4007.388	-109.25
4009.888	-109.25
4012.386	-108.25
4014.883	-109.25
4017.377	-107.25
4019.87	-111.25
4022.361	-111.25
4024.85	-107.25
4027.338	-111.25
4029.823	-113.25
4032.307	-113.25
4034.789	-113.25
4037.269	-111.25
4039.747	-110.25
4042.224	-108.25
4044.699	-112.25
4047.172	-116.25
4049.643	-113.25
4052.112	-113.25
4054.58	-113.25
4057.046	-115.25
4059.51	-113.25
4061.972	-114.25
4064.432	-115.25
4066.891	-115.25
4069.348	-111.25
4071.803	-107.25
4074.256	-112.25
4076.708	-111.25
4079.158	-113.25
4081.606	-112.25
4084.052	-111.25
4086.497	-111.25
4088.939	-114.25
4091.38	-114.25
4093.819	-113.25
4096.257	-112.25
4098.693	-115.25
4101.127	-118.25
4103.559	-116.25
4105.989	-74.25
4108.418	-69.25
4110.845	-69.25
4113.27	-64.25
4115.694	-56.25
4118.115	-51.25
4120.535	-114.25
4122.954	-111.25
4125.37	-107.25
4127.785	-110.25
4130.198	-109.25
4132.609	-106.25
4135.019	-113.25
4137.427	-116.25
4139.833	-119.25
4142.237	-118.25
