Data from 10000CFU2_B_RamanShift_1.txt Node
Date: Thu Jan 26 11:35:08 IST 2017
User: aro
Spectrometer: QEPB0276
Trigger mode: 0
Integration Time (sec): 5.000000E0
Scans to average: 1
Electric dark correction enabled: true
Nonlinearity correction enabled: false
Boxcar width: 0
XAxis mode: Raman Shifts
Number of Pixels in Spectrum: 1044
>>>>>Begin Spectral Data<<<<<
160.701	-32.5
166.742	-0.5
172.777	92.5
178.805	391.5
184.826	1082.5
190.841	2191.5
196.849	3416.5
202.85	4182.5
208.845	4359.5
214.833	4202.5
220.815	4053.5
226.789	3954.5
232.758	3857.5
238.719	3701.5
244.674	3589.5
250.623	3442.5
256.565	3253.5
262.5	3137.5
268.429	3007.5
274.351	2869.5
280.267	2764.5
286.176	2664.5
292.079	2573.5
297.975	2493.5
303.865	2425.5
309.748	2345.5
315.625	2315.5
321.495	2265.5
327.359	2239.5
333.217	2204.5
339.068	2200.5
344.912	2192.5
350.751	2168.5
356.583	2153.5
362.408	2162.5
368.227	2149.5
374.04	2166.5
379.847	2169.5
385.647	2184.5
391.44	2189.5
397.228	2200.5
403.009	2225.5
408.784	2244.5
414.553	2256.5
420.315	2238.5
426.071	2227.5
431.821	2242.5
437.565	2237.5
443.302	2234.5
449.033	2247.5
454.758	2202.5
460.477	2220.5
466.189	2198.5
471.896	2190.5
477.596	2188.5
483.29	2159.5
488.978	2162.5
494.66	2132.5
500.335	2116.5
506.005	2083.5
511.668	2039.5
517.325	2010.5
522.977	1981.5
528.622	1974.5
534.261	1925.5
539.894	1899.5
545.521	1892.5
551.141	1892.5
556.756	1874.5
562.365	1846.5
567.968	1847.5
573.565	1847.5
579.155	1830.5
584.74	1816.5
590.319	1809.5
595.892	1780.5
601.459	1791.5
607.02	1755.5
612.575	1746.5
618.124	1724.5
623.667	1704.5
629.204	1685.5
634.735	1687.5
640.261	1682.5
645.781	1678.5
651.294	1648.5
656.802	1663.5
662.304	1651.5
667.8	1657.5
673.29	1638.5
678.775	1623.5
684.254	1606.5
689.726	1625.5
695.193	1603.5
700.655	1597.5
706.11	1591.5
711.56	1573.5
717.004	1553.5
722.442	1555.5
727.874	1549.5
733.301	1530.5
738.722	1526.5
744.137	1544.5
749.547	1520.5
754.951	1512.5
760.349	1514.5
765.741	1509.5
771.128	1507.5
776.509	1515.5
781.885	1508.5
787.254	1502.5
792.618	1509.5
797.977	1512.5
803.33	1484.5
808.677	1463.5
814.019	1453.5
819.355	1433.5
824.686	1423.5
830.011	1413.5
835.33	1416.5
840.644	1406.5
845.952	1406.5
851.255	1405.5
856.552	1397.5
861.844	1375.5
867.13	1357.5
872.41	1368.5
877.686	1349.5
882.955	1334.5
888.219	1299.5
893.478	1289.5
898.731	1254.5
903.979	1247.5
909.221	1252.5
914.458	1244.5
919.69	1239.5
924.916	1232.5
930.136	1226.5
935.351	1225.5
940.561	1218.5
945.766	1207.5
950.965	1212.5
956.158	1208.5
961.347	1198.5
966.529	1162.5
971.707	1150.5
976.879	1142.5
982.046	1136.5
987.208	1126.5
992.364	1136.5
997.515	1139.5
1002.66	1132.5
1007.801	1133.5
1012.936	1163.5
1018.066	1159.5
1023.19	1170.5
1028.309	1171.5
1033.423	1182.5
1038.532	1172.5
1043.636	1167.5
1048.734	1158.5
1053.827	1148.5
1058.915	1139.5
1063.998	1127.5
1069.075	1106.5
1074.147	1108.5
1079.214	1147.5
1084.276	1134.5
1089.333	1155.5
1094.385	1136.5
1099.431	1155.5
1104.472	1170.5
1109.509	1154.5
1114.54	1136.5
1119.565	1124.5
1124.586	1121.5
1129.602	1096.5
1134.613	1097.5
1139.618	1101.5
1144.619	1096.5
1149.614	1099.5
1154.604	1103.5
1159.589	1111.5
1164.57	1117.5
1169.545	1123.5
1174.515	1119.5
1179.48	1112.5
1184.44	1106.5
1189.395	1105.5
1194.345	1110.5
1199.29	1086.5
1204.23	1076.5
1209.165	1098.5
1214.095	1099.5
1219.021	1116.5
1223.941	1133.5
1228.856	1140.5
1233.766	1152.5
1238.672	1145.5
1243.572	1128.5
1248.467	1128.5
1253.358	1130.5
1258.244	1108.5
1263.124	1093.5
1268	1066.5
1272.871	1061.5
1277.737	1070.5
1282.599	1048.5
1287.455	1052.5
1292.306	1062.5
1297.153	1058.5
1301.995	1065.5
1306.832	1083.5
1311.664	1080.5
1316.491	1073.5
1321.314	1084.5
1326.132	1067.5
1330.945	1076.5
1335.753	1049.5
1340.556	1020.5
1345.354	1024.5
1350.148	1029.5
1354.937	1014.5
1359.722	1019.5
1364.501	994.5
1369.276	998.5
1374.046	985.5
1378.811	983.5
1383.572	980.5
1388.327	988.5
1393.079	989.5
1397.825	963.5
1402.567	952.5
1407.304	948.5
1412.036	954.5
1416.764	941.5
1421.487	947.5
1426.205	947.5
1430.919	954.5
1435.628	977.5
1440.333	983.5
1445.032	988.5
1449.727	987.5
1454.418	1007.5
1459.104	995.5
1463.785	991.5
1468.462	973.5
1473.134	980.5
1477.802	987.5
1482.465	956.5
1487.123	973.5
1491.777	976.5
1496.426	971.5
1501.071	990.5
1505.711	999.5
1510.347	1002.5
1514.978	1020.5
1519.604	1006.5
1524.226	1016.5
1528.844	1016.5
1533.457	1026.5
1538.065	1018.5
1542.669	1015.5
1547.269	1006.5
1551.864	1010.5
1556.454	1020.5
1561.041	1041.5
1565.622	1038.5
1570.199	1049.5
1574.772	1069.5
1579.34	1084.5
1583.904	1109.5
1588.464	1128.5
1593.019	1137.5
1597.569	1168.5
1602.115	1180.5
1606.657	1183.5
1611.195	1199.5
1615.728	1204.5
1620.256	1222.5
1624.78	1249.5
1629.3	1265.5
1633.816	1263.5
1638.327	1285.5
1642.834	1301.5
1647.336	1321.5
1651.834	1315.5
1656.328	1319.5
1660.817	1311.5
1665.302	1299.5
1669.783	1262.5
1674.259	1238.5
1678.732	1199.5
1683.199	1168.5
1687.663	1120.5
1692.122	1071.5
1696.577	1029.5
1701.028	988.5
1705.474	955.5
1709.917	924.5
1714.355	904.5
1718.788	886.5
1723.218	866.5
1727.643	866.5
1732.064	851.5
1736.481	818.5
1740.893	801.5
1745.301	790.5
1749.705	758.5
1754.105	739.5
1758.501	725.5
1762.893	713.5
1767.28	721.5
1771.663	693.5
1776.042	703.5
1780.417	716.5
1784.787	705.5
1789.154	696.5
1793.516	697.5
1797.874	703.5
1802.228	687.5
1806.578	680.5
1810.924	670.5
1815.266	652.5
1819.603	652.5
1823.937	630.5
1828.266	633.5
1832.591	633.5
1836.913	629.5
1841.23	632.5
1845.543	631.5
1849.852	630.5
1854.156	641.5
1858.457	634.5
1862.754	639.5
1867.047	644.5
1871.335	646.5
1875.62	643.5
1879.9	643.5
1884.177	645.5
1888.449	643.5
1892.718	649.5
1896.982	642.5
1901.243	649.5
1905.499	625.5
1909.752	629.5
1914	626.5
1918.245	635.5
1922.485	622.5
1926.722	641.5
1930.954	631.5
1935.183	658.5
1939.408	641.5
1943.628	657.5
1947.845	645.5
1952.058	652.5
1956.267	641.5
1960.472	634.5
1964.673	626.5
1968.87	614.5
1973.063	599.5
1977.252	608.5
1981.438	611.5
1985.619	600.5
1989.797	611.5
1993.971	615.5
1998.14	608.5
2002.306	617.5
2006.469	608.5
2010.627	618.5
2014.781	621.5
2018.932	614.5
2023.078	618.5
2027.221	613.5
2031.36	603.5
2035.495	607.5
2039.627	608.5
2043.754	597.5
2047.878	614.5
2051.998	595.5
2056.114	600.5
2060.226	591.5
2064.334	612.5
2068.439	601.5
2072.54	620.5
2076.637	612.5
2080.73	607.5
2084.82	617.5
2088.906	612.5
2092.988	616.5
2097.066	625.5
2101.14	604.5
2105.211	602.5
2109.278	601.5
2113.342	604.5
2117.401	588.5
2121.457	591.5
2125.509	595.5
2129.558	581.5
2133.602	582.5
2137.643	573.5
2141.681	575.5
2145.714	580.5
2149.744	589.5
2153.77	566.5
2157.793	568.5
2161.812	557.5
2165.827	552.5
2169.838	540.5
2173.846	533.5
2177.851	528.5
2181.851	513.5
2185.848	529.5
2189.841	509.5
2193.831	500.5
2197.817	506.5
2201.799	503.5
2205.778	496.5
2209.753	507.5
2213.725	489.5
2217.693	497.5
2221.657	506.5
2225.618	491.5
2229.575	494.5
2233.529	492.5
2237.479	478.5
2241.425	485.5
2245.368	466.5
2249.307	460.5
2253.243	455.5
2257.175	457.5
2261.104	441.5
2265.029	437.5
2268.95	440.5
2272.868	421.5
2276.783	423.5
2280.694	426.5
2284.601	411.5
2288.505	412.5
2292.405	413.5
2296.302	411.5
2300.195	393.5
2304.085	386.5
2307.971	384.5
2311.854	378.5
2315.734	364.5
2319.609	371.5
2323.482	360.5
2327.351	358.5
2331.216	358.5
2335.078	355.5
2338.937	353.5
2342.792	350.5
2346.643	346.5
2350.492	341.5
2354.336	342.5
2358.178	348.5
2362.015	347.5
2365.85	340.5
2369.681	343.5
2373.508	351.5
2377.333	349.5
2381.153	355.5
2384.971	351.5
2388.785	350.5
2392.595	347.5
2396.402	330.5
2400.206	343.5
2404.007	333.5
2407.804	341.5
2411.597	325.5
2415.388	325.5
2419.174	326.5
2422.958	336.5
2426.738	328.5
2430.515	330.5
2434.289	323.5
2438.059	321.5
2441.825	327.5
2445.589	319.5
2449.349	321.5
2453.106	315.5
2456.859	318.5
2460.61	315.5
2464.356	303.5
2468.1	303.5
2471.84	305.5
2475.577	297.5
2479.311	303.5
2483.041	309.5
2486.768	299.5
2490.492	301.5
2494.213	297.5
2497.93	300.5
2501.644	301.5
2505.355	301.5
2509.062	304.5
2512.766	296.5
2516.467	298.5
2520.165	301.5
2523.859	294.5
2527.551	287.5
2531.239	282.5
2534.923	295.5
2538.605	280.5
2542.283	286.5
2545.958	278.5
2549.63	272.5
2553.299	280.5
2556.964	274.5
2560.626	270.5
2564.285	270.5
2567.941	271.5
2571.594	274.5
2575.243	267.5
2578.89	264.5
2582.533	263.5
2586.173	266.5
2589.809	262.5
2593.443	266.5
2597.073	245.5
2600.701	248.5
2604.325	253.5
2607.946	248.5
2611.564	253.5
2615.178	245.5
2618.79	251.5
2622.398	246.5
2626.004	237.5
2629.606	240.5
2633.205	236.5
2636.801	235.5
2640.394	241.5
2643.983	226.5
2647.57	225.5
2651.153	232.5
2654.734	230.5
2658.311	218.5
2661.885	223.5
2665.456	217.5
2669.025	219.5
2672.589	221.5
2676.151	212.5
2679.71	221.5
2683.266	200.5
2686.819	203.5
2690.368	205.5
2693.915	199.5
2697.458	204.5
2700.999	202.5
2704.536	201.5
2708.071	198.5
2711.602	203.5
2715.13	197.5
2718.656	197.5
2722.178	191.5
2725.697	194.5
2729.214	194.5
2732.727	195.5
2736.237	196.5
2739.744	192.5
2743.249	198.5
2746.75	199.5
2750.248	205.5
2753.743	195.5
2757.236	199.5
2760.725	196.5
2764.211	191.5
2767.695	198.5
2771.175	185.5
2774.652	181.5
2778.127	182.5
2781.598	182.5
2785.067	184.5
2788.532	192.5
2791.995	182.5
2795.455	194.5
2798.911	186.5
2802.365	187.5
2805.816	188.5
2809.264	195.5
2812.709	195.5
2816.151	185.5
2819.59	194.5
2823.026	194.5
2826.46	193.5
2829.89	198.5
2833.318	198.5
2836.742	190.5
2840.164	196.5
2843.583	198.5
2846.999	199.5
2850.412	211.5
2853.822	209.5
2857.229	201.5
2860.634	209.5
2864.035	215.5
2867.434	217.5
2870.83	217.5
2874.223	225.5
2877.613	223.5
2881	223.5
2884.385	221.5
2887.766	223.5
2891.145	222.5
2894.521	228.5
2897.894	229.5
2901.264	219.5
2904.631	226.5
2907.996	226.5
2911.358	233.5
2914.717	241.5
2918.073	235.5
2921.426	237.5
2924.777	247.5
2928.124	253.5
2931.469	258.5
2934.811	260.5
2938.15	274.5
2941.487	270.5
2944.821	274.5
2948.152	280.5
2951.48	278.5
2954.805	288.5
2958.128	296.5
2961.447	298.5
2964.765	297.5
2968.079	306.5
2971.39	316.5
2974.699	313.5
2978.005	320.5
2981.308	335.5
2984.609	346.5
2987.907	347.5
2991.202	355.5
2994.494	367.5
2997.784	371.5
3001.07	387.5
3004.355	398.5
3007.636	413.5
3010.915	415.5
3014.191	435.5
3017.464	425.5
3020.734	442.5
3024.002	447.5
3027.267	455.5
3030.53	468.5
3033.789	464.5
3037.046	483.5
3040.301	492.5
3043.552	503.5
3046.801	512.5
3050.048	536.5
3053.291	552.5
3056.532	558.5
3059.771	574.5
3063.006	590.5
3066.239	618.5
3069.469	626.5
3072.697	647.5
3075.922	661.5
3079.144	685.5
3082.364	695.5
3085.581	721.5
3088.795	729.5
3092.007	747.5
3095.216	778.5
3098.423	779.5
3101.627	786.5
3104.828	821.5
3108.026	829.5
3111.222	852.5
3114.416	874.5
3117.607	893.5
3120.795	906.5
3123.98	940.5
3127.163	957.5
3130.344	973.5
3133.521	991.5
3136.696	1017.5
3139.869	1035.5
3143.039	1059.5
3146.206	1059.5
3149.371	1083.5
3152.533	1082.5
3155.693	1083.5
3158.85	1119.5
3162.005	1110.5
3165.157	1135.5
3168.306	1124.5
3171.453	1136.5
3174.597	1126.5
3177.739	1141.5
3180.878	1140.5
3184.014	1148.5
3187.149	1147.5
3190.28	1157.5
3193.409	1157.5
3196.536	1177.5
3199.659	1155.5
3202.781	1176.5
3205.9	1169.5
3209.016	1161.5
3212.13	1177.5
3215.241	1164.5
3218.35	1157.5
3221.456	1149.5
3224.56	1146.5
3227.661	1126.5
3230.76	1132.5
3233.856	1110.5
3236.95	1084.5
3240.041	1093.5
3243.13	1071.5
3246.216	1065.5
3249.3	1075.5
3252.382	1054.5
3255.46	1053.5
3258.537	1055.5
3261.611	1049.5
3264.682	1042.5
3267.751	1050.5
3270.818	1019.5
3273.882	1035.5
3276.943	1033.5
3280.002	1024.5
3283.059	1027.5
3286.113	1003.5
3289.165	984.5
3292.214	968.5
3295.261	958.5
3298.306	932.5
3301.348	946.5
3304.387	908.5
3307.425	900.5
3310.459	899.5
3313.492	880.5
3316.521	868.5
3319.549	843.5
3322.574	855.5
3325.597	849.5
3328.617	837.5
3331.635	832.5
3334.65	834.5
3337.663	826.5
3340.674	819.5
3343.682	823.5
3346.688	806.5
3349.691	793.5
3352.692	807.5
3355.691	793.5
3358.687	797.5
3361.681	790.5
3364.673	785.5
3367.662	773.5
3370.649	764.5
3373.633	751.5
3376.615	738.5
3379.595	720.5
3382.572	724.5
3385.547	717.5
3388.52	702.5
3391.49	696.5
3394.458	684.5
3397.424	674.5
3400.387	659.5
3403.348	652.5
3406.307	644.5
3409.263	651.5
3412.217	623.5
3415.168	633.5
3418.118	634.5
3421.065	620.5
3424.009	611.5
3426.951	605.5
3429.891	584.5
3432.829	586.5
3435.764	570.5
3438.697	563.5
3441.628	550.5
3444.557	534.5
3447.483	512.5
3450.407	508.5
3453.328	488.5
3456.247	479.5
3459.164	468.5
3462.079	444.5
3464.991	430.5
3467.902	415.5
3470.809	418.5
3473.715	398.5
3476.618	385.5
3479.519	373.5
3482.418	367.5
3485.315	355.5
3488.209	338.5
3491.101	333.5
3493.99	326.5
3496.878	306.5
3499.763	307.5
3502.646	289.5
3505.527	278.5
3508.405	268.5
3511.281	261.5
3514.155	255.5
3517.027	244.5
3519.897	233.5
3522.764	210.5
3525.629	214.5
3528.492	203.5
3531.352	179.5
3534.211	172.5
3537.067	160.5
3539.921	156.5
3542.773	149.5
3545.622	134.5
3548.469	132.5
3551.315	115.5
3554.157	114.5
3556.998	99.5
3559.837	99.5
3562.673	96.5
3565.507	90.5
3568.339	77.5
3571.169	76.5
3573.996	63.5
3576.822	62.5
3579.645	61.5
3582.466	52.5
3585.285	45.5
3588.101	41.5
3590.916	34.5
3593.728	31.5
3596.538	23.5
3599.346	18.5
3602.152	16.5
3604.956	8.5
3607.757	8.5
3610.556	4.5
3613.354	1.5
3616.149	-6.5
3618.942	-1.5
3621.732	-6.5
3624.521	-10.5
3627.307	-20.5
3630.092	-18.5
3632.874	-16.5
3635.654	-27.5
3638.432	-28.5
3641.208	-36.5
3643.982	-34.5
3646.753	-36.5
3649.523	-36.5
3652.29	-42.5
3655.055	-42.5
3657.818	-47.5
3660.579	-49.5
3663.338	-53.5
3666.095	-54.5
3668.849	-57.5
3671.602	-57.5
3674.352	-59.5
3677.101	-61.5
3679.847	-63.5
3682.591	-66.5
3685.333	-63.5
3688.073	-69.5
3690.811	-68.5
3693.547	-69.5
3696.281	-72.5
3699.013	-75.5
3701.742	-73.5
3704.47	-75.5
3707.195	-78.5
3709.919	-78.5
3712.64	-79.5
3715.359	-79.5
3718.076	-82.5
3720.792	-82.5
3723.505	-85.5
3726.216	-83.5
3728.925	-86.5
3731.632	-87.5
3734.336	-89.5
3737.039	-93.5
3739.74	-90.5
3742.439	-88.5
3745.136	-91.5
3747.83	-91.5
3750.523	-91.5
3753.213	-87.5
3755.902	-90.5
3758.589	-86.5
3761.273	-90.5
3763.956	-95.5
3766.636	-93.5
3769.315	-93.5
3771.991	-94.5
3774.665	-90.5
3777.338	-96.5
3780.008	-92.5
3782.677	-95.5
3785.343	-96.5
3788.007	-95.5
3790.67	-92.5
3793.33	-97.5
3795.989	-98.5
3798.645	-97.5
3801.299	-100.5
3803.952	-100.5
3806.602	-97.5
3809.251	-95.5
3811.897	-101.5
3814.542	-103.5
3817.184	-99.5
3819.825	-101.5
3822.463	-100.5
3825.1	-101.5
3827.735	-101.5
3830.367	-103.5
3832.998	-104.5
3835.627	-107.5
3838.253	-101.5
3840.878	-105.5
3843.501	-101.5
3846.122	-102.5
3848.741	-100.5
3851.358	-99.5
3853.973	-98.5
3856.586	-104.5
3859.197	-106.5
3861.806	-104.5
3864.414	-105.5
3867.019	-108.5
3869.622	-103.5
3872.224	-104.5
3874.823	-100.5
3877.421	-96.5
3880.016	-101.5
3882.61	-94.5
3885.202	-89.5
3887.792	-96.5
3890.38	-103.5
3892.966	-103.5
3895.55	-107.5
3898.132	-110.5
3900.713	-110.5
3903.291	-105.5
3905.868	-107.5
3908.442	-108.5
3911.015	-104.5
3913.586	-104.5
3916.155	-102.5
3918.722	-104.5
3921.287	-105.5
3923.85	-108.5
3926.411	-105.5
3928.971	-107.5
3931.528	-107.5
3934.084	-110.5
3936.638	-107.5
3939.19	-106.5
3941.74	-100.5
3944.288	-107.5
3946.834	-105.5
3949.378	-106.5
3951.921	-109.5
3954.462	-105.5
3957	-110.5
3959.537	-110.5
3962.072	-107.5
3964.606	-107.5
3967.137	-107.5
3969.667	-109.5
3972.194	-103.5
3974.72	-109.5
3977.244	-104.5
3979.766	-105.5
3982.286	-105.5
3984.805	-111.5
3987.321	-109.5
3989.836	-105.5
3992.349	-107.5
3994.86	-103.5
3997.369	-111.5
3999.877	-103.5
4002.382	-103.5
4004.886	-106.5
4007.388	-106.5
4009.888	-105.5
4012.386	-106.5
4014.883	-107.5
4017.377	-105.5
4019.87	-107.5
4022.361	-111.5
4024.85	-106.5
4027.338	-108.5
4029.823	-112.5
4032.307	-110.5
4034.789	-111.5
4037.269	-109.5
4039.747	-109.5
4042.224	-102.5
4044.699	-107.5
4047.172	-107.5
4049.643	-106.5
4052.112	-106.5
4054.58	-109.5
4057.046	-108.5
4059.51	-106.5
4061.972	-109.5
4064.432	-105.5
4066.891	-105.5
4069.348	-104.5
4071.803	-102.5
4074.256	-104.5
4076.708	-106.5
4079.158	-107.5
4081.606	-106.5
4084.052	-108.5
4086.497	-106.5
4088.939	-106.5
4091.38	-108.5
4093.819	-110.5
4096.257	-112.5
4098.693	-112.5
4101.127	-114.5
4103.559	-110.5
4105.989	-72.5
4108.418	-71.5
4110.845	-63.5
4113.27	-60.5
4115.694	-58.5
4118.115	-51.5
4120.535	-110.5
4122.954	-107.5
4125.37	-105.5
4127.785	-106.5
4130.198	-104.5
4132.609	-105.5
4135.019	-110.5
4137.427	-114.5
4139.833	-114.5
4142.237	-111.5
