Data from 10000CFU3_B_RamanShift_1.txt Node
Date: Thu Jan 26 11:35:58 IST 2017
User: aro
Spectrometer: QEPB0276
Trigger mode: 0
Integration Time (sec): 5.000000E0
Scans to average: 1
Electric dark correction enabled: true
Nonlinearity correction enabled: false
Boxcar width: 0
XAxis mode: Raman Shifts
Number of Pixels in Spectrum: 1044
>>>>>Begin Spectral Data<<<<<
160.701	-34.38
166.742	2.62
172.777	102.62
178.805	402.62
184.826	1140.62
190.841	2330.62
196.849	3628.62
202.85	4431.62
208.845	4613.62
214.833	4446.62
220.815	4277.62
226.789	4135.62
232.758	4033.62
238.719	3922.62
244.674	3798.62
250.623	3615.62
256.565	3450.62
262.5	3282.62
268.429	3138.62
274.351	3010.62
280.267	2914.62
286.176	2812.62
292.079	2695.62
297.975	2630.62
303.865	2537.62
309.748	2487.62
315.625	2434.62
321.495	2366.62
327.359	2337.62
333.217	2329.62
339.068	2298.62
344.912	2289.62
350.751	2267.62
356.583	2260.62
362.408	2288.62
368.227	2265.62
374.04	2274.62
379.847	2271.62
385.647	2284.62
391.44	2305.62
397.228	2307.62
403.009	2310.62
408.784	2325.62
414.553	2345.62
420.315	2350.62
426.071	2358.62
431.821	2326.62
437.565	2346.62
443.302	2342.62
449.033	2340.62
454.758	2322.62
460.477	2317.62
466.189	2319.62
471.896	2307.62
477.596	2280.62
483.29	2255.62
488.978	2258.62
494.66	2213.62
500.335	2205.62
506.005	2160.62
511.668	2128.62
517.325	2101.62
522.977	2060.62
528.622	2047.62
534.261	2017.62
539.894	1997.62
545.521	1958.62
551.141	1962.62
556.756	1933.62
562.365	1930.62
567.968	1921.62
573.565	1908.62
579.155	1893.62
584.74	1891.62
590.319	1878.62
595.892	1864.62
601.459	1848.62
607.02	1834.62
612.575	1831.62
618.124	1809.62
623.667	1782.62
629.204	1796.62
634.735	1731.62
640.261	1747.62
645.781	1731.62
651.294	1717.62
656.802	1731.62
662.304	1727.62
667.8	1713.62
673.29	1697.62
678.775	1685.62
684.254	1679.62
689.726	1691.62
695.193	1672.62
700.655	1655.62
706.11	1660.62
711.56	1650.62
717.004	1625.62
722.442	1602.62
727.874	1608.62
733.301	1610.62
738.722	1603.62
744.137	1597.62
749.547	1592.62
754.951	1572.62
760.349	1568.62
765.741	1571.62
771.128	1571.62
776.509	1567.62
781.885	1583.62
787.254	1574.62
792.618	1572.62
797.977	1558.62
803.33	1540.62
808.677	1521.62
814.019	1505.62
819.355	1499.62
824.686	1478.62
830.011	1473.62
835.33	1467.62
840.644	1463.62
845.952	1455.62
851.255	1448.62
856.552	1422.62
861.844	1436.62
867.13	1423.62
872.41	1397.62
877.686	1402.62
882.955	1385.62
888.219	1371.62
893.478	1342.62
898.731	1321.62
903.979	1318.62
909.221	1300.62
914.458	1286.62
919.69	1282.62
924.916	1278.62
930.136	1272.62
935.351	1278.62
940.561	1274.62
945.766	1272.62
950.965	1261.62
956.158	1246.62
961.347	1226.62
966.529	1211.62
971.707	1207.62
976.879	1199.62
982.046	1160.62
987.208	1171.62
992.364	1156.62
997.515	1170.62
1002.66	1176.62
1007.801	1177.62
1012.936	1208.62
1018.066	1203.62
1023.19	1215.62
1028.309	1222.62
1033.423	1218.62
1038.532	1203.62
1043.636	1193.62
1048.734	1196.62
1053.827	1176.62
1058.915	1162.62
1063.998	1159.62
1069.075	1154.62
1074.147	1152.62
1079.214	1174.62
1084.276	1166.62
1089.333	1176.62
1094.385	1190.62
1099.431	1195.62
1104.472	1188.62
1109.509	1196.62
1114.54	1180.62
1119.565	1168.62
1124.586	1138.62
1129.602	1130.62
1134.613	1129.62
1139.618	1137.62
1144.619	1126.62
1149.614	1132.62
1154.604	1134.62
1159.589	1140.62
1164.57	1163.62
1169.545	1146.62
1174.515	1139.62
1179.48	1161.62
1184.44	1148.62
1189.395	1132.62
1194.345	1139.62
1199.29	1120.62
1204.23	1135.62
1209.165	1136.62
1214.095	1125.62
1219.021	1168.62
1223.941	1165.62
1228.856	1154.62
1233.766	1174.62
1238.672	1181.62
1243.572	1170.62
1248.467	1162.62
1253.358	1155.62
1258.244	1130.62
1263.124	1116.62
1268	1100.62
1272.871	1092.62
1277.737	1089.62
1282.599	1074.62
1287.455	1079.62
1292.306	1082.62
1297.153	1094.62
1301.995	1105.62
1306.832	1114.62
1311.664	1122.62
1316.491	1127.62
1321.314	1103.62
1326.132	1115.62
1330.945	1091.62
1335.753	1082.62
1340.556	1067.62
1345.354	1054.62
1350.148	1037.62
1354.937	1047.62
1359.722	1019.62
1364.501	1018.62
1369.276	1008.62
1374.046	1002.62
1378.811	1005.62
1383.572	998.62
1388.327	996.62
1393.079	998.62
1397.825	991.62
1402.567	984.62
1407.304	980.62
1412.036	990.62
1416.764	974.62
1421.487	983.62
1426.205	966.62
1430.919	988.62
1435.628	996.62
1440.333	1019.62
1445.032	1018.62
1449.727	1026.62
1454.418	1039.62
1459.104	1031.62
1463.785	1011.62
1468.462	1011.62
1473.134	1011.62
1477.802	995.62
1482.465	989.62
1487.123	997.62
1491.777	1004.62
1496.426	1000.62
1501.071	1007.62
1505.711	1023.62
1510.347	1031.62
1514.978	1035.62
1519.604	1041.62
1524.226	1045.62
1528.844	1046.62
1533.457	1038.62
1538.065	1058.62
1542.669	1028.62
1547.269	1037.62
1551.864	1041.62
1556.454	1061.62
1561.041	1052.62
1565.622	1072.62
1570.199	1087.62
1574.772	1107.62
1579.34	1124.62
1583.904	1149.62
1588.464	1170.62
1593.019	1176.62
1597.569	1205.62
1602.115	1203.62
1606.657	1225.62
1611.195	1249.62
1615.728	1262.62
1620.256	1260.62
1624.78	1291.62
1629.3	1308.62
1633.816	1323.62
1638.327	1328.62
1642.834	1359.62
1647.336	1364.62
1651.834	1357.62
1656.328	1359.62
1660.817	1366.62
1665.302	1335.62
1669.783	1300.62
1674.259	1264.62
1678.732	1231.62
1683.199	1201.62
1687.663	1160.62
1692.122	1113.62
1696.577	1062.62
1701.028	1032.62
1705.474	978.62
1709.917	954.62
1714.355	923.62
1718.788	930.62
1723.218	902.62
1727.643	879.62
1732.064	867.62
1736.481	846.62
1740.893	831.62
1745.301	803.62
1749.705	789.62
1754.105	768.62
1758.501	741.62
1762.893	735.62
1767.28	731.62
1771.663	711.62
1776.042	707.62
1780.417	716.62
1784.787	714.62
1789.154	711.62
1793.516	717.62
1797.874	712.62
1802.228	717.62
1806.578	684.62
1810.924	688.62
1815.266	663.62
1819.603	672.62
1823.937	658.62
1828.266	645.62
1832.591	649.62
1836.913	636.62
1841.23	649.62
1845.543	658.62
1849.852	643.62
1854.156	648.62
1858.457	635.62
1862.754	652.62
1867.047	655.62
1871.335	666.62
1875.62	661.62
1879.9	672.62
1884.177	656.62
1888.449	658.62
1892.718	656.62
1896.982	656.62
1901.243	647.62
1905.499	651.62
1909.752	645.62
1914	652.62
1918.245	644.62
1922.485	637.62
1926.722	641.62
1930.954	657.62
1935.183	659.62
1939.408	650.62
1943.628	647.62
1947.845	659.62
1952.058	667.62
1956.267	652.62
1960.472	647.62
1964.673	642.62
1968.87	630.62
1973.063	620.62
1977.252	625.62
1981.438	614.62
1985.619	614.62
1989.797	614.62
1993.971	619.62
1998.14	632.62
2002.306	626.62
2006.469	641.62
2010.627	629.62
2014.781	645.62
2018.932	639.62
2023.078	629.62
2027.221	636.62
2031.36	632.62
2035.495	622.62
2039.627	611.62
2043.754	603.62
2047.878	619.62
2051.998	603.62
2056.114	610.62
2060.226	609.62
2064.334	620.62
2068.439	637.62
2072.54	628.62
2076.637	629.62
2080.73	628.62
2084.82	617.62
2088.906	621.62
2092.988	632.62
2097.066	635.62
2101.14	631.62
2105.211	627.62
2109.278	609.62
2113.342	623.62
2117.401	609.62
2121.457	611.62
2125.509	601.62
2129.558	607.62
2133.602	602.62
2137.643	597.62
2141.681	605.62
2145.714	595.62
2149.744	592.62
2153.77	586.62
2157.793	578.62
2161.812	576.62
2165.827	566.62
2169.838	556.62
2173.846	549.62
2177.851	542.62
2181.851	540.62
2185.848	526.62
2189.841	537.62
2193.831	513.62
2197.817	518.62
2201.799	512.62
2205.778	520.62
2209.753	514.62
2213.725	518.62
2217.693	510.62
2221.657	508.62
2225.618	511.62
2229.575	509.62
2233.529	500.62
2237.479	501.62
2241.425	501.62
2245.368	480.62
2249.307	479.62
2253.243	481.62
2257.175	471.62
2261.104	463.62
2265.029	446.62
2268.95	436.62
2272.868	445.62
2276.783	426.62
2280.694	442.62
2284.601	421.62
2288.505	418.62
2292.405	412.62
2296.302	411.62
2300.195	404.62
2304.085	413.62
2307.971	391.62
2311.854	384.62
2315.734	381.62
2319.609	379.62
2323.482	361.62
2327.351	368.62
2331.216	358.62
2335.078	366.62
2338.937	365.62
2342.792	361.62
2346.643	353.62
2350.492	359.62
2354.336	353.62
2358.178	354.62
2362.015	359.62
2365.85	349.62
2369.681	357.62
2373.508	348.62
2377.333	352.62
2381.153	359.62
2384.971	355.62
2388.785	346.62
2392.595	352.62
2396.402	348.62
2400.206	347.62
2404.007	340.62
2407.804	343.62
2411.597	337.62
2415.388	328.62
2419.174	331.62
2422.958	329.62
2426.738	327.62
2430.515	328.62
2434.289	339.62
2438.059	328.62
2441.825	328.62
2445.589	322.62
2449.349	324.62
2453.106	318.62
2456.859	320.62
2460.61	315.62
2464.356	314.62
2468.1	311.62
2471.84	308.62
2475.577	311.62
2479.311	314.62
2483.041	300.62
2486.768	314.62
2490.492	311.62
2494.213	305.62
2497.93	304.62
2501.644	311.62
2505.355	305.62
2509.062	310.62
2512.766	304.62
2516.467	292.62
2520.165	300.62
2523.859	300.62
2527.551	294.62
2531.239	290.62
2534.923	288.62
2538.605	282.62
2542.283	292.62
2545.958	285.62
2549.63	281.62
2553.299	285.62
2556.964	276.62
2560.626	284.62
2564.285	277.62
2567.941	283.62
2571.594	272.62
2575.243	276.62
2578.89	274.62
2582.533	267.62
2586.173	260.62
2589.809	258.62
2593.443	262.62
2597.073	254.62
2600.701	248.62
2604.325	255.62
2607.946	257.62
2611.564	255.62
2615.178	252.62
2618.79	247.62
2622.398	239.62
2626.004	247.62
2629.606	240.62
2633.205	237.62
2636.801	234.62
2640.394	243.62
2643.983	223.62
2647.57	232.62
2651.153	229.62
2654.734	236.62
2658.311	226.62
2661.885	227.62
2665.456	218.62
2669.025	224.62
2672.589	221.62
2676.151	218.62
2679.71	215.62
2683.266	222.62
2686.819	212.62
2690.368	216.62
2693.915	213.62
2697.458	207.62
2700.999	207.62
2704.536	205.62
2708.071	201.62
2711.602	199.62
2715.13	199.62
2718.656	189.62
2722.178	196.62
2725.697	189.62
2729.214	196.62
2732.727	204.62
2736.237	196.62
2739.744	198.62
2743.249	200.62
2746.75	197.62
2750.248	203.62
2753.743	207.62
2757.236	205.62
2760.725	196.62
2764.211	193.62
2767.695	201.62
2771.175	194.62
2774.652	194.62
2778.127	181.62
2781.598	188.62
2785.067	181.62
2788.532	191.62
2791.995	196.62
2795.455	202.62
2798.911	190.62
2802.365	192.62
2805.816	196.62
2809.264	187.62
2812.709	198.62
2816.151	194.62
2819.59	188.62
2823.026	191.62
2826.46	202.62
2829.89	201.62
2833.318	200.62
2836.742	202.62
2840.164	203.62
2843.583	205.62
2846.999	208.62
2850.412	217.62
2853.822	209.62
2857.229	213.62
2860.634	213.62
2864.035	225.62
2867.434	220.62
2870.83	232.62
2874.223	226.62
2877.613	238.62
2881	230.62
2884.385	231.62
2887.766	228.62
2891.145	232.62
2894.521	240.62
2897.894	237.62
2901.264	224.62
2904.631	236.62
2907.996	238.62
2911.358	243.62
2914.717	244.62
2918.073	245.62
2921.426	253.62
2924.777	258.62
2928.124	258.62
2931.469	263.62
2934.811	271.62
2938.15	278.62
2941.487	285.62
2944.821	283.62
2948.152	287.62
2951.48	299.62
2954.805	292.62
2958.128	303.62
2961.447	307.62
2964.765	311.62
2968.079	323.62
2971.39	326.62
2974.699	329.62
2978.005	338.62
2981.308	342.62
2984.609	349.62
2987.907	363.62
2991.202	367.62
2994.494	386.62
2997.784	397.62
3001.07	409.62
3004.355	414.62
3007.636	436.62
3010.915	434.62
3014.191	451.62
3017.464	456.62
3020.734	455.62
3024.002	469.62
3027.267	476.62
3030.53	482.62
3033.789	496.62
3037.046	501.62
3040.301	516.62
3043.552	518.62
3046.801	546.62
3050.048	566.62
3053.291	572.62
3056.532	590.62
3059.771	613.62
3063.006	636.62
3066.239	644.62
3069.469	665.62
3072.697	680.62
3075.922	690.62
3079.144	713.62
3082.364	734.62
3085.581	753.62
3088.795	775.62
3092.007	787.62
3095.216	797.62
3098.423	832.62
3101.627	845.62
3104.828	860.62
3108.026	879.62
3111.222	885.62
3114.416	920.62
3117.607	947.62
3120.795	961.62
3123.98	986.62
3127.163	1007.62
3130.344	1030.62
3133.521	1055.62
3136.696	1078.62
3139.869	1093.62
3143.039	1101.62
3146.206	1130.62
3149.371	1141.62
3152.533	1161.62
3155.693	1165.62
3158.85	1167.62
3162.005	1185.62
3165.157	1199.62
3168.306	1188.62
3171.453	1193.62
3174.597	1189.62
3177.739	1219.62
3180.878	1211.62
3184.014	1197.62
3187.149	1216.62
3190.28	1220.62
3193.409	1224.62
3196.536	1225.62
3199.659	1228.62
3202.781	1238.62
3205.9	1242.62
3209.016	1237.62
3212.13	1240.62
3215.241	1230.62
3218.35	1207.62
3221.456	1194.62
3224.56	1196.62
3227.661	1185.62
3230.76	1172.62
3233.856	1163.62
3236.95	1157.62
3240.041	1157.62
3243.13	1140.62
3246.216	1129.62
3249.3	1113.62
3252.382	1109.62
3255.46	1109.62
3258.537	1110.62
3261.611	1109.62
3264.682	1093.62
3267.751	1102.62
3270.818	1088.62
3273.882	1084.62
3276.943	1084.62
3280.002	1074.62
3283.059	1062.62
3286.113	1044.62
3289.165	1041.62
3292.214	1020.62
3295.261	1006.62
3298.306	996.62
3301.348	976.62
3304.387	964.62
3307.425	943.62
3310.459	919.62
3313.492	936.62
3316.521	913.62
3319.549	894.62
3322.574	894.62
3325.597	902.62
3328.617	879.62
3331.635	888.62
3334.65	871.62
3337.663	885.62
3340.674	873.62
3343.682	858.62
3346.688	856.62
3349.691	857.62
3352.692	853.62
3355.691	843.62
3358.687	833.62
3361.681	828.62
3364.673	824.62
3367.662	813.62
3370.649	808.62
3373.633	795.62
3376.615	768.62
3379.595	773.62
3382.572	758.62
3385.547	761.62
3388.52	741.62
3391.49	738.62
3394.458	718.62
3397.424	722.62
3400.387	705.62
3403.348	694.62
3406.307	684.62
3409.263	683.62
3412.217	669.62
3415.168	674.62
3418.118	661.62
3421.065	646.62
3424.009	626.62
3426.951	644.62
3429.891	612.62
3432.829	608.62
3435.764	591.62
3438.697	583.62
3441.628	575.62
3444.557	547.62
3447.483	553.62
3450.407	530.62
3453.328	508.62
3456.247	497.62
3459.164	486.62
3462.079	464.62
3464.991	454.62
3467.902	444.62
3470.809	432.62
3473.715	420.62
3476.618	407.62
3479.519	394.62
3482.418	388.62
3485.315	373.62
3488.209	361.62
3491.101	350.62
3493.99	330.62
3496.878	332.62
3499.763	318.62
3502.646	309.62
3505.527	294.62
3508.405	290.62
3511.281	274.62
3514.155	273.62
3517.027	259.62
3519.897	248.62
3522.764	232.62
3525.629	213.62
3528.492	208.62
3531.352	184.62
3534.211	181.62
3537.067	174.62
3539.921	162.62
3542.773	155.62
3545.622	141.62
3548.469	135.62
3551.315	130.62
3554.157	112.62
3556.998	109.62
3559.837	104.62
3562.673	95.62
3565.507	87.62
3568.339	79.62
3571.169	75.62
3573.996	75.62
3576.822	66.62
3579.645	60.62
3582.466	54.62
3585.285	51.62
3588.101	47.62
3590.916	39.62
3593.728	39.62
3596.538	21.62
3599.346	20.62
3602.152	14.62
3604.956	6.62
3607.757	1.62
3610.556	6.62
3613.354	2.62
3616.149	-7.38
3618.942	-3.38
3621.732	-5.38
3624.521	-10.38
3627.307	-15.38
3630.092	-19.38
3632.874	-22.38
3635.654	-24.38
3638.432	-28.38
3641.208	-30.38
3643.982	-29.38
3646.753	-33.38
3649.523	-35.38
3652.29	-37.38
3655.055	-42.38
3657.818	-44.38
3660.579	-46.38
3663.338	-50.38
3666.095	-55.38
3668.849	-60.38
3671.602	-57.38
3674.352	-66.38
3677.101	-68.38
3679.847	-69.38
3682.591	-71.38
3685.333	-71.38
3688.073	-70.38
3690.811	-73.38
3693.547	-75.38
3696.281	-77.38
3699.013	-79.38
3701.742	-84.38
3704.47	-81.38
3707.195	-84.38
3709.919	-80.38
3712.64	-85.38
3715.359	-81.38
3718.076	-86.38
3720.792	-83.38
3723.505	-86.38
3726.216	-87.38
3728.925	-91.38
3731.632	-89.38
3734.336	-96.38
3737.039	-92.38
3739.74	-94.38
3742.439	-94.38
3745.136	-90.38
3747.83	-94.38
3750.523	-90.38
3753.213	-94.38
3755.902	-91.38
3758.589	-96.38
3761.273	-98.38
3763.956	-103.38
3766.636	-101.38
3769.315	-101.38
3771.991	-100.38
3774.665	-97.38
3777.338	-105.38
3780.008	-102.38
3782.677	-100.38
3785.343	-99.38
3788.007	-100.38
3790.67	-98.38
3793.33	-102.38
3795.989	-102.38
3798.645	-102.38
3801.299	-103.38
3803.952	-104.38
3806.602	-102.38
3809.251	-100.38
3811.897	-106.38
3814.542	-105.38
3817.184	-100.38
3819.825	-102.38
3822.463	-101.38
3825.1	-105.38
3827.735	-105.38
3830.367	-109.38
3832.998	-109.38
3835.627	-109.38
3838.253	-106.38
3840.878	-112.38
3843.501	-109.38
3846.122	-105.38
3848.741	-108.38
3851.358	-108.38
3853.973	-100.38
3856.586	-108.38
3859.197	-109.38
3861.806	-113.38
3864.414	-107.38
3867.019	-111.38
3869.622	-110.38
3872.224	-109.38
3874.823	-106.38
3877.421	-100.38
3880.016	-103.38
3882.61	-99.38
3885.202	-95.38
3887.792	-99.38
3890.38	-103.38
3892.966	-106.38
3895.55	-110.38
3898.132	-115.38
3900.713	-111.38
3903.291	-111.38
3905.868	-112.38
3908.442	-113.38
3911.015	-111.38
3913.586	-110.38
3916.155	-110.38
3918.722	-114.38
3921.287	-112.38
3923.85	-113.38
3926.411	-109.38
3928.971	-116.38
3931.528	-112.38
3934.084	-114.38
3936.638	-113.38
3939.19	-110.38
3941.74	-107.38
3944.288	-112.38
3946.834	-115.38
3949.378	-110.38
3951.921	-111.38
3954.462	-108.38
3957	-116.38
3959.537	-116.38
3962.072	-113.38
3964.606	-113.38
3967.137	-112.38
3969.667	-112.38
3972.194	-110.38
3974.72	-111.38
3977.244	-112.38
3979.766	-112.38
3982.286	-109.38
3984.805	-113.38
3987.321	-112.38
3989.836	-110.38
3992.349	-111.38
3994.86	-108.38
3997.369	-116.38
3999.877	-109.38
4002.382	-108.38
4004.886	-111.38
4007.388	-111.38
4009.888	-109.38
4012.386	-108.38
4014.883	-108.38
4017.377	-110.38
4019.87	-111.38
4022.361	-114.38
4024.85	-111.38
4027.338	-111.38
4029.823	-114.38
4032.307	-113.38
4034.789	-117.38
4037.269	-114.38
4039.747	-113.38
4042.224	-108.38
4044.699	-116.38
4047.172	-115.38
4049.643	-112.38
4052.112	-113.38
4054.58	-115.38
4057.046	-114.38
4059.51	-110.38
4061.972	-113.38
4064.432	-112.38
4066.891	-111.38
4069.348	-107.38
4071.803	-108.38
4074.256	-111.38
4076.708	-112.38
4079.158	-111.38
4081.606	-110.38
4084.052	-111.38
4086.497	-109.38
4088.939	-110.38
4091.38	-111.38
4093.819	-111.38
4096.257	-116.38
4098.693	-116.38
4101.127	-119.38
4103.559	-115.38
4105.989	-73.38
4108.418	-72.38
4110.845	-67.38
4113.27	-61.38
4115.694	-57.38
4118.115	-52.38
4120.535	-116.38
4122.954	-110.38
4125.37	-112.38
4127.785	-111.38
4130.198	-110.38
4132.609	-111.38
4135.019	-114.38
4137.427	-121.38
4139.833	-120.38
4142.237	-117.38
