Data from 1000000CFU2_A_RamanShift_1.txt Node
Date: Thu Jan 26 11:06:28 IST 2017
User: aro
Spectrometer: QEPB0276
Trigger mode: 0
Integration Time (sec): 5.000000E0
Scans to average: 1
Electric dark correction enabled: true
Nonlinearity correction enabled: false
Boxcar width: 0
XAxis mode: Raman Shifts
Number of Pixels in Spectrum: 1044
>>>>>Begin Spectral Data<<<<<
160.701	-39.5
166.742	-5.5
172.777	107.5
178.805	422.5
184.826	1163.5
190.841	2356.5
196.849	3588.5
202.85	4349.5
208.845	4504.5
214.833	4366.5
220.815	4183.5
226.789	4058.5
232.758	3972.5
238.719	3852.5
244.674	3700.5
250.623	3561.5
256.565	3398.5
262.5	3225.5
268.429	3096.5
274.351	2971.5
280.267	2865.5
286.176	2766.5
292.079	2694.5
297.975	2607.5
303.865	2510.5
309.748	2453.5
315.625	2416.5
321.495	2370.5
327.359	2322.5
333.217	2300.5
339.068	2255.5
344.912	2281.5
350.751	2255.5
356.583	2246.5
362.408	2256.5
368.227	2255.5
374.04	2247.5
379.847	2258.5
385.647	2270.5
391.44	2314.5
397.228	2289.5
403.009	2327.5
408.784	2312.5
414.553	2331.5
420.315	2337.5
426.071	2315.5
431.821	2314.5
437.565	2337.5
443.302	2332.5
449.033	2289.5
454.758	2313.5
460.477	2302.5
466.189	2294.5
471.896	2278.5
477.596	2261.5
483.29	2246.5
488.978	2243.5
494.66	2225.5
500.335	2186.5
506.005	2164.5
511.668	2131.5
517.325	2085.5
522.977	2051.5
528.622	2025.5
534.261	2003.5
539.894	1977.5
545.521	1957.5
551.141	1973.5
556.756	1956.5
562.365	1942.5
567.968	1902.5
573.565	1920.5
579.155	1908.5
584.74	1901.5
590.319	1877.5
595.892	1874.5
601.459	1855.5
607.02	1850.5
612.575	1822.5
618.124	1814.5
623.667	1768.5
629.204	1781.5
634.735	1756.5
640.261	1748.5
645.781	1740.5
651.294	1735.5
656.802	1731.5
662.304	1709.5
667.8	1717.5
673.29	1723.5
678.775	1691.5
684.254	1686.5
689.726	1677.5
695.193	1681.5
700.655	1675.5
706.11	1633.5
711.56	1646.5
717.004	1628.5
722.442	1621.5
727.874	1620.5
733.301	1610.5
738.722	1602.5
744.137	1581.5
749.547	1625.5
754.951	1585.5
760.349	1576.5
765.741	1575.5
771.128	1581.5
776.509	1572.5
781.885	1593.5
787.254	1564.5
792.618	1571.5
797.977	1551.5
803.33	1556.5
808.677	1540.5
814.019	1511.5
819.355	1495.5
824.686	1497.5
830.011	1492.5
835.33	1481.5
840.644	1456.5
845.952	1468.5
851.255	1478.5
856.552	1456.5
861.844	1448.5
867.13	1440.5
872.41	1438.5
877.686	1402.5
882.955	1387.5
888.219	1395.5
893.478	1350.5
898.731	1340.5
903.979	1329.5
909.221	1316.5
914.458	1308.5
919.69	1284.5
924.916	1300.5
930.136	1287.5
935.351	1280.5
940.561	1286.5
945.766	1287.5
950.965	1282.5
956.158	1261.5
961.347	1232.5
966.529	1240.5
971.707	1210.5
976.879	1206.5
982.046	1198.5
987.208	1197.5
992.364	1188.5
997.515	1197.5
1002.66	1213.5
1007.801	1217.5
1012.936	1228.5
1018.066	1232.5
1023.19	1239.5
1028.309	1237.5
1033.423	1247.5
1038.532	1236.5
1043.636	1236.5
1048.734	1209.5
1053.827	1206.5
1058.915	1187.5
1063.998	1180.5
1069.075	1182.5
1074.147	1186.5
1079.214	1185.5
1084.276	1192.5
1089.333	1218.5
1094.385	1223.5
1099.431	1228.5
1104.472	1225.5
1109.509	1208.5
1114.54	1217.5
1119.565	1192.5
1124.586	1166.5
1129.602	1165.5
1134.613	1173.5
1139.618	1155.5
1144.619	1159.5
1149.614	1172.5
1154.604	1157.5
1159.589	1169.5
1164.57	1185.5
1169.545	1188.5
1174.515	1179.5
1179.48	1185.5
1184.44	1165.5
1189.395	1166.5
1194.345	1159.5
1199.29	1156.5
1204.23	1171.5
1209.165	1162.5
1214.095	1179.5
1219.021	1178.5
1223.941	1196.5
1228.856	1199.5
1233.766	1199.5
1238.672	1196.5
1243.572	1194.5
1248.467	1187.5
1253.358	1185.5
1258.244	1166.5
1263.124	1135.5
1268	1124.5
1272.871	1118.5
1277.737	1107.5
1282.599	1115.5
1287.455	1116.5
1292.306	1106.5
1297.153	1137.5
1301.995	1136.5
1306.832	1142.5
1311.664	1159.5
1316.491	1155.5
1321.314	1135.5
1326.132	1144.5
1330.945	1130.5
1335.753	1096.5
1340.556	1094.5
1345.354	1103.5
1350.148	1078.5
1354.937	1071.5
1359.722	1063.5
1364.501	1057.5
1369.276	1063.5
1374.046	1042.5
1378.811	1047.5
1383.572	1045.5
1388.327	1034.5
1393.079	1040.5
1397.825	1030.5
1402.567	1014.5
1407.304	1008.5
1412.036	1003.5
1416.764	1002.5
1421.487	1006.5
1426.205	1026.5
1430.919	1021.5
1435.628	1041.5
1440.333	1038.5
1445.032	1056.5
1449.727	1060.5
1454.418	1056.5
1459.104	1063.5
1463.785	1046.5
1468.462	1060.5
1473.134	1034.5
1477.802	1028.5
1482.465	1011.5
1487.123	1030.5
1491.777	1029.5
1496.426	1042.5
1501.071	1039.5
1505.711	1044.5
1510.347	1048.5
1514.978	1071.5
1519.604	1074.5
1524.226	1074.5
1528.844	1069.5
1533.457	1078.5
1538.065	1083.5
1542.669	1082.5
1547.269	1072.5
1551.864	1077.5
1556.454	1091.5
1561.041	1092.5
1565.622	1101.5
1570.199	1125.5
1574.772	1150.5
1579.34	1172.5
1583.904	1178.5
1588.464	1199.5
1593.019	1225.5
1597.569	1229.5
1602.115	1228.5
1606.657	1237.5
1611.195	1246.5
1615.728	1281.5
1620.256	1283.5
1624.78	1303.5
1629.3	1325.5
1633.816	1319.5
1638.327	1348.5
1642.834	1381.5
1647.336	1391.5
1651.834	1384.5
1656.328	1384.5
1660.817	1386.5
1665.302	1351.5
1669.783	1318.5
1674.259	1281.5
1678.732	1255.5
1683.199	1224.5
1687.663	1173.5
1692.122	1131.5
1696.577	1085.5
1701.028	1047.5
1705.474	1001.5
1709.917	981.5
1714.355	958.5
1718.788	942.5
1723.218	932.5
1727.643	915.5
1732.064	890.5
1736.481	868.5
1740.893	834.5
1745.301	828.5
1749.705	816.5
1754.105	786.5
1758.501	775.5
1762.893	765.5
1767.28	738.5
1771.663	742.5
1776.042	753.5
1780.417	732.5
1784.787	742.5
1789.154	752.5
1793.516	744.5
1797.874	745.5
1802.228	735.5
1806.578	714.5
1810.924	710.5
1815.266	704.5
1819.603	690.5
1823.937	685.5
1828.266	677.5
1832.591	673.5
1836.913	666.5
1841.23	669.5
1845.543	678.5
1849.852	681.5
1854.156	665.5
1858.457	663.5
1862.754	667.5
1867.047	681.5
1871.335	686.5
1875.62	685.5
1879.9	700.5
1884.177	688.5
1888.449	694.5
1892.718	680.5
1896.982	685.5
1901.243	682.5
1905.499	672.5
1909.752	685.5
1914	670.5
1918.245	679.5
1922.485	667.5
1926.722	677.5
1930.954	680.5
1935.183	676.5
1939.408	688.5
1943.628	678.5
1947.845	691.5
1952.058	691.5
1956.267	672.5
1960.472	669.5
1964.673	667.5
1968.87	654.5
1973.063	658.5
1977.252	647.5
1981.438	651.5
1985.619	636.5
1989.797	647.5
1993.971	643.5
1998.14	649.5
2002.306	656.5
2006.469	654.5
2010.627	664.5
2014.781	655.5
2018.932	661.5
2023.078	643.5
2027.221	633.5
2031.36	652.5
2035.495	638.5
2039.627	640.5
2043.754	627.5
2047.878	638.5
2051.998	637.5
2056.114	647.5
2060.226	642.5
2064.334	634.5
2068.439	650.5
2072.54	653.5
2076.637	650.5
2080.73	658.5
2084.82	654.5
2088.906	654.5
2092.988	655.5
2097.066	646.5
2101.14	655.5
2105.211	642.5
2109.278	641.5
2113.342	630.5
2117.401	639.5
2121.457	629.5
2125.509	628.5
2129.558	613.5
2133.602	613.5
2137.643	631.5
2141.681	615.5
2145.714	612.5
2149.744	608.5
2153.77	608.5
2157.793	599.5
2161.812	602.5
2165.827	593.5
2169.838	587.5
2173.846	572.5
2177.851	553.5
2181.851	552.5
2185.848	545.5
2189.841	542.5
2193.831	535.5
2197.817	534.5
2201.799	531.5
2205.778	537.5
2209.753	533.5
2213.725	523.5
2217.693	535.5
2221.657	526.5
2225.618	522.5
2229.575	529.5
2233.529	515.5
2237.479	514.5
2241.425	504.5
2245.368	498.5
2249.307	497.5
2253.243	489.5
2257.175	499.5
2261.104	480.5
2265.029	466.5
2268.95	467.5
2272.868	449.5
2276.783	451.5
2280.694	454.5
2284.601	441.5
2288.505	442.5
2292.405	432.5
2296.302	436.5
2300.195	421.5
2304.085	417.5
2307.971	411.5
2311.854	404.5
2315.734	394.5
2319.609	384.5
2323.482	381.5
2327.351	378.5
2331.216	371.5
2335.078	373.5
2338.937	369.5
2342.792	359.5
2346.643	371.5
2350.492	366.5
2354.336	368.5
2358.178	377.5
2362.015	375.5
2365.85	366.5
2369.681	373.5
2373.508	373.5
2377.333	376.5
2381.153	366.5
2384.971	367.5
2388.785	368.5
2392.595	368.5
2396.402	357.5
2400.206	356.5
2404.007	362.5
2407.804	354.5
2411.597	347.5
2415.388	350.5
2419.174	353.5
2422.958	350.5
2426.738	345.5
2430.515	347.5
2434.289	344.5
2438.059	350.5
2441.825	338.5
2445.589	336.5
2449.349	339.5
2453.106	334.5
2456.859	334.5
2460.61	327.5
2464.356	325.5
2468.1	321.5
2471.84	317.5
2475.577	320.5
2479.311	323.5
2483.041	330.5
2486.768	327.5
2490.492	322.5
2494.213	319.5
2497.93	312.5
2501.644	313.5
2505.355	320.5
2509.062	313.5
2512.766	319.5
2516.467	318.5
2520.165	314.5
2523.859	313.5
2527.551	308.5
2531.239	306.5
2534.923	289.5
2538.605	299.5
2542.283	306.5
2545.958	293.5
2549.63	286.5
2553.299	301.5
2556.964	286.5
2560.626	288.5
2564.285	288.5
2567.941	292.5
2571.594	289.5
2575.243	291.5
2578.89	284.5
2582.533	268.5
2586.173	272.5
2589.809	272.5
2593.443	270.5
2597.073	265.5
2600.701	267.5
2604.325	268.5
2607.946	263.5
2611.564	264.5
2615.178	272.5
2618.79	266.5
2622.398	259.5
2626.004	260.5
2629.606	256.5
2633.205	248.5
2636.801	244.5
2640.394	244.5
2643.983	241.5
2647.57	244.5
2651.153	254.5
2654.734	238.5
2658.311	235.5
2661.885	235.5
2665.456	241.5
2669.025	236.5
2672.589	230.5
2676.151	232.5
2679.71	227.5
2683.266	224.5
2686.819	214.5
2690.368	212.5
2693.915	218.5
2697.458	217.5
2700.999	214.5
2704.536	212.5
2708.071	203.5
2711.602	215.5
2715.13	199.5
2718.656	202.5
2722.178	200.5
2725.697	198.5
2729.214	193.5
2732.727	213.5
2736.237	197.5
2739.744	196.5
2743.249	214.5
2746.75	212.5
2750.248	206.5
2753.743	212.5
2757.236	203.5
2760.725	214.5
2764.211	203.5
2767.695	204.5
2771.175	199.5
2774.652	198.5
2778.127	201.5
2781.598	199.5
2785.067	194.5
2788.532	202.5
2791.995	195.5
2795.455	206.5
2798.911	198.5
2802.365	199.5
2805.816	203.5
2809.264	207.5
2812.709	195.5
2816.151	196.5
2819.59	203.5
2823.026	202.5
2826.46	206.5
2829.89	205.5
2833.318	202.5
2836.742	209.5
2840.164	212.5
2843.583	212.5
2846.999	214.5
2850.412	217.5
2853.822	212.5
2857.229	216.5
2860.634	211.5
2864.035	214.5
2867.434	228.5
2870.83	229.5
2874.223	231.5
2877.613	235.5
2881	235.5
2884.385	235.5
2887.766	237.5
2891.145	230.5
2894.521	235.5
2897.894	234.5
2901.264	230.5
2904.631	238.5
2907.996	236.5
2911.358	234.5
2914.717	249.5
2918.073	243.5
2921.426	250.5
2924.777	259.5
2928.124	260.5
2931.469	267.5
2934.811	268.5
2938.15	272.5
2941.487	273.5
2944.821	283.5
2948.152	288.5
2951.48	291.5
2954.805	302.5
2958.128	305.5
2961.447	306.5
2964.765	308.5
2968.079	305.5
2971.39	322.5
2974.699	327.5
2978.005	338.5
2981.308	339.5
2984.609	352.5
2987.907	358.5
2991.202	367.5
2994.494	379.5
2997.784	391.5
3001.07	405.5
3004.355	419.5
3007.636	417.5
3010.915	427.5
3014.191	433.5
3017.464	446.5
3020.734	469.5
3024.002	455.5
3027.267	469.5
3030.53	476.5
3033.789	493.5
3037.046	488.5
3040.301	506.5
3043.552	518.5
3046.801	531.5
3050.048	551.5
3053.291	574.5
3056.532	571.5
3059.771	601.5
3063.006	617.5
3066.239	629.5
3069.469	649.5
3072.697	677.5
3075.922	697.5
3079.144	695.5
3082.364	714.5
3085.581	738.5
3088.795	748.5
3092.007	773.5
3095.216	793.5
3098.423	812.5
3101.627	820.5
3104.828	845.5
3108.026	857.5
3111.222	869.5
3114.416	897.5
3117.607	926.5
3120.795	933.5
3123.98	973.5
3127.163	981.5
3130.344	1016.5
3133.521	1036.5
3136.696	1065.5
3139.869	1068.5
3143.039	1094.5
3146.206	1103.5
3149.371	1113.5
3152.533	1130.5
3155.693	1131.5
3158.85	1151.5
3162.005	1143.5
3165.157	1156.5
3168.306	1166.5
3171.453	1169.5
3174.597	1161.5
3177.739	1179.5
3180.878	1192.5
3184.014	1183.5
3187.149	1190.5
3190.28	1203.5
3193.409	1187.5
3196.536	1193.5
3199.659	1189.5
3202.781	1199.5
3205.9	1196.5
3209.016	1210.5
3212.13	1212.5
3215.241	1212.5
3218.35	1188.5
3221.456	1165.5
3224.56	1173.5
3227.661	1157.5
3230.76	1138.5
3233.856	1138.5
3236.95	1124.5
3240.041	1125.5
3243.13	1120.5
3246.216	1102.5
3249.3	1111.5
3252.382	1099.5
3255.46	1101.5
3258.537	1094.5
3261.611	1087.5
3264.682	1082.5
3267.751	1078.5
3270.818	1064.5
3273.882	1069.5
3276.943	1064.5
3280.002	1051.5
3283.059	1039.5
3286.113	1028.5
3289.165	1010.5
3292.214	1001.5
3295.261	983.5
3298.306	968.5
3301.348	949.5
3304.387	921.5
3307.425	929.5
3310.459	917.5
3313.492	895.5
3316.521	903.5
3319.549	874.5
3322.574	880.5
3325.597	864.5
3328.617	866.5
3331.635	864.5
3334.65	850.5
3337.663	857.5
3340.674	859.5
3343.682	853.5
3346.688	824.5
3349.691	839.5
3352.692	834.5
3355.691	822.5
3358.687	827.5
3361.681	812.5
3364.673	800.5
3367.662	788.5
3370.649	772.5
3373.633	768.5
3376.615	759.5
3379.595	753.5
3382.572	755.5
3385.547	724.5
3388.52	735.5
3391.49	700.5
3394.458	699.5
3397.424	700.5
3400.387	691.5
3403.348	681.5
3406.307	681.5
3409.263	670.5
3412.217	651.5
3415.168	653.5
3418.118	649.5
3421.065	630.5
3424.009	622.5
3426.951	617.5
3429.891	599.5
3432.829	605.5
3435.764	582.5
3438.697	570.5
3441.628	553.5
3444.557	543.5
3447.483	515.5
3450.407	513.5
3453.328	497.5
3456.247	485.5
3459.164	471.5
3462.079	471.5
3464.991	440.5
3467.902	431.5
3470.809	415.5
3473.715	413.5
3476.618	404.5
3479.519	381.5
3482.418	365.5
3485.315	361.5
3488.209	354.5
3491.101	336.5
3493.99	324.5
3496.878	319.5
3499.763	308.5
3502.646	290.5
3505.527	290.5
3508.405	274.5
3511.281	266.5
3514.155	254.5
3517.027	252.5
3519.897	226.5
3522.764	220.5
3525.629	208.5
3528.492	191.5
3531.352	183.5
3534.211	165.5
3537.067	159.5
3539.921	153.5
3542.773	147.5
3545.622	130.5
3548.469	128.5
3551.315	114.5
3554.157	109.5
3556.998	98.5
3559.837	97.5
3562.673	92.5
3565.507	79.5
3568.339	74.5
3571.169	70.5
3573.996	67.5
3576.822	56.5
3579.645	53.5
3582.466	43.5
3585.285	40.5
3588.101	38.5
3590.916	30.5
3593.728	28.5
3596.538	20.5
3599.346	7.5
3602.152	10.5
3604.956	-1.5
3607.757	2.5
3610.556	-0.5
3613.354	-1.5
3616.149	-6.5
3618.942	-10.5
3621.732	-13.5
3624.521	-18.5
3627.307	-22.5
3630.092	-26.5
3632.874	-25.5
3635.654	-31.5
3638.432	-34.5
3641.208	-33.5
3643.982	-41.5
3646.753	-46.5
3649.523	-44.5
3652.29	-42.5
3655.055	-47.5
3657.818	-51.5
3660.579	-54.5
3663.338	-53.5
3666.095	-60.5
3668.849	-68.5
3671.602	-64.5
3674.352	-68.5
3677.101	-67.5
3679.847	-70.5
3682.591	-71.5
3685.333	-71.5
3688.073	-70.5
3690.811	-77.5
3693.547	-78.5
3696.281	-81.5
3699.013	-80.5
3701.742	-86.5
3704.47	-83.5
3707.195	-83.5
3709.919	-86.5
3712.64	-89.5
3715.359	-91.5
3718.076	-87.5
3720.792	-86.5
3723.505	-90.5
3726.216	-91.5
3728.925	-93.5
3731.632	-96.5
3734.336	-102.5
3737.039	-99.5
3739.74	-100.5
3742.439	-96.5
3745.136	-98.5
3747.83	-98.5
3750.523	-97.5
3753.213	-97.5
3755.902	-97.5
3758.589	-94.5
3761.273	-97.5
3763.956	-102.5
3766.636	-99.5
3769.315	-100.5
3771.991	-99.5
3774.665	-101.5
3777.338	-104.5
3780.008	-101.5
3782.677	-100.5
3785.343	-100.5
3788.007	-102.5
3790.67	-104.5
3793.33	-106.5
3795.989	-108.5
3798.645	-104.5
3801.299	-108.5
3803.952	-112.5
3806.602	-106.5
3809.251	-106.5
3811.897	-107.5
3814.542	-111.5
3817.184	-108.5
3819.825	-104.5
3822.463	-104.5
3825.1	-108.5
3827.735	-107.5
3830.367	-109.5
3832.998	-110.5
3835.627	-112.5
3838.253	-108.5
3840.878	-113.5
3843.501	-106.5
3846.122	-110.5
3848.741	-108.5
3851.358	-110.5
3853.973	-107.5
3856.586	-111.5
3859.197	-116.5
3861.806	-116.5
3864.414	-110.5
3867.019	-116.5
3869.622	-113.5
3872.224	-116.5
3874.823	-109.5
3877.421	-103.5
3880.016	-110.5
3882.61	-99.5
3885.202	-100.5
3887.792	-101.5
3890.38	-104.5
3892.966	-108.5
3895.55	-111.5
3898.132	-116.5
3900.713	-116.5
3903.291	-111.5
3905.868	-109.5
3908.442	-113.5
3911.015	-110.5
3913.586	-113.5
3916.155	-111.5
3918.722	-114.5
3921.287	-115.5
3923.85	-117.5
3926.411	-113.5
3928.971	-122.5
3931.528	-119.5
3934.084	-117.5
3936.638	-116.5
3939.19	-117.5
3941.74	-112.5
3944.288	-116.5
3946.834	-116.5
3949.378	-116.5
3951.921	-117.5
3954.462	-113.5
3957	-119.5
3959.537	-117.5
3962.072	-115.5
3964.606	-116.5
3967.137	-112.5
3969.667	-115.5
3972.194	-112.5
3974.72	-113.5
3977.244	-111.5
3979.766	-110.5
3982.286	-114.5
3984.805	-115.5
3987.321	-113.5
3989.836	-116.5
3992.349	-114.5
3994.86	-114.5
3997.369	-118.5
3999.877	-115.5
4002.382	-113.5
4004.886	-114.5
4007.388	-116.5
4009.888	-114.5
4012.386	-114.5
4014.883	-115.5
4017.377	-114.5
4019.87	-112.5
4022.361	-116.5
4024.85	-116.5
4027.338	-114.5
4029.823	-116.5
4032.307	-113.5
4034.789	-117.5
4037.269	-114.5
4039.747	-114.5
4042.224	-111.5
4044.699	-113.5
4047.172	-114.5
4049.643	-113.5
4052.112	-116.5
4054.58	-117.5
4057.046	-120.5
4059.51	-115.5
4061.972	-118.5
4064.432	-115.5
4066.891	-112.5
4069.348	-112.5
4071.803	-113.5
4074.256	-115.5
4076.708	-116.5
4079.158	-116.5
4081.606	-117.5
4084.052	-119.5
4086.497	-114.5
4088.939	-117.5
4091.38	-116.5
4093.819	-119.5
4096.257	-120.5
4098.693	-120.5
4101.127	-121.5
4103.559	-118.5
4105.989	-77.5
4108.418	-73.5
4110.845	-73.5
4113.27	-72.5
4115.694	-54.5
4118.115	-51.5
4120.535	-119.5
4122.954	-116.5
4125.37	-113.5
4127.785	-113.5
4130.198	-113.5
4132.609	-113.5
4135.019	-120.5
4137.427	-121.5
4139.833	-122.5
4142.237	-120.5
