Data from 100000000CFU3_B_RamanShift_1.txt Node
Date: Thu Jan 26 11:48:23 IST 2017
User: aro
Spectrometer: QEPB0276
Trigger mode: 0
Integration Time (sec): 5.000000E0
Scans to average: 1
Electric dark correction enabled: true
Nonlinearity correction enabled: false
Boxcar width: 0
XAxis mode: Raman Shifts
Number of Pixels in Spectrum: 1044
>>>>>Begin Spectral Data<<<<<
160.701	-25.12
166.742	-3.12
172.777	75.88
178.805	297.88
184.826	839.88
190.841	1675.88
196.849	2606.88
202.85	3155.88
208.845	3285.88
214.833	3198.88
220.815	3103.88
226.789	2996.88
232.758	2920.88
238.719	2829.88
244.674	2732.88
250.623	2621.88
256.565	2531.88
262.5	2397.88
268.429	2298.88
274.351	2213.88
280.267	2111.88
286.176	2049.88
292.079	1974.88
297.975	1934.88
303.865	1869.88
309.748	1835.88
315.625	1816.88
321.495	1745.88
327.359	1735.88
333.217	1707.88
339.068	1716.88
344.912	1716.88
350.751	1693.88
356.583	1688.88
362.408	1706.88
368.227	1693.88
374.04	1697.88
379.847	1696.88
385.647	1717.88
391.44	1734.88
397.228	1727.88
403.009	1737.88
408.784	1742.88
414.553	1752.88
420.315	1767.88
426.071	1762.88
431.821	1759.88
437.565	1771.88
443.302	1761.88
449.033	1742.88
454.758	1743.88
460.477	1731.88
466.189	1722.88
471.896	1715.88
477.596	1701.88
483.29	1700.88
488.978	1677.88
494.66	1687.88
500.335	1659.88
506.005	1617.88
511.668	1595.88
517.325	1561.88
522.977	1531.88
528.622	1507.88
534.261	1490.88
539.894	1473.88
545.521	1472.88
551.141	1444.88
556.756	1457.88
562.365	1444.88
567.968	1416.88
573.565	1406.88
579.155	1401.88
584.74	1384.88
590.319	1387.88
595.892	1381.88
601.459	1358.88
607.02	1367.88
612.575	1360.88
618.124	1331.88
623.667	1336.88
629.204	1324.88
634.735	1286.88
640.261	1294.88
645.781	1283.88
651.294	1266.88
656.802	1273.88
662.304	1274.88
667.8	1258.88
673.29	1253.88
678.775	1262.88
684.254	1244.88
689.726	1232.88
695.193	1244.88
700.655	1209.88
706.11	1209.88
711.56	1203.88
717.004	1181.88
722.442	1188.88
727.874	1180.88
733.301	1174.88
738.722	1195.88
744.137	1170.88
749.547	1162.88
754.951	1182.88
760.349	1158.88
765.741	1153.88
771.128	1180.88
776.509	1169.88
781.885	1177.88
787.254	1163.88
792.618	1151.88
797.977	1150.88
803.33	1140.88
808.677	1134.88
814.019	1114.88
819.355	1115.88
824.686	1081.88
830.011	1077.88
835.33	1094.88
840.644	1078.88
845.952	1076.88
851.255	1059.88
856.552	1057.88
861.844	1059.88
867.13	1054.88
872.41	1047.88
877.686	1031.88
882.955	1020.88
888.219	982.88
893.478	984.88
898.731	971.88
903.979	959.88
909.221	951.88
914.458	955.88
919.69	938.88
924.916	934.88
930.136	940.88
935.351	937.88
940.561	939.88
945.766	939.88
950.965	913.88
956.158	920.88
961.347	902.88
966.529	900.88
971.707	876.88
976.879	870.88
982.046	847.88
987.208	859.88
992.364	855.88
997.515	860.88
1002.66	868.88
1007.801	874.88
1012.936	870.88
1018.066	875.88
1023.19	899.88
1028.309	895.88
1033.423	890.88
1038.532	882.88
1043.636	878.88
1048.734	871.88
1053.827	862.88
1058.915	846.88
1063.998	845.88
1069.075	848.88
1074.147	862.88
1079.214	860.88
1084.276	850.88
1089.333	855.88
1094.385	872.88
1099.431	865.88
1104.472	866.88
1109.509	868.88
1114.54	847.88
1119.565	855.88
1124.586	829.88
1129.602	824.88
1134.613	836.88
1139.618	811.88
1144.619	826.88
1149.614	824.88
1154.604	837.88
1159.589	832.88
1164.57	836.88
1169.545	842.88
1174.515	834.88
1179.48	825.88
1184.44	813.88
1189.395	829.88
1194.345	807.88
1199.29	828.88
1204.23	825.88
1209.165	821.88
1214.095	828.88
1219.021	845.88
1223.941	842.88
1228.856	834.88
1233.766	842.88
1238.672	845.88
1243.572	832.88
1248.467	838.88
1253.358	822.88
1258.244	818.88
1263.124	810.88
1268	795.88
1272.871	789.88
1277.737	786.88
1282.599	765.88
1287.455	776.88
1292.306	780.88
1297.153	800.88
1301.995	797.88
1306.832	795.88
1311.664	796.88
1316.491	801.88
1321.314	803.88
1326.132	790.88
1330.945	799.88
1335.753	779.88
1340.556	754.88
1345.354	759.88
1350.148	744.88
1354.937	749.88
1359.722	736.88
1364.501	725.88
1369.276	733.88
1374.046	727.88
1378.811	714.88
1383.572	721.88
1388.327	730.88
1393.079	726.88
1397.825	705.88
1402.567	700.88
1407.304	708.88
1412.036	699.88
1416.764	700.88
1421.487	689.88
1426.205	692.88
1430.919	701.88
1435.628	729.88
1440.333	721.88
1445.032	727.88
1449.727	722.88
1454.418	733.88
1459.104	738.88
1463.785	723.88
1468.462	716.88
1473.134	715.88
1477.802	719.88
1482.465	696.88
1487.123	702.88
1491.777	702.88
1496.426	703.88
1501.071	705.88
1505.711	723.88
1510.347	725.88
1514.978	732.88
1519.604	731.88
1524.226	741.88
1528.844	741.88
1533.457	746.88
1538.065	741.88
1542.669	739.88
1547.269	736.88
1551.864	734.88
1556.454	745.88
1561.041	765.88
1565.622	758.88
1570.199	783.88
1574.772	778.88
1579.34	791.88
1583.904	816.88
1588.464	824.88
1593.019	842.88
1597.569	845.88
1602.115	862.88
1606.657	873.88
1611.195	878.88
1615.728	874.88
1620.256	887.88
1624.78	904.88
1629.3	912.88
1633.816	931.88
1638.327	941.88
1642.834	947.88
1647.336	964.88
1651.834	961.88
1656.328	968.88
1660.817	967.88
1665.302	950.88
1669.783	921.88
1674.259	886.88
1678.732	875.88
1683.199	852.88
1687.663	815.88
1692.122	790.88
1696.577	748.88
1701.028	720.88
1705.474	696.88
1709.917	673.88
1714.355	647.88
1718.788	645.88
1723.218	631.88
1727.643	613.88
1732.064	604.88
1736.481	591.88
1740.893	582.88
1745.301	551.88
1749.705	541.88
1754.105	522.88
1758.501	521.88
1762.893	511.88
1767.28	498.88
1771.663	510.88
1776.042	495.88
1780.417	492.88
1784.787	484.88
1789.154	488.88
1793.516	492.88
1797.874	490.88
1802.228	491.88
1806.578	483.88
1810.924	471.88
1815.266	458.88
1819.603	468.88
1823.937	454.88
1828.266	450.88
1832.591	443.88
1836.913	438.88
1841.23	442.88
1845.543	447.88
1849.852	454.88
1854.156	451.88
1858.457	449.88
1862.754	453.88
1867.047	450.88
1871.335	451.88
1875.62	458.88
1879.9	450.88
1884.177	444.88
1888.449	447.88
1892.718	454.88
1896.982	447.88
1901.243	445.88
1905.499	451.88
1909.752	448.88
1914	437.88
1918.245	447.88
1922.485	447.88
1926.722	457.88
1930.954	451.88
1935.183	446.88
1939.408	454.88
1943.628	451.88
1947.845	453.88
1952.058	452.88
1956.267	452.88
1960.472	443.88
1964.673	435.88
1968.87	435.88
1973.063	426.88
1977.252	428.88
1981.438	428.88
1985.619	419.88
1989.797	426.88
1993.971	422.88
1998.14	423.88
2002.306	435.88
2006.469	438.88
2010.627	440.88
2014.781	436.88
2018.932	429.88
2023.078	430.88
2027.221	424.88
2031.36	425.88
2035.495	420.88
2039.627	421.88
2043.754	414.88
2047.878	414.88
2051.998	425.88
2056.114	414.88
2060.226	417.88
2064.334	424.88
2068.439	433.88
2072.54	426.88
2076.637	433.88
2080.73	437.88
2084.82	437.88
2088.906	435.88
2092.988	437.88
2097.066	433.88
2101.14	426.88
2105.211	435.88
2109.278	426.88
2113.342	409.88
2117.401	411.88
2121.457	407.88
2125.509	415.88
2129.558	419.88
2133.602	410.88
2137.643	403.88
2141.681	404.88
2145.714	398.88
2149.744	413.88
2153.77	397.88
2157.793	392.88
2161.812	391.88
2165.827	390.88
2169.838	384.88
2173.846	371.88
2177.851	367.88
2181.851	371.88
2185.848	366.88
2189.841	354.88
2193.831	354.88
2197.817	358.88
2201.799	348.88
2205.778	354.88
2209.753	350.88
2213.725	336.88
2217.693	353.88
2221.657	341.88
2225.618	344.88
2229.575	340.88
2233.529	334.88
2237.479	339.88
2241.425	326.88
2245.368	324.88
2249.307	321.88
2253.243	322.88
2257.175	316.88
2261.104	318.88
2265.029	301.88
2268.95	303.88
2272.868	283.88
2276.783	296.88
2280.694	290.88
2284.601	285.88
2288.505	284.88
2292.405	283.88
2296.302	272.88
2300.195	272.88
2304.085	266.88
2307.971	266.88
2311.854	263.88
2315.734	253.88
2319.609	245.88
2323.482	242.88
2327.351	238.88
2331.216	249.88
2335.078	243.88
2338.937	237.88
2342.792	238.88
2346.643	240.88
2350.492	238.88
2354.336	226.88
2358.178	234.88
2362.015	233.88
2365.85	226.88
2369.681	235.88
2373.508	239.88
2377.333	232.88
2381.153	234.88
2384.971	230.88
2388.785	231.88
2392.595	230.88
2396.402	229.88
2400.206	231.88
2404.007	218.88
2407.804	223.88
2411.597	225.88
2415.388	222.88
2419.174	225.88
2422.958	222.88
2426.738	220.88
2430.515	215.88
2434.289	219.88
2438.059	220.88
2441.825	212.88
2445.589	207.88
2449.349	216.88
2453.106	203.88
2456.859	201.88
2460.61	211.88
2464.356	200.88
2468.1	197.88
2471.84	199.88
2475.577	201.88
2479.311	198.88
2483.041	204.88
2486.768	198.88
2490.492	202.88
2494.213	196.88
2497.93	194.88
2501.644	199.88
2505.355	202.88
2509.062	198.88
2512.766	195.88
2516.467	202.88
2520.165	193.88
2523.859	187.88
2527.551	194.88
2531.239	188.88
2534.923	182.88
2538.605	188.88
2542.283	184.88
2545.958	184.88
2549.63	181.88
2553.299	178.88
2556.964	169.88
2560.626	173.88
2564.285	179.88
2567.941	183.88
2571.594	175.88
2575.243	176.88
2578.89	180.88
2582.533	173.88
2586.173	166.88
2589.809	165.88
2593.443	162.88
2597.073	165.88
2600.701	169.88
2604.325	158.88
2607.946	166.88
2611.564	167.88
2615.178	162.88
2618.79	159.88
2622.398	158.88
2626.004	154.88
2629.606	154.88
2633.205	155.88
2636.801	153.88
2640.394	149.88
2643.983	142.88
2647.57	150.88
2651.153	149.88
2654.734	145.88
2658.311	148.88
2661.885	138.88
2665.456	143.88
2669.025	139.88
2672.589	145.88
2676.151	136.88
2679.71	134.88
2683.266	131.88
2686.819	126.88
2690.368	133.88
2693.915	134.88
2697.458	137.88
2700.999	128.88
2704.536	128.88
2708.071	127.88
2711.602	127.88
2715.13	120.88
2718.656	121.88
2722.178	120.88
2725.697	126.88
2729.214	121.88
2732.727	131.88
2736.237	119.88
2739.744	122.88
2743.249	127.88
2746.75	127.88
2750.248	130.88
2753.743	131.88
2757.236	126.88
2760.725	124.88
2764.211	122.88
2767.695	126.88
2771.175	124.88
2774.652	125.88
2778.127	124.88
2781.598	123.88
2785.067	126.88
2788.532	118.88
2791.995	124.88
2795.455	122.88
2798.911	125.88
2802.365	124.88
2805.816	128.88
2809.264	123.88
2812.709	122.88
2816.151	130.88
2819.59	121.88
2823.026	121.88
2826.46	131.88
2829.89	127.88
2833.318	131.88
2836.742	133.88
2840.164	135.88
2843.583	125.88
2846.999	130.88
2850.412	136.88
2853.822	132.88
2857.229	138.88
2860.634	143.88
2864.035	149.88
2867.434	153.88
2870.83	152.88
2874.223	146.88
2877.613	152.88
2881	154.88
2884.385	155.88
2887.766	150.88
2891.145	150.88
2894.521	149.88
2897.894	157.88
2901.264	161.88
2904.631	156.88
2907.996	161.88
2911.358	156.88
2914.717	159.88
2918.073	161.88
2921.426	170.88
2924.777	176.88
2928.124	182.88
2931.469	179.88
2934.811	186.88
2938.15	192.88
2941.487	192.88
2944.821	197.88
2948.152	195.88
2951.48	205.88
2954.805	208.88
2958.128	210.88
2961.447	215.88
2964.765	215.88
2968.079	222.88
2971.39	231.88
2974.699	230.88
2978.005	240.88
2981.308	241.88
2984.609	250.88
2987.907	258.88
2991.202	254.88
2994.494	265.88
2997.784	276.88
3001.07	297.88
3004.355	290.88
3007.636	300.88
3010.915	303.88
3014.191	312.88
3017.464	324.88
3020.734	321.88
3024.002	327.88
3027.267	341.88
3030.53	342.88
3033.789	355.88
3037.046	349.88
3040.301	370.88
3043.552	379.88
3046.801	392.88
3050.048	404.88
3053.291	406.88
3056.532	430.88
3059.771	438.88
3063.006	450.88
3066.239	462.88
3069.469	469.88
3072.697	500.88
3075.922	501.88
3079.144	513.88
3082.364	521.88
3085.581	541.88
3088.795	552.88
3092.007	568.88
3095.216	578.88
3098.423	606.88
3101.627	613.88
3104.828	622.88
3108.026	649.88
3111.222	651.88
3114.416	674.88
3117.607	681.88
3120.795	700.88
3123.98	716.88
3127.163	736.88
3130.344	760.88
3133.521	765.88
3136.696	780.88
3139.869	804.88
3143.039	816.88
3146.206	829.88
3149.371	836.88
3152.533	850.88
3155.693	842.88
3158.85	841.88
3162.005	862.88
3165.157	868.88
3168.306	870.88
3171.453	876.88
3174.597	876.88
3177.739	865.88
3180.878	887.88
3184.014	885.88
3187.149	888.88
3190.28	902.88
3193.409	896.88
3196.536	899.88
3199.659	892.88
3202.781	902.88
3205.9	901.88
3209.016	903.88
3212.13	905.88
3215.241	904.88
3218.35	899.88
3221.456	886.88
3224.56	882.88
3227.661	867.88
3230.76	853.88
3233.856	849.88
3236.95	837.88
3240.041	842.88
3243.13	828.88
3246.216	829.88
3249.3	830.88
3252.382	806.88
3255.46	807.88
3258.537	814.88
3261.611	812.88
3264.682	815.88
3267.751	796.88
3270.818	795.88
3273.882	787.88
3276.943	785.88
3280.002	784.88
3283.059	769.88
3286.113	760.88
3289.165	757.88
3292.214	756.88
3295.261	728.88
3298.306	730.88
3301.348	717.88
3304.387	701.88
3307.425	695.88
3310.459	681.88
3313.492	685.88
3316.521	644.88
3319.549	669.88
3322.574	643.88
3325.597	657.88
3328.617	651.88
3331.635	645.88
3334.65	640.88
3337.663	632.88
3340.674	629.88
3343.682	625.88
3346.688	619.88
3349.691	626.88
3352.692	628.88
3355.691	611.88
3358.687	610.88
3361.681	612.88
3364.673	593.88
3367.662	593.88
3370.649	577.88
3373.633	570.88
3376.615	558.88
3379.595	561.88
3382.572	558.88
3385.547	529.88
3388.52	533.88
3391.49	526.88
3394.458	513.88
3397.424	512.88
3400.387	502.88
3403.348	504.88
3406.307	500.88
3409.263	494.88
3412.217	491.88
3415.168	493.88
3418.118	481.88
3421.065	471.88
3424.009	462.88
3426.951	458.88
3429.891	449.88
3432.829	444.88
3435.764	435.88
3438.697	416.88
3441.628	420.88
3444.557	404.88
3447.483	393.88
3450.407	375.88
3453.328	372.88
3456.247	362.88
3459.164	346.88
3462.079	339.88
3464.991	334.88
3467.902	317.88
3470.809	315.88
3473.715	308.88
3476.618	296.88
3479.519	289.88
3482.418	272.88
3485.315	269.88
3488.209	265.88
3491.101	257.88
3493.99	242.88
3496.878	232.88
3499.763	228.88
3502.646	219.88
3505.527	217.88
3508.405	199.88
3511.281	197.88
3514.155	186.88
3517.027	181.88
3519.897	171.88
3522.764	158.88
3525.629	155.88
3528.492	140.88
3531.352	135.88
3534.211	120.88
3537.067	116.88
3539.921	114.88
3542.773	106.88
3545.622	102.88
3548.469	93.88
3551.315	84.88
3554.157	80.88
3556.998	75.88
3559.837	77.88
3562.673	67.88
3565.507	59.88
3568.339	60.88
3571.169	49.88
3573.996	45.88
3576.822	38.88
3579.645	41.88
3582.466	33.88
3585.285	37.88
3588.101	31.88
3590.916	29.88
3593.728	23.88
3596.538	15.88
3599.346	11.88
3602.152	4.88
3604.956	1.88
3607.757	-0.12
3610.556	-1.12
3613.354	-0.12
3616.149	-7.12
3618.942	-10.12
3621.732	-11.12
3624.521	-14.12
3627.307	-15.12
3630.092	-19.12
3632.874	-22.12
3635.654	-23.12
3638.432	-23.12
3641.208	-23.12
3643.982	-25.12
3646.753	-29.12
3649.523	-33.12
3652.29	-29.12
3655.055	-31.12
3657.818	-32.12
3660.579	-40.12
3663.338	-42.12
3666.095	-43.12
3668.849	-46.12
3671.602	-52.12
3674.352	-48.12
3677.101	-51.12
3679.847	-53.12
3682.591	-53.12
3685.333	-50.12
3688.073	-58.12
3690.811	-56.12
3693.547	-59.12
3696.281	-62.12
3699.013	-62.12
3701.742	-62.12
3704.47	-62.12
3707.195	-60.12
3709.919	-63.12
3712.64	-63.12
3715.359	-65.12
3718.076	-63.12
3720.792	-63.12
3723.505	-65.12
3726.216	-66.12
3728.925	-67.12
3731.632	-69.12
3734.336	-71.12
3737.039	-73.12
3739.74	-71.12
3742.439	-73.12
3745.136	-73.12
3747.83	-72.12
3750.523	-73.12
3753.213	-72.12
3755.902	-71.12
3758.589	-70.12
3761.273	-69.12
3763.956	-76.12
3766.636	-77.12
3769.315	-78.12
3771.991	-75.12
3774.665	-77.12
3777.338	-75.12
3780.008	-76.12
3782.677	-77.12
3785.343	-76.12
3788.007	-74.12
3790.67	-74.12
3793.33	-77.12
3795.989	-76.12
3798.645	-76.12
3801.299	-77.12
3803.952	-78.12
3806.602	-77.12
3809.251	-73.12
3811.897	-78.12
3814.542	-81.12
3817.184	-78.12
3819.825	-77.12
3822.463	-80.12
3825.1	-81.12
3827.735	-81.12
3830.367	-81.12
3832.998	-79.12
3835.627	-83.12
3838.253	-80.12
3840.878	-82.12
3843.501	-80.12
3846.122	-78.12
3848.741	-79.12
3851.358	-81.12
3853.973	-75.12
3856.586	-81.12
3859.197	-82.12
3861.806	-84.12
3864.414	-84.12
3867.019	-86.12
3869.622	-83.12
3872.224	-82.12
3874.823	-78.12
3877.421	-76.12
3880.016	-79.12
3882.61	-72.12
3885.202	-72.12
3887.792	-74.12
3890.38	-79.12
3892.966	-81.12
3895.55	-87.12
3898.132	-89.12
3900.713	-86.12
3903.291	-81.12
3905.868	-83.12
3908.442	-84.12
3911.015	-83.12
3913.586	-83.12
3916.155	-79.12
3918.722	-83.12
3921.287	-82.12
3923.85	-82.12
3926.411	-80.12
3928.971	-86.12
3931.528	-85.12
3934.084	-84.12
3936.638	-84.12
3939.19	-81.12
3941.74	-78.12
3944.288	-85.12
3946.834	-84.12
3949.378	-85.12
3951.921	-86.12
3954.462	-89.12
3957	-88.12
3959.537	-90.12
3962.072	-88.12
3964.606	-85.12
3967.137	-85.12
3969.667	-82.12
3972.194	-83.12
3974.72	-80.12
3977.244	-83.12
3979.766	-82.12
3982.286	-82.12
3984.805	-86.12
3987.321	-83.12
3989.836	-81.12
3992.349	-85.12
3994.86	-82.12
3997.369	-90.12
3999.877	-83.12
4002.382	-84.12
4004.886	-84.12
4007.388	-85.12
4009.888	-84.12
4012.386	-85.12
4014.883	-83.12
4017.377	-83.12
4019.87	-87.12
4022.361	-85.12
4024.85	-87.12
4027.338	-84.12
4029.823	-87.12
4032.307	-87.12
4034.789	-86.12
4037.269	-84.12
4039.747	-86.12
4042.224	-79.12
4044.699	-80.12
4047.172	-85.12
4049.643	-83.12
4052.112	-82.12
4054.58	-84.12
4057.046	-89.12
4059.51	-82.12
4061.972	-83.12
4064.432	-83.12
4066.891	-82.12
4069.348	-80.12
4071.803	-80.12
4074.256	-82.12
4076.708	-85.12
4079.158	-86.12
4081.606	-86.12
4084.052	-85.12
4086.497	-84.12
4088.939	-86.12
4091.38	-86.12
4093.819	-88.12
4096.257	-86.12
4098.693	-89.12
4101.127	-91.12
4103.559	-87.12
4105.989	-53.12
4108.418	-55.12
4110.845	-54.12
4113.27	-48.12
4115.694	-46.12
4118.115	-38.12
4120.535	-85.12
4122.954	-83.12
4125.37	-81.12
4127.785	-82.12
4130.198	-82.12
4132.609	-81.12
4135.019	-84.12
4137.427	-86.12
4139.833	-89.12
4142.237	-86.12
