Data from 1000000CFU2_B_RamanShift_1.txt Node
Date: Thu Jan 26 11:40:48 IST 2017
User: aro
Spectrometer: QEPB0276
Trigger mode: 0
Integration Time (sec): 5.000000E0
Scans to average: 1
Electric dark correction enabled: true
Nonlinearity correction enabled: false
Boxcar width: 0
XAxis mode: Raman Shifts
Number of Pixels in Spectrum: 1044
>>>>>Begin Spectral Data<<<<<
160.701	-33.5
166.742	-3.5
172.777	96.5
178.805	392.5
184.826	1064.5
190.841	2187.5
196.849	3419.5
202.85	4172.5
208.845	4332.5
214.833	4186.5
220.815	4032.5
226.789	3909.5
232.758	3799.5
238.719	3680.5
244.674	3542.5
250.623	3373.5
256.565	3227.5
262.5	3089.5
268.429	2936.5
274.351	2860.5
280.267	2725.5
286.176	2622.5
292.079	2525.5
297.975	2448.5
303.865	2376.5
309.748	2306.5
315.625	2275.5
321.495	2237.5
327.359	2202.5
333.217	2172.5
339.068	2153.5
344.912	2136.5
350.751	2128.5
356.583	2120.5
362.408	2129.5
368.227	2138.5
374.04	2124.5
379.847	2130.5
385.647	2150.5
391.44	2166.5
397.228	2169.5
403.009	2188.5
408.784	2172.5
414.553	2201.5
420.315	2212.5
426.071	2219.5
431.821	2212.5
437.565	2200.5
443.302	2202.5
449.033	2189.5
454.758	2199.5
460.477	2189.5
466.189	2167.5
471.896	2165.5
477.596	2158.5
483.29	2123.5
488.978	2109.5
494.66	2107.5
500.335	2065.5
506.005	2046.5
511.668	2007.5
517.325	1968.5
522.977	1932.5
528.622	1908.5
534.261	1888.5
539.894	1871.5
545.521	1853.5
551.141	1830.5
556.756	1814.5
562.365	1809.5
567.968	1802.5
573.565	1806.5
579.155	1772.5
584.74	1777.5
590.319	1754.5
595.892	1750.5
601.459	1756.5
607.02	1716.5
612.575	1711.5
618.124	1693.5
623.667	1686.5
629.204	1670.5
634.735	1661.5
640.261	1637.5
645.781	1610.5
651.294	1631.5
656.802	1605.5
662.304	1621.5
667.8	1621.5
673.29	1594.5
678.775	1565.5
684.254	1599.5
689.726	1554.5
695.193	1576.5
700.655	1559.5
706.11	1536.5
711.56	1543.5
717.004	1524.5
722.442	1520.5
727.874	1501.5
733.301	1506.5
738.722	1490.5
744.137	1486.5
749.547	1481.5
754.951	1480.5
760.349	1487.5
765.741	1474.5
771.128	1478.5
776.509	1479.5
781.885	1464.5
787.254	1469.5
792.618	1473.5
797.977	1449.5
803.33	1441.5
808.677	1444.5
814.019	1419.5
819.355	1398.5
824.686	1374.5
830.011	1399.5
835.33	1362.5
840.644	1369.5
845.952	1345.5
851.255	1368.5
856.552	1355.5
861.844	1337.5
867.13	1323.5
872.41	1314.5
877.686	1318.5
882.955	1296.5
888.219	1288.5
893.478	1253.5
898.731	1239.5
903.979	1220.5
909.221	1203.5
914.458	1192.5
919.69	1198.5
924.916	1193.5
930.136	1189.5
935.351	1187.5
940.561	1198.5
945.766	1178.5
950.965	1172.5
956.158	1168.5
961.347	1138.5
966.529	1137.5
971.707	1121.5
976.879	1107.5
982.046	1097.5
987.208	1087.5
992.364	1093.5
997.515	1088.5
1002.66	1097.5
1007.801	1097.5
1012.936	1120.5
1018.066	1119.5
1023.19	1131.5
1028.309	1125.5
1033.423	1146.5
1038.532	1129.5
1043.636	1111.5
1048.734	1111.5
1053.827	1101.5
1058.915	1081.5
1063.998	1081.5
1069.075	1075.5
1074.147	1090.5
1079.214	1092.5
1084.276	1095.5
1089.333	1113.5
1094.385	1094.5
1099.431	1107.5
1104.472	1106.5
1109.509	1113.5
1114.54	1096.5
1119.565	1078.5
1124.586	1078.5
1129.602	1070.5
1134.613	1046.5
1139.618	1046.5
1144.619	1053.5
1149.614	1050.5
1154.604	1064.5
1159.589	1062.5
1164.57	1065.5
1169.545	1081.5
1174.515	1090.5
1179.48	1074.5
1184.44	1065.5
1189.395	1054.5
1194.345	1053.5
1199.29	1039.5
1204.23	1054.5
1209.165	1048.5
1214.095	1071.5
1219.021	1060.5
1223.941	1071.5
1228.856	1082.5
1233.766	1098.5
1238.672	1091.5
1243.572	1075.5
1248.467	1090.5
1253.358	1073.5
1258.244	1040.5
1263.124	1039.5
1268	1031.5
1272.871	1017.5
1277.737	1014.5
1282.599	1002.5
1287.455	1005.5
1292.306	1006.5
1297.153	1012.5
1301.995	1021.5
1306.832	1041.5
1311.664	1041.5
1316.491	1042.5
1321.314	1029.5
1326.132	1023.5
1330.945	1006.5
1335.753	1008.5
1340.556	988.5
1345.354	982.5
1350.148	978.5
1354.937	970.5
1359.722	951.5
1364.501	959.5
1369.276	953.5
1374.046	934.5
1378.811	937.5
1383.572	938.5
1388.327	926.5
1393.079	909.5
1397.825	914.5
1402.567	911.5
1407.304	919.5
1412.036	911.5
1416.764	894.5
1421.487	904.5
1426.205	898.5
1430.919	910.5
1435.628	932.5
1440.333	936.5
1445.032	942.5
1449.727	954.5
1454.418	952.5
1459.104	957.5
1463.785	956.5
1468.462	936.5
1473.134	935.5
1477.802	929.5
1482.465	918.5
1487.123	918.5
1491.777	923.5
1496.426	939.5
1501.071	946.5
1505.711	931.5
1510.347	949.5
1514.978	955.5
1519.604	969.5
1524.226	958.5
1528.844	975.5
1533.457	973.5
1538.065	978.5
1542.669	965.5
1547.269	959.5
1551.864	965.5
1556.454	976.5
1561.041	985.5
1565.622	998.5
1570.199	1019.5
1574.772	1023.5
1579.34	1043.5
1583.904	1078.5
1588.464	1088.5
1593.019	1098.5
1597.569	1103.5
1602.115	1119.5
1606.657	1133.5
1611.195	1137.5
1615.728	1150.5
1620.256	1172.5
1624.78	1200.5
1629.3	1212.5
1633.816	1228.5
1638.327	1244.5
1642.834	1260.5
1647.336	1272.5
1651.834	1273.5
1656.328	1262.5
1660.817	1271.5
1665.302	1238.5
1669.783	1220.5
1674.259	1186.5
1678.732	1156.5
1683.199	1103.5
1687.663	1090.5
1692.122	1031.5
1696.577	992.5
1701.028	962.5
1705.474	905.5
1709.917	875.5
1714.355	866.5
1718.788	856.5
1723.218	829.5
1727.643	817.5
1732.064	807.5
1736.481	785.5
1740.893	752.5
1745.301	736.5
1749.705	726.5
1754.105	709.5
1758.501	682.5
1762.893	673.5
1767.28	667.5
1771.663	669.5
1776.042	658.5
1780.417	666.5
1784.787	670.5
1789.154	665.5
1793.516	655.5
1797.874	657.5
1802.228	651.5
1806.578	637.5
1810.924	635.5
1815.266	610.5
1819.603	595.5
1823.937	606.5
1828.266	587.5
1832.591	585.5
1836.913	584.5
1841.23	589.5
1845.543	592.5
1849.852	589.5
1854.156	589.5
1858.457	582.5
1862.754	596.5
1867.047	590.5
1871.335	599.5
1875.62	599.5
1879.9	604.5
1884.177	601.5
1888.449	599.5
1892.718	604.5
1896.982	603.5
1901.243	600.5
1905.499	582.5
1909.752	604.5
1914	600.5
1918.245	597.5
1922.485	587.5
1926.722	600.5
1930.954	598.5
1935.183	616.5
1939.408	608.5
1943.628	605.5
1947.845	607.5
1952.058	601.5
1956.267	604.5
1960.472	583.5
1964.673	585.5
1968.87	573.5
1973.063	581.5
1977.252	569.5
1981.438	567.5
1985.619	564.5
1989.797	574.5
1993.971	575.5
1998.14	581.5
2002.306	584.5
2006.469	569.5
2010.627	585.5
2014.781	579.5
2018.932	576.5
2023.078	579.5
2027.221	569.5
2031.36	579.5
2035.495	562.5
2039.627	564.5
2043.754	560.5
2047.878	555.5
2051.998	570.5
2056.114	562.5
2060.226	568.5
2064.334	569.5
2068.439	577.5
2072.54	578.5
2076.637	582.5
2080.73	586.5
2084.82	582.5
2088.906	578.5
2092.988	592.5
2097.066	588.5
2101.14	576.5
2105.211	576.5
2109.278	570.5
2113.342	563.5
2117.401	559.5
2121.457	563.5
2125.509	557.5
2129.558	548.5
2133.602	544.5
2137.643	550.5
2141.681	553.5
2145.714	549.5
2149.744	544.5
2153.77	536.5
2157.793	530.5
2161.812	531.5
2165.827	528.5
2169.838	518.5
2173.846	508.5
2177.851	497.5
2181.851	486.5
2185.848	494.5
2189.841	487.5
2193.831	476.5
2197.817	469.5
2201.799	466.5
2205.778	471.5
2209.753	471.5
2213.725	461.5
2217.693	464.5
2221.657	456.5
2225.618	460.5
2229.575	463.5
2233.529	461.5
2237.479	449.5
2241.425	450.5
2245.368	450.5
2249.307	434.5
2253.243	433.5
2257.175	423.5
2261.104	422.5
2265.029	416.5
2268.95	407.5
2272.868	394.5
2276.783	400.5
2280.694	395.5
2284.601	383.5
2288.505	380.5
2292.405	383.5
2296.302	372.5
2300.195	368.5
2304.085	357.5
2307.971	352.5
2311.854	351.5
2315.734	342.5
2319.609	342.5
2323.482	342.5
2327.351	320.5
2331.216	325.5
2335.078	315.5
2338.937	322.5
2342.792	321.5
2346.643	327.5
2350.492	313.5
2354.336	306.5
2358.178	311.5
2362.015	312.5
2365.85	314.5
2369.681	317.5
2373.508	317.5
2377.333	326.5
2381.153	319.5
2384.971	319.5
2388.785	305.5
2392.595	311.5
2396.402	304.5
2400.206	299.5
2404.007	306.5
2407.804	314.5
2411.597	305.5
2415.388	296.5
2419.174	305.5
2422.958	293.5
2426.738	303.5
2430.515	291.5
2434.289	296.5
2438.059	298.5
2441.825	295.5
2445.589	285.5
2449.349	295.5
2453.106	284.5
2456.859	286.5
2460.61	271.5
2464.356	282.5
2468.1	269.5
2471.84	284.5
2475.577	277.5
2479.311	270.5
2483.041	274.5
2486.768	274.5
2490.492	270.5
2494.213	269.5
2497.93	267.5
2501.644	273.5
2505.355	272.5
2509.062	268.5
2512.766	279.5
2516.467	267.5
2520.165	274.5
2523.859	267.5
2527.551	267.5
2531.239	266.5
2534.923	261.5
2538.605	258.5
2542.283	252.5
2545.958	255.5
2549.63	252.5
2553.299	253.5
2556.964	250.5
2560.626	244.5
2564.285	248.5
2567.941	248.5
2571.594	240.5
2575.243	245.5
2578.89	242.5
2582.533	240.5
2586.173	238.5
2589.809	227.5
2593.443	233.5
2597.073	225.5
2600.701	221.5
2604.325	231.5
2607.946	228.5
2611.564	233.5
2615.178	222.5
2618.79	222.5
2622.398	216.5
2626.004	217.5
2629.606	211.5
2633.205	212.5
2636.801	216.5
2640.394	210.5
2643.983	207.5
2647.57	210.5
2651.153	206.5
2654.734	197.5
2658.311	203.5
2661.885	200.5
2665.456	193.5
2669.025	196.5
2672.589	192.5
2676.151	196.5
2679.71	184.5
2683.266	186.5
2686.819	185.5
2690.368	186.5
2693.915	183.5
2697.458	180.5
2700.999	186.5
2704.536	172.5
2708.071	181.5
2711.602	170.5
2715.13	170.5
2718.656	178.5
2722.178	176.5
2725.697	177.5
2729.214	177.5
2732.727	180.5
2736.237	180.5
2739.744	179.5
2743.249	190.5
2746.75	189.5
2750.248	180.5
2753.743	186.5
2757.236	169.5
2760.725	175.5
2764.211	171.5
2767.695	172.5
2771.175	163.5
2774.652	167.5
2778.127	165.5
2781.598	172.5
2785.067	163.5
2788.532	167.5
2791.995	168.5
2795.455	169.5
2798.911	173.5
2802.365	173.5
2805.816	173.5
2809.264	174.5
2812.709	183.5
2816.151	175.5
2819.59	174.5
2823.026	180.5
2826.46	183.5
2829.89	173.5
2833.318	182.5
2836.742	188.5
2840.164	184.5
2843.583	182.5
2846.999	182.5
2850.412	185.5
2853.822	182.5
2857.229	187.5
2860.634	195.5
2864.035	192.5
2867.434	199.5
2870.83	205.5
2874.223	210.5
2877.613	208.5
2881	210.5
2884.385	208.5
2887.766	218.5
2891.145	207.5
2894.521	207.5
2897.894	212.5
2901.264	217.5
2904.631	214.5
2907.996	221.5
2911.358	220.5
2914.717	227.5
2918.073	224.5
2921.426	235.5
2924.777	236.5
2928.124	239.5
2931.469	251.5
2934.811	240.5
2938.15	258.5
2941.487	256.5
2944.821	263.5
2948.152	266.5
2951.48	258.5
2954.805	273.5
2958.128	276.5
2961.447	287.5
2964.765	289.5
2968.079	300.5
2971.39	300.5
2974.699	308.5
2978.005	320.5
2981.308	328.5
2984.609	330.5
2987.907	340.5
2991.202	356.5
2994.494	366.5
2997.784	364.5
3001.07	391.5
3004.355	397.5
3007.636	405.5
3010.915	414.5
3014.191	418.5
3017.464	429.5
3020.734	438.5
3024.002	440.5
3027.267	452.5
3030.53	451.5
3033.789	471.5
3037.046	478.5
3040.301	485.5
3043.552	494.5
3046.801	522.5
3050.048	524.5
3053.291	538.5
3056.532	562.5
3059.771	589.5
3063.006	598.5
3066.239	607.5
3069.469	636.5
3072.697	646.5
3075.922	670.5
3079.144	684.5
3082.364	700.5
3085.581	712.5
3088.795	734.5
3092.007	752.5
3095.216	762.5
3098.423	784.5
3101.627	811.5
3104.828	828.5
3108.026	842.5
3111.222	857.5
3114.416	872.5
3117.607	893.5
3120.795	918.5
3123.98	953.5
3127.163	962.5
3130.344	985.5
3133.521	1002.5
3136.696	1013.5
3139.869	1049.5
3143.039	1072.5
3146.206	1078.5
3149.371	1103.5
3152.533	1097.5
3155.693	1118.5
3158.85	1130.5
3162.005	1132.5
3165.157	1134.5
3168.306	1158.5
3171.453	1150.5
3174.597	1155.5
3177.739	1158.5
3180.878	1159.5
3184.014	1157.5
3187.149	1166.5
3190.28	1164.5
3193.409	1164.5
3196.536	1177.5
3199.659	1186.5
3202.781	1189.5
3205.9	1200.5
3209.016	1189.5
3212.13	1194.5
3215.241	1195.5
3218.35	1165.5
3221.456	1169.5
3224.56	1149.5
3227.661	1143.5
3230.76	1125.5
3233.856	1121.5
3236.95	1094.5
3240.041	1099.5
3243.13	1082.5
3246.216	1073.5
3249.3	1065.5
3252.382	1071.5
3255.46	1067.5
3258.537	1071.5
3261.611	1065.5
3264.682	1060.5
3267.751	1065.5
3270.818	1040.5
3273.882	1043.5
3276.943	1026.5
3280.002	1032.5
3283.059	1020.5
3286.113	1011.5
3289.165	1012.5
3292.214	982.5
3295.261	972.5
3298.306	958.5
3301.348	930.5
3304.387	927.5
3307.425	898.5
3310.459	893.5
3313.492	879.5
3316.521	880.5
3319.549	861.5
3322.574	859.5
3325.597	839.5
3328.617	841.5
3331.635	849.5
3334.65	829.5
3337.663	834.5
3340.674	822.5
3343.682	825.5
3346.688	814.5
3349.691	808.5
3352.692	812.5
3355.691	801.5
3358.687	805.5
3361.681	797.5
3364.673	788.5
3367.662	765.5
3370.649	755.5
3373.633	761.5
3376.615	749.5
3379.595	729.5
3382.572	733.5
3385.547	717.5
3388.52	712.5
3391.49	696.5
3394.458	684.5
3397.424	674.5
3400.387	663.5
3403.348	660.5
3406.307	647.5
3409.263	648.5
3412.217	646.5
3415.168	628.5
3418.118	641.5
3421.065	613.5
3424.009	611.5
3426.951	599.5
3429.891	597.5
3432.829	580.5
3435.764	577.5
3438.697	561.5
3441.628	560.5
3444.557	528.5
3447.483	527.5
3450.407	498.5
3453.328	491.5
3456.247	488.5
3459.164	463.5
3462.079	445.5
3464.991	436.5
3467.902	418.5
3470.809	413.5
3473.715	400.5
3476.618	384.5
3479.519	369.5
3482.418	361.5
3485.315	348.5
3488.209	344.5
3491.101	333.5
3493.99	323.5
3496.878	311.5
3499.763	300.5
3502.646	288.5
3505.527	290.5
3508.405	264.5
3511.281	261.5
3514.155	243.5
3517.027	235.5
3519.897	228.5
3522.764	207.5
3525.629	213.5
3528.492	183.5
3531.352	176.5
3534.211	168.5
3537.067	164.5
3539.921	152.5
3542.773	144.5
3545.622	130.5
3548.469	130.5
3551.315	126.5
3554.157	112.5
3556.998	101.5
3559.837	98.5
3562.673	90.5
3565.507	79.5
3568.339	74.5
3571.169	65.5
3573.996	62.5
3576.822	60.5
3579.645	53.5
3582.466	47.5
3585.285	43.5
3588.101	36.5
3590.916	35.5
3593.728	31.5
3596.538	19.5
3599.346	13.5
3602.152	9.5
3604.956	0.5
3607.757	2.5
3610.556	0.5
3613.354	-0.5
3616.149	-4.5
3618.942	-16.5
3621.732	-6.5
3624.521	-11.5
3627.307	-20.5
3630.092	-17.5
3632.874	-21.5
3635.654	-29.5
3638.432	-29.5
3641.208	-32.5
3643.982	-31.5
3646.753	-41.5
3649.523	-38.5
3652.29	-42.5
3655.055	-45.5
3657.818	-45.5
3660.579	-47.5
3663.338	-55.5
3666.095	-53.5
3668.849	-61.5
3671.602	-62.5
3674.352	-63.5
3677.101	-61.5
3679.847	-68.5
3682.591	-69.5
3685.333	-70.5
3688.073	-69.5
3690.811	-71.5
3693.547	-73.5
3696.281	-77.5
3699.013	-76.5
3701.742	-76.5
3704.47	-77.5
3707.195	-79.5
3709.919	-79.5
3712.64	-81.5
3715.359	-80.5
3718.076	-85.5
3720.792	-81.5
3723.505	-82.5
3726.216	-89.5
3728.925	-84.5
3731.632	-90.5
3734.336	-92.5
3737.039	-92.5
3739.74	-93.5
3742.439	-90.5
3745.136	-94.5
3747.83	-92.5
3750.523	-94.5
3753.213	-88.5
3755.902	-91.5
3758.589	-88.5
3761.273	-92.5
3763.956	-96.5
3766.636	-97.5
3769.315	-96.5
3771.991	-96.5
3774.665	-95.5
3777.338	-97.5
3780.008	-92.5
3782.677	-97.5
3785.343	-95.5
3788.007	-96.5
3790.67	-96.5
3793.33	-100.5
3795.989	-100.5
3798.645	-98.5
3801.299	-98.5
3803.952	-101.5
3806.602	-100.5
3809.251	-97.5
3811.897	-103.5
3814.542	-104.5
3817.184	-101.5
3819.825	-100.5
3822.463	-101.5
3825.1	-103.5
3827.735	-102.5
3830.367	-102.5
3832.998	-101.5
3835.627	-104.5
3838.253	-104.5
3840.878	-108.5
3843.501	-101.5
3846.122	-102.5
3848.741	-98.5
3851.358	-102.5
3853.973	-100.5
3856.586	-104.5
3859.197	-110.5
3861.806	-106.5
3864.414	-105.5
3867.019	-107.5
3869.622	-106.5
3872.224	-106.5
3874.823	-102.5
3877.421	-98.5
3880.016	-100.5
3882.61	-94.5
3885.202	-95.5
3887.792	-97.5
3890.38	-103.5
3892.966	-104.5
3895.55	-108.5
3898.132	-111.5
3900.713	-109.5
3903.291	-103.5
3905.868	-108.5
3908.442	-107.5
3911.015	-104.5
3913.586	-104.5
3916.155	-100.5
3918.722	-106.5
3921.287	-108.5
3923.85	-108.5
3926.411	-106.5
3928.971	-109.5
3931.528	-108.5
3934.084	-111.5
3936.638	-111.5
3939.19	-107.5
3941.74	-107.5
3944.288	-106.5
3946.834	-110.5
3949.378	-111.5
3951.921	-111.5
3954.462	-106.5
3957	-113.5
3959.537	-114.5
3962.072	-111.5
3964.606	-110.5
3967.137	-106.5
3969.667	-110.5
3972.194	-104.5
3974.72	-105.5
3977.244	-106.5
3979.766	-104.5
3982.286	-102.5
3984.805	-110.5
3987.321	-106.5
3989.836	-107.5
3992.349	-107.5
3994.86	-104.5
3997.369	-112.5
3999.877	-106.5
4002.382	-107.5
4004.886	-105.5
4007.388	-110.5
4009.888	-108.5
4012.386	-110.5
4014.883	-108.5
4017.377	-107.5
4019.87	-111.5
4022.361	-109.5
4024.85	-110.5
4027.338	-110.5
4029.823	-111.5
4032.307	-109.5
4034.789	-110.5
4037.269	-109.5
4039.747	-106.5
4042.224	-101.5
4044.699	-104.5
4047.172	-108.5
4049.643	-106.5
4052.112	-106.5
4054.58	-104.5
4057.046	-110.5
4059.51	-105.5
4061.972	-107.5
4064.432	-108.5
4066.891	-108.5
4069.348	-108.5
4071.803	-103.5
4074.256	-107.5
4076.708	-110.5
4079.158	-110.5
4081.606	-109.5
4084.052	-111.5
4086.497	-109.5
4088.939	-111.5
4091.38	-111.5
4093.819	-111.5
4096.257	-113.5
4098.693	-115.5
4101.127	-114.5
4103.559	-113.5
4105.989	-71.5
4108.418	-67.5
4110.845	-65.5
4113.27	-59.5
4115.694	-57.5
4118.115	-47.5
4120.535	-110.5
4122.954	-108.5
4125.37	-107.5
4127.785	-105.5
4130.198	-104.5
4132.609	-105.5
4135.019	-109.5
4137.427	-114.5
4139.833	-115.5
4142.237	-112.5
