Data from 1000CFU3_B_RamanShift_1.txt Node
Date: Thu Jan 26 11:32:53 IST 2017
User: aro
Spectrometer: QEPB0276
Trigger mode: 0
Integration Time (sec): 5.000000E0
Scans to average: 1
Electric dark correction enabled: true
Nonlinearity correction enabled: false
Boxcar width: 0
XAxis mode: Raman Shifts
Number of Pixels in Spectrum: 1044
>>>>>Begin Spectral Data<<<<<
160.701	-31.62
166.742	-0.62
172.777	96.38
178.805	387.38
184.826	1085.38
190.841	2215.38
196.849	3462.38
202.85	4245.38
208.845	4379.38
214.833	4276.38
220.815	4123.38
226.789	3998.38
232.758	3902.38
238.719	3793.38
244.674	3653.38
250.623	3511.38
256.565	3351.38
262.5	3222.38
268.429	3094.38
274.351	2963.38
280.267	2876.38
286.176	2786.38
292.079	2673.38
297.975	2591.38
303.865	2523.38
309.748	2466.38
315.625	2415.38
321.495	2384.38
327.359	2336.38
333.217	2310.38
339.068	2280.38
344.912	2281.38
350.751	2278.38
356.583	2257.38
362.408	2262.38
368.227	2274.38
374.04	2260.38
379.847	2263.38
385.647	2281.38
391.44	2303.38
397.228	2298.38
403.009	2323.38
408.784	2329.38
414.553	2349.38
420.315	2325.38
426.071	2331.38
431.821	2333.38
437.565	2327.38
443.302	2336.38
449.033	2316.38
454.758	2315.38
460.477	2312.38
466.189	2291.38
471.896	2296.38
477.596	2275.38
483.29	2274.38
488.978	2247.38
494.66	2254.38
500.335	2218.38
506.005	2167.38
511.668	2148.38
517.325	2105.38
522.977	2075.38
528.622	2043.38
534.261	2011.38
539.894	2015.38
545.521	1999.38
551.141	1973.38
556.756	2001.38
562.365	1957.38
567.968	1962.38
573.565	1948.38
579.155	1947.38
584.74	1947.38
590.319	1915.38
595.892	1907.38
601.459	1878.38
607.02	1871.38
612.575	1869.38
618.124	1846.38
623.667	1812.38
629.204	1799.38
634.735	1798.38
640.261	1792.38
645.781	1772.38
651.294	1758.38
656.802	1743.38
662.304	1755.38
667.8	1753.38
673.29	1725.38
678.775	1761.38
684.254	1743.38
689.726	1716.38
695.193	1714.38
700.655	1723.38
706.11	1675.38
711.56	1696.38
717.004	1682.38
722.442	1658.38
727.874	1652.38
733.301	1649.38
738.722	1662.38
744.137	1643.38
749.547	1651.38
754.951	1620.38
760.349	1627.38
765.741	1619.38
771.128	1614.38
776.509	1619.38
781.885	1621.38
787.254	1621.38
792.618	1600.38
797.977	1608.38
803.33	1585.38
808.677	1570.38
814.019	1571.38
819.355	1543.38
824.686	1543.38
830.011	1512.38
835.33	1525.38
840.644	1518.38
845.952	1519.38
851.255	1514.38
856.552	1490.38
861.844	1502.38
867.13	1499.38
872.41	1487.38
877.686	1449.38
882.955	1459.38
888.219	1436.38
893.478	1410.38
898.731	1383.38
903.979	1380.38
909.221	1370.38
914.458	1353.38
919.69	1357.38
924.916	1357.38
930.136	1347.38
935.351	1337.38
940.561	1340.38
945.766	1335.38
950.965	1331.38
956.158	1329.38
961.347	1313.38
966.529	1290.38
971.707	1285.38
976.879	1256.38
982.046	1252.38
987.208	1232.38
992.364	1246.38
997.515	1266.38
1002.66	1260.38
1007.801	1267.38
1012.936	1274.38
1018.066	1302.38
1023.19	1312.38
1028.309	1307.38
1033.423	1312.38
1038.532	1288.38
1043.636	1276.38
1048.734	1274.38
1053.827	1265.38
1058.915	1250.38
1063.998	1237.38
1069.075	1234.38
1074.147	1244.38
1079.214	1253.38
1084.276	1251.38
1089.333	1248.38
1094.385	1290.38
1099.431	1288.38
1104.472	1278.38
1109.509	1283.38
1114.54	1272.38
1119.565	1250.38
1124.586	1235.38
1129.602	1235.38
1134.613	1224.38
1139.618	1222.38
1144.619	1225.38
1149.614	1218.38
1154.604	1260.38
1159.589	1248.38
1164.57	1244.38
1169.545	1238.38
1174.515	1229.38
1179.48	1246.38
1184.44	1231.38
1189.395	1215.38
1194.345	1206.38
1199.29	1213.38
1204.23	1221.38
1209.165	1221.38
1214.095	1238.38
1219.021	1235.38
1223.941	1256.38
1228.856	1259.38
1233.766	1264.38
1238.672	1270.38
1243.572	1257.38
1248.467	1256.38
1253.358	1253.38
1258.244	1233.38
1263.124	1225.38
1268	1190.38
1272.871	1185.38
1277.737	1166.38
1282.599	1165.38
1287.455	1188.38
1292.306	1174.38
1297.153	1194.38
1301.995	1198.38
1306.832	1211.38
1311.664	1206.38
1316.491	1215.38
1321.314	1212.38
1326.132	1214.38
1330.945	1185.38
1335.753	1169.38
1340.556	1169.38
1345.354	1159.38
1350.148	1136.38
1354.937	1154.38
1359.722	1137.38
1364.501	1120.38
1369.276	1121.38
1374.046	1095.38
1378.811	1101.38
1383.572	1102.38
1388.327	1100.38
1393.079	1083.38
1397.825	1079.38
1402.567	1062.38
1407.304	1070.38
1412.036	1063.38
1416.764	1064.38
1421.487	1069.38
1426.205	1059.38
1430.919	1087.38
1435.628	1097.38
1440.333	1106.38
1445.032	1106.38
1449.727	1132.38
1454.418	1128.38
1459.104	1121.38
1463.785	1111.38
1468.462	1117.38
1473.134	1088.38
1477.802	1090.38
1482.465	1090.38
1487.123	1096.38
1491.777	1096.38
1496.426	1100.38
1501.071	1109.38
1505.711	1110.38
1510.347	1136.38
1514.978	1142.38
1519.604	1148.38
1524.226	1154.38
1528.844	1145.38
1533.457	1133.38
1538.065	1138.38
1542.669	1130.38
1547.269	1129.38
1551.864	1135.38
1556.454	1141.38
1561.041	1159.38
1565.622	1163.38
1570.199	1179.38
1574.772	1189.38
1579.34	1214.38
1583.904	1229.38
1588.464	1244.38
1593.019	1260.38
1597.569	1278.38
1602.115	1268.38
1606.657	1298.38
1611.195	1294.38
1615.728	1320.38
1620.256	1320.38
1624.78	1333.38
1629.3	1374.38
1633.816	1385.38
1638.327	1394.38
1642.834	1424.38
1647.336	1427.38
1651.834	1429.38
1656.328	1442.38
1660.817	1422.38
1665.302	1420.38
1669.783	1379.38
1674.259	1342.38
1678.732	1328.38
1683.199	1271.38
1687.663	1238.38
1692.122	1199.38
1696.577	1157.38
1701.028	1100.38
1705.474	1073.38
1709.917	1030.38
1714.355	1012.38
1718.788	1000.38
1723.218	983.38
1727.643	970.38
1732.064	952.38
1736.481	937.38
1740.893	918.38
1745.301	884.38
1749.705	869.38
1754.105	845.38
1758.501	832.38
1762.893	815.38
1767.28	816.38
1771.663	810.38
1776.042	794.38
1780.417	806.38
1784.787	811.38
1789.154	815.38
1793.516	820.38
1797.874	805.38
1802.228	809.38
1806.578	788.38
1810.924	784.38
1815.266	763.38
1819.603	755.38
1823.937	745.38
1828.266	741.38
1832.591	740.38
1836.913	722.38
1841.23	727.38
1845.543	735.38
1849.852	738.38
1854.156	738.38
1858.457	715.38
1862.754	739.38
1867.047	747.38
1871.335	752.38
1875.62	748.38
1879.9	745.38
1884.177	752.38
1888.449	749.38
1892.718	741.38
1896.982	752.38
1901.243	750.38
1905.499	740.38
1909.752	731.38
1914	731.38
1918.245	733.38
1922.485	742.38
1926.722	736.38
1930.954	749.38
1935.183	743.38
1939.408	751.38
1943.628	753.38
1947.845	741.38
1952.058	744.38
1956.267	752.38
1960.472	729.38
1964.673	718.38
1968.87	700.38
1973.063	712.38
1977.252	700.38
1981.438	698.38
1985.619	690.38
1989.797	693.38
1993.971	700.38
1998.14	700.38
2002.306	703.38
2006.469	702.38
2010.627	712.38
2014.781	713.38
2018.932	709.38
2023.078	706.38
2027.221	694.38
2031.36	698.38
2035.495	677.38
2039.627	692.38
2043.754	682.38
2047.878	687.38
2051.998	687.38
2056.114	690.38
2060.226	695.38
2064.334	700.38
2068.439	687.38
2072.54	707.38
2076.637	705.38
2080.73	700.38
2084.82	710.38
2088.906	708.38
2092.988	702.38
2097.066	707.38
2101.14	690.38
2105.211	694.38
2109.278	697.38
2113.342	681.38
2117.401	676.38
2121.457	677.38
2125.509	673.38
2129.558	662.38
2133.602	678.38
2137.643	674.38
2141.681	668.38
2145.714	658.38
2149.744	654.38
2153.77	649.38
2157.793	649.38
2161.812	637.38
2165.827	629.38
2169.838	619.38
2173.846	612.38
2177.851	608.38
2181.851	603.38
2185.848	594.38
2189.841	591.38
2193.831	584.38
2197.817	576.38
2201.799	576.38
2205.778	579.38
2209.753	579.38
2213.725	570.38
2217.693	581.38
2221.657	571.38
2225.618	563.38
2229.575	574.38
2233.529	569.38
2237.479	568.38
2241.425	558.38
2245.368	553.38
2249.307	544.38
2253.243	530.38
2257.175	529.38
2261.104	509.38
2265.029	509.38
2268.95	505.38
2272.868	485.38
2276.783	491.38
2280.694	486.38
2284.601	477.38
2288.505	481.38
2292.405	474.38
2296.302	466.38
2300.195	458.38
2304.085	471.38
2307.971	442.38
2311.854	444.38
2315.734	434.38
2319.609	420.38
2323.482	420.38
2327.351	419.38
2331.216	419.38
2335.078	411.38
2338.937	409.38
2342.792	403.38
2346.643	402.38
2350.492	398.38
2354.336	388.38
2358.178	411.38
2362.015	404.38
2365.85	401.38
2369.681	409.38
2373.508	407.38
2377.333	397.38
2381.153	407.38
2384.971	409.38
2388.785	411.38
2392.595	398.38
2396.402	395.38
2400.206	384.38
2404.007	403.38
2407.804	395.38
2411.597	391.38
2415.388	387.38
2419.174	387.38
2422.958	386.38
2426.738	385.38
2430.515	389.38
2434.289	379.38
2438.059	381.38
2441.825	379.38
2445.589	382.38
2449.349	374.38
2453.106	367.38
2456.859	358.38
2460.61	369.38
2464.356	364.38
2468.1	345.38
2471.84	360.38
2475.577	351.38
2479.311	359.38
2483.041	361.38
2486.768	360.38
2490.492	352.38
2494.213	345.38
2497.93	353.38
2501.644	356.38
2505.355	357.38
2509.062	362.38
2512.766	357.38
2516.467	351.38
2520.165	345.38
2523.859	346.38
2527.551	349.38
2531.239	346.38
2534.923	341.38
2538.605	335.38
2542.283	339.38
2545.958	328.38
2549.63	330.38
2553.299	328.38
2556.964	323.38
2560.626	324.38
2564.285	323.38
2567.941	317.38
2571.594	318.38
2575.243	317.38
2578.89	313.38
2582.533	314.38
2586.173	305.38
2589.809	303.38
2593.443	303.38
2597.073	297.38
2600.701	305.38
2604.325	298.38
2607.946	299.38
2611.564	304.38
2615.178	292.38
2618.79	289.38
2622.398	297.38
2626.004	291.38
2629.606	286.38
2633.205	293.38
2636.801	286.38
2640.394	285.38
2643.983	276.38
2647.57	280.38
2651.153	279.38
2654.734	270.38
2658.311	266.38
2661.885	263.38
2665.456	268.38
2669.025	257.38
2672.589	258.38
2676.151	250.38
2679.71	256.38
2683.266	249.38
2686.819	247.38
2690.368	247.38
2693.915	243.38
2697.458	248.38
2700.999	238.38
2704.536	243.38
2708.071	246.38
2711.602	233.38
2715.13	233.38
2718.656	237.38
2722.178	235.38
2725.697	237.38
2729.214	232.38
2732.727	237.38
2736.237	237.38
2739.744	239.38
2743.249	245.38
2746.75	235.38
2750.248	244.38
2753.743	234.38
2757.236	235.38
2760.725	231.38
2764.211	232.38
2767.695	224.38
2771.175	232.38
2774.652	230.38
2778.127	218.38
2781.598	223.38
2785.067	219.38
2788.532	218.38
2791.995	227.38
2795.455	230.38
2798.911	227.38
2802.365	225.38
2805.816	231.38
2809.264	232.38
2812.709	224.38
2816.151	226.38
2819.59	225.38
2823.026	219.38
2826.46	232.38
2829.89	231.38
2833.318	224.38
2836.742	228.38
2840.164	229.38
2843.583	232.38
2846.999	231.38
2850.412	241.38
2853.822	232.38
2857.229	247.38
2860.634	242.38
2864.035	249.38
2867.434	247.38
2870.83	249.38
2874.223	248.38
2877.613	254.38
2881	251.38
2884.385	252.38
2887.766	254.38
2891.145	247.38
2894.521	258.38
2897.894	257.38
2901.264	250.38
2904.631	255.38
2907.996	257.38
2911.358	271.38
2914.717	262.38
2918.073	271.38
2921.426	261.38
2924.777	278.38
2928.124	278.38
2931.469	270.38
2934.811	286.38
2938.15	291.38
2941.487	294.38
2944.821	294.38
2948.152	294.38
2951.48	303.38
2954.805	313.38
2958.128	315.38
2961.447	320.38
2964.765	331.38
2968.079	324.38
2971.39	341.38
2974.699	342.38
2978.005	350.38
2981.308	358.38
2984.609	361.38
2987.907	371.38
2991.202	383.38
2994.494	392.38
2997.784	411.38
3001.07	410.38
3004.355	423.38
3007.636	429.38
3010.915	435.38
3014.191	446.38
3017.464	457.38
3020.734	451.38
3024.002	458.38
3027.267	471.38
3030.53	481.38
3033.789	485.38
3037.046	485.38
3040.301	507.38
3043.552	521.38
3046.801	532.38
3050.048	538.38
3053.291	560.38
3056.532	572.38
3059.771	592.38
3063.006	608.38
3066.239	632.38
3069.469	650.38
3072.697	656.38
3075.922	682.38
3079.144	696.38
3082.364	726.38
3085.581	732.38
3088.795	736.38
3092.007	771.38
3095.216	776.38
3098.423	797.38
3101.627	803.38
3104.828	825.38
3108.026	864.38
3111.222	862.38
3114.416	874.38
3117.607	892.38
3120.795	915.38
3123.98	955.38
3127.163	966.38
3130.344	988.38
3133.521	1016.38
3136.696	1021.38
3139.869	1042.38
3143.039	1076.38
3146.206	1082.38
3149.371	1099.38
3152.533	1103.38
3155.693	1115.38
3158.85	1111.38
3162.005	1129.38
3165.157	1133.38
3168.306	1126.38
3171.453	1143.38
3174.597	1140.38
3177.739	1151.38
3180.878	1155.38
3184.014	1158.38
3187.149	1172.38
3190.28	1158.38
3193.409	1153.38
3196.536	1176.38
3199.659	1167.38
3202.781	1171.38
3205.9	1174.38
3209.016	1176.38
3212.13	1186.38
3215.241	1176.38
3218.35	1162.38
3221.456	1148.38
3224.56	1141.38
3227.661	1130.38
3230.76	1125.38
3233.856	1110.38
3236.95	1105.38
3240.041	1094.38
3243.13	1088.38
3246.216	1067.38
3249.3	1070.38
3252.382	1060.38
3255.46	1061.38
3258.537	1053.38
3261.611	1058.38
3264.682	1045.38
3267.751	1046.38
3270.818	1034.38
3273.882	1027.38
3276.943	1019.38
3280.002	1026.38
3283.059	1024.38
3286.113	1004.38
3289.165	992.38
3292.214	976.38
3295.261	966.38
3298.306	951.38
3301.348	943.38
3304.387	910.38
3307.425	894.38
3310.459	892.38
3313.492	878.38
3316.521	861.38
3319.549	855.38
3322.574	853.38
3325.597	844.38
3328.617	837.38
3331.635	844.38
3334.65	840.38
3337.663	818.38
3340.674	820.38
3343.682	828.38
3346.688	812.38
3349.691	804.38
3352.692	808.38
3355.691	804.38
3358.687	794.38
3361.681	782.38
3364.673	781.38
3367.662	769.38
3370.649	763.38
3373.633	755.38
3376.615	730.38
3379.595	729.38
3382.572	717.38
3385.547	707.38
3388.52	704.38
3391.49	693.38
3394.458	687.38
3397.424	666.38
3400.387	665.38
3403.348	657.38
3406.307	655.38
3409.263	657.38
3412.217	639.38
3415.168	629.38
3418.118	624.38
3421.065	618.38
3424.009	616.38
3426.951	593.38
3429.891	591.38
3432.829	579.38
3435.764	574.38
3438.697	564.38
3441.628	550.38
3444.557	533.38
3447.483	531.38
3450.407	498.38
3453.328	485.38
3456.247	478.38
3459.164	463.38
3462.079	432.38
3464.991	439.38
3467.902	416.38
3470.809	412.38
3473.715	402.38
3476.618	380.38
3479.519	374.38
3482.418	358.38
3485.315	352.38
3488.209	338.38
3491.101	336.38
3493.99	328.38
3496.878	311.38
3499.763	298.38
3502.646	293.38
3505.527	287.38
3508.405	277.38
3511.281	266.38
3514.155	254.38
3517.027	244.38
3519.897	229.38
3522.764	212.38
3525.629	203.38
3528.492	196.38
3531.352	183.38
3534.211	170.38
3537.067	161.38
3539.921	149.38
3542.773	144.38
3545.622	133.38
3548.469	127.38
3551.315	113.38
3554.157	111.38
3556.998	102.38
3559.837	101.38
3562.673	95.38
3565.507	78.38
3568.339	78.38
3571.169	74.38
3573.996	68.38
3576.822	62.38
3579.645	58.38
3582.466	50.38
3585.285	45.38
3588.101	43.38
3590.916	31.38
3593.728	40.38
3596.538	27.38
3599.346	27.38
3602.152	16.38
3604.956	9.38
3607.757	9.38
3610.556	5.38
3613.354	3.38
3616.149	0.38
3618.942	-2.62
3621.732	-8.62
3624.521	-6.62
3627.307	-14.62
3630.092	-17.62
3632.874	-22.62
3635.654	-26.62
3638.432	-25.62
3641.208	-27.62
3643.982	-32.62
3646.753	-34.62
3649.523	-41.62
3652.29	-40.62
3655.055	-42.62
3657.818	-41.62
3660.579	-46.62
3663.338	-51.62
3666.095	-52.62
3668.849	-56.62
3671.602	-54.62
3674.352	-57.62
3677.101	-59.62
3679.847	-63.62
3682.591	-62.62
3685.333	-63.62
3688.073	-63.62
3690.811	-66.62
3693.547	-68.62
3696.281	-72.62
3699.013	-73.62
3701.742	-71.62
3704.47	-77.62
3707.195	-77.62
3709.919	-77.62
3712.64	-80.62
3715.359	-79.62
3718.076	-85.62
3720.792	-83.62
3723.505	-83.62
3726.216	-84.62
3728.925	-82.62
3731.632	-87.62
3734.336	-90.62
3737.039	-93.62
3739.74	-92.62
3742.439	-89.62
3745.136	-88.62
3747.83	-87.62
3750.523	-89.62
3753.213	-86.62
3755.902	-84.62
3758.589	-88.62
3761.273	-89.62
3763.956	-88.62
3766.636	-94.62
3769.315	-96.62
3771.991	-94.62
3774.665	-90.62
3777.338	-92.62
3780.008	-92.62
3782.677	-92.62
3785.343	-94.62
3788.007	-94.62
3790.67	-94.62
3793.33	-97.62
3795.989	-96.62
3798.645	-96.62
3801.299	-102.62
3803.952	-98.62
3806.602	-98.62
3809.251	-98.62
3811.897	-101.62
3814.542	-106.62
3817.184	-100.62
3819.825	-99.62
3822.463	-97.62
3825.1	-100.62
3827.735	-101.62
3830.367	-100.62
3832.998	-100.62
3835.627	-101.62
3838.253	-98.62
3840.878	-101.62
3843.501	-103.62
3846.122	-102.62
3848.741	-100.62
3851.358	-101.62
3853.973	-100.62
3856.586	-103.62
3859.197	-104.62
3861.806	-107.62
3864.414	-105.62
3867.019	-107.62
3869.622	-106.62
3872.224	-106.62
3874.823	-102.62
3877.421	-95.62
3880.016	-99.62
3882.61	-93.62
3885.202	-96.62
3887.792	-95.62
3890.38	-102.62
3892.966	-100.62
3895.55	-104.62
3898.132	-107.62
3900.713	-107.62
3903.291	-102.62
3905.868	-105.62
3908.442	-104.62
3911.015	-104.62
3913.586	-105.62
3916.155	-101.62
3918.722	-108.62
3921.287	-106.62
3923.85	-104.62
3926.411	-104.62
3928.971	-108.62
3931.528	-107.62
3934.084	-111.62
3936.638	-110.62
3939.19	-105.62
3941.74	-104.62
3944.288	-106.62
3946.834	-109.62
3949.378	-106.62
3951.921	-110.62
3954.462	-106.62
3957	-108.62
3959.537	-110.62
3962.072	-106.62
3964.606	-107.62
3967.137	-103.62
3969.667	-106.62
3972.194	-103.62
3974.72	-105.62
3977.244	-102.62
3979.766	-106.62
3982.286	-103.62
3984.805	-108.62
3987.321	-108.62
3989.836	-106.62
3992.349	-107.62
3994.86	-105.62
3997.369	-111.62
3999.877	-106.62
4002.382	-105.62
4004.886	-107.62
4007.388	-106.62
4009.888	-106.62
4012.386	-109.62
4014.883	-108.62
4017.377	-107.62
4019.87	-109.62
4022.361	-110.62
4024.85	-104.62
4027.338	-107.62
4029.823	-110.62
4032.307	-110.62
4034.789	-106.62
4037.269	-106.62
4039.747	-107.62
4042.224	-101.62
4044.699	-106.62
4047.172	-108.62
4049.643	-103.62
4052.112	-109.62
4054.58	-110.62
4057.046	-112.62
4059.51	-106.62
4061.972	-107.62
4064.432	-109.62
4066.891	-107.62
4069.348	-105.62
4071.803	-107.62
4074.256	-107.62
4076.708	-108.62
4079.158	-109.62
4081.606	-109.62
4084.052	-106.62
4086.497	-105.62
4088.939	-104.62
4091.38	-111.62
4093.819	-108.62
4096.257	-110.62
4098.693	-110.62
4101.127	-111.62
4103.559	-108.62
4105.989	-68.62
4108.418	-65.62
4110.845	-62.62
4113.27	-57.62
4115.694	-53.62
4118.115	-48.62
4120.535	-107.62
4122.954	-104.62
4125.37	-104.62
4127.785	-104.62
4130.198	-104.62
4132.609	-104.62
4135.019	-109.62
4137.427	-114.62
4139.833	-115.62
4142.237	-111.62
