Data from 100000CFU1_A_RamanShift_1.txt Node
Date: Thu Jan 26 11:02:18 IST 2017
User: aro
Spectrometer: QEPB0276
Trigger mode: 0
Integration Time (sec): 5.000000E0
Scans to average: 1
Electric dark correction enabled: true
Nonlinearity correction enabled: false
Boxcar width: 0
XAxis mode: Raman Shifts
Number of Pixels in Spectrum: 1044
>>>>>Begin Spectral Data<<<<<
160.701	-38.12
166.742	-3.12
172.777	99.88
178.805	434.88
184.826	1174.88
190.841	2369.88
196.849	3627.88
202.85	4394.88
208.845	4527.88
214.833	4360.88
220.815	4216.88
226.789	4096.88
232.758	3966.88
238.719	3853.88
244.674	3704.88
250.623	3526.88
256.565	3371.88
262.5	3220.88
268.429	3073.88
274.351	2946.88
280.267	2844.88
286.176	2735.88
292.079	2641.88
297.975	2544.88
303.865	2473.88
309.748	2420.88
315.625	2375.88
321.495	2301.88
327.359	2275.88
333.217	2257.88
339.068	2229.88
344.912	2203.88
350.751	2220.88
356.583	2197.88
362.408	2198.88
368.227	2207.88
374.04	2209.88
379.847	2209.88
385.647	2225.88
391.44	2247.88
397.228	2263.88
403.009	2277.88
408.784	2259.88
414.553	2301.88
420.315	2274.88
426.071	2285.88
431.821	2287.88
437.565	2270.88
443.302	2272.88
449.033	2276.88
454.758	2274.88
460.477	2263.88
466.189	2237.88
471.896	2221.88
477.596	2197.88
483.29	2211.88
488.978	2177.88
494.66	2168.88
500.335	2144.88
506.005	2113.88
511.668	2083.88
517.325	2024.88
522.977	2010.88
528.622	1954.88
534.261	1948.88
539.894	1944.88
545.521	1908.88
551.141	1894.88
556.756	1904.88
562.365	1892.88
567.968	1853.88
573.565	1856.88
579.155	1843.88
584.74	1827.88
590.319	1814.88
595.892	1800.88
601.459	1774.88
607.02	1772.88
612.575	1748.88
618.124	1746.88
623.667	1727.88
629.204	1703.88
634.735	1704.88
640.261	1698.88
645.781	1666.88
651.294	1654.88
656.802	1656.88
662.304	1633.88
667.8	1646.88
673.29	1637.88
678.775	1635.88
684.254	1619.88
689.726	1618.88
695.193	1621.88
700.655	1611.88
706.11	1574.88
711.56	1580.88
717.004	1569.88
722.442	1532.88
727.874	1531.88
733.301	1536.88
738.722	1533.88
744.137	1535.88
749.547	1514.88
754.951	1515.88
760.349	1509.88
765.741	1489.88
771.128	1503.88
776.509	1510.88
781.885	1496.88
787.254	1499.88
792.618	1520.88
797.977	1486.88
803.33	1464.88
808.677	1458.88
814.019	1438.88
819.355	1418.88
824.686	1403.88
830.011	1398.88
835.33	1399.88
840.644	1392.88
845.952	1392.88
851.255	1381.88
856.552	1381.88
861.844	1363.88
867.13	1352.88
872.41	1356.88
877.686	1339.88
882.955	1315.88
888.219	1305.88
893.478	1281.88
898.731	1265.88
903.979	1244.88
909.221	1220.88
914.458	1225.88
919.69	1209.88
924.916	1204.88
930.136	1205.88
935.351	1199.88
940.561	1211.88
945.766	1196.88
950.965	1183.88
956.158	1172.88
961.347	1159.88
966.529	1147.88
971.707	1119.88
976.879	1110.88
982.046	1095.88
987.208	1102.88
992.364	1108.88
997.515	1124.88
1002.66	1107.88
1007.801	1116.88
1012.936	1126.88
1018.066	1136.88
1023.19	1135.88
1028.309	1158.88
1033.423	1156.88
1038.532	1132.88
1043.636	1122.88
1048.734	1118.88
1053.827	1115.88
1058.915	1095.88
1063.998	1101.88
1069.075	1079.88
1074.147	1074.88
1079.214	1104.88
1084.276	1101.88
1089.333	1117.88
1094.385	1119.88
1099.431	1111.88
1104.472	1113.88
1109.509	1111.88
1114.54	1106.88
1119.565	1095.88
1124.586	1073.88
1129.602	1056.88
1134.613	1064.88
1139.618	1064.88
1144.619	1066.88
1149.614	1068.88
1154.604	1082.88
1159.589	1083.88
1164.57	1089.88
1169.545	1095.88
1174.515	1088.88
1179.48	1078.88
1184.44	1088.88
1189.395	1059.88
1194.345	1063.88
1199.29	1065.88
1204.23	1051.88
1209.165	1062.88
1214.095	1061.88
1219.021	1074.88
1223.941	1085.88
1228.856	1098.88
1233.766	1106.88
1238.672	1097.88
1243.572	1091.88
1248.467	1107.88
1253.358	1083.88
1258.244	1054.88
1263.124	1046.88
1268	1021.88
1272.871	1012.88
1277.737	1026.88
1282.599	1013.88
1287.455	1021.88
1292.306	1021.88
1297.153	1027.88
1301.995	1040.88
1306.832	1047.88
1311.664	1056.88
1316.491	1049.88
1321.314	1042.88
1326.132	1036.88
1330.945	1040.88
1335.753	1010.88
1340.556	997.88
1345.354	979.88
1350.148	962.88
1354.937	963.88
1359.722	964.88
1364.501	951.88
1369.276	935.88
1374.046	935.88
1378.811	942.88
1383.572	939.88
1388.327	948.88
1393.079	939.88
1397.825	912.88
1402.567	912.88
1407.304	901.88
1412.036	907.88
1416.764	904.88
1421.487	907.88
1426.205	906.88
1430.919	916.88
1435.628	930.88
1440.333	956.88
1445.032	948.88
1449.727	954.88
1454.418	959.88
1459.104	961.88
1463.785	953.88
1468.462	937.88
1473.134	926.88
1477.802	917.88
1482.465	921.88
1487.123	906.88
1491.777	921.88
1496.426	925.88
1501.071	919.88
1505.711	935.88
1510.347	962.88
1514.978	958.88
1519.604	964.88
1524.226	967.88
1528.844	974.88
1533.457	976.88
1538.065	968.88
1542.669	958.88
1547.269	975.88
1551.864	962.88
1556.454	982.88
1561.041	989.88
1565.622	1007.88
1570.199	1003.88
1574.772	1032.88
1579.34	1039.88
1583.904	1056.88
1588.464	1083.88
1593.019	1102.88
1597.569	1114.88
1602.115	1147.88
1606.657	1146.88
1611.195	1157.88
1615.728	1162.88
1620.256	1180.88
1624.78	1208.88
1629.3	1226.88
1633.816	1243.88
1638.327	1252.88
1642.834	1268.88
1647.336	1273.88
1651.834	1281.88
1656.328	1281.88
1660.817	1260.88
1665.302	1242.88
1669.783	1221.88
1674.259	1178.88
1678.732	1155.88
1683.199	1095.88
1687.663	1052.88
1692.122	1019.88
1696.577	980.88
1701.028	944.88
1705.474	892.88
1709.917	856.88
1714.355	861.88
1718.788	844.88
1723.218	824.88
1727.643	803.88
1732.064	794.88
1736.481	771.88
1740.893	743.88
1745.301	722.88
1749.705	710.88
1754.105	688.88
1758.501	670.88
1762.893	659.88
1767.28	643.88
1771.663	643.88
1776.042	646.88
1780.417	637.88
1784.787	644.88
1789.154	633.88
1793.516	643.88
1797.874	644.88
1802.228	637.88
1806.578	603.88
1810.924	610.88
1815.266	592.88
1819.603	599.88
1823.937	583.88
1828.266	580.88
1832.591	573.88
1836.913	570.88
1841.23	586.88
1845.543	581.88
1849.852	572.88
1854.156	585.88
1858.457	583.88
1862.754	588.88
1867.047	576.88
1871.335	581.88
1875.62	588.88
1879.9	590.88
1884.177	592.88
1888.449	588.88
1892.718	584.88
1896.982	578.88
1901.243	573.88
1905.499	577.88
1909.752	582.88
1914	567.88
1918.245	575.88
1922.485	567.88
1926.722	578.88
1930.954	570.88
1935.183	586.88
1939.408	590.88
1943.628	591.88
1947.845	582.88
1952.058	588.88
1956.267	579.88
1960.472	570.88
1964.673	571.88
1968.87	555.88
1973.063	554.88
1977.252	559.88
1981.438	554.88
1985.619	557.88
1989.797	549.88
1993.971	551.88
1998.14	564.88
2002.306	573.88
2006.469	560.88
2010.627	559.88
2014.781	566.88
2018.932	563.88
2023.078	566.88
2027.221	560.88
2031.36	565.88
2035.495	553.88
2039.627	537.88
2043.754	546.88
2047.878	552.88
2051.998	551.88
2056.114	553.88
2060.226	548.88
2064.334	552.88
2068.439	549.88
2072.54	565.88
2076.637	559.88
2080.73	560.88
2084.82	560.88
2088.906	569.88
2092.988	557.88
2097.066	563.88
2101.14	549.88
2105.211	556.88
2109.278	553.88
2113.342	552.88
2117.401	538.88
2121.457	546.88
2125.509	548.88
2129.558	532.88
2133.602	525.88
2137.643	523.88
2141.681	530.88
2145.714	530.88
2149.744	524.88
2153.77	527.88
2157.793	519.88
2161.812	514.88
2165.827	508.88
2169.838	504.88
2173.846	497.88
2177.851	482.88
2181.851	479.88
2185.848	474.88
2189.841	474.88
2193.831	464.88
2197.817	465.88
2201.799	460.88
2205.778	457.88
2209.753	465.88
2213.725	455.88
2217.693	455.88
2221.657	449.88
2225.618	449.88
2229.575	445.88
2233.529	442.88
2237.479	441.88
2241.425	434.88
2245.368	433.88
2249.307	425.88
2253.243	422.88
2257.175	412.88
2261.104	406.88
2265.029	392.88
2268.95	398.88
2272.868	391.88
2276.783	384.88
2280.694	379.88
2284.601	371.88
2288.505	370.88
2292.405	363.88
2296.302	358.88
2300.195	360.88
2304.085	348.88
2307.971	338.88
2311.854	338.88
2315.734	328.88
2319.609	331.88
2323.482	321.88
2327.351	315.88
2331.216	324.88
2335.078	312.88
2338.937	318.88
2342.792	310.88
2346.643	309.88
2350.492	318.88
2354.336	315.88
2358.178	320.88
2362.015	311.88
2365.85	309.88
2369.681	309.88
2373.508	302.88
2377.333	310.88
2381.153	313.88
2384.971	303.88
2388.785	306.88
2392.595	292.88
2396.402	299.88
2400.206	306.88
2404.007	292.88
2407.804	304.88
2411.597	296.88
2415.388	294.88
2419.174	291.88
2422.958	291.88
2426.738	290.88
2430.515	294.88
2434.289	294.88
2438.059	286.88
2441.825	284.88
2445.589	288.88
2449.349	282.88
2453.106	273.88
2456.859	271.88
2460.61	269.88
2464.356	266.88
2468.1	267.88
2471.84	262.88
2475.577	260.88
2479.311	264.88
2483.041	260.88
2486.768	269.88
2490.492	262.88
2494.213	254.88
2497.93	255.88
2501.644	259.88
2505.355	253.88
2509.062	260.88
2512.766	257.88
2516.467	260.88
2520.165	259.88
2523.859	253.88
2527.551	255.88
2531.239	255.88
2534.923	246.88
2538.605	249.88
2542.283	227.88
2545.958	244.88
2549.63	239.88
2553.299	241.88
2556.964	238.88
2560.626	229.88
2564.285	233.88
2567.941	231.88
2571.594	235.88
2575.243	229.88
2578.89	223.88
2582.533	221.88
2586.173	215.88
2589.809	215.88
2593.443	220.88
2597.073	211.88
2600.701	215.88
2604.325	209.88
2607.946	222.88
2611.564	215.88
2615.178	211.88
2618.79	212.88
2622.398	204.88
2626.004	204.88
2629.606	215.88
2633.205	194.88
2636.801	201.88
2640.394	195.88
2643.983	188.88
2647.57	197.88
2651.153	189.88
2654.734	190.88
2658.311	187.88
2661.885	187.88
2665.456	185.88
2669.025	186.88
2672.589	180.88
2676.151	179.88
2679.71	172.88
2683.266	186.88
2686.819	179.88
2690.368	179.88
2693.915	171.88
2697.458	174.88
2700.999	170.88
2704.536	167.88
2708.071	165.88
2711.602	167.88
2715.13	160.88
2718.656	161.88
2722.178	159.88
2725.697	157.88
2729.214	157.88
2732.727	172.88
2736.237	159.88
2739.744	169.88
2743.249	162.88
2746.75	166.88
2750.248	162.88
2753.743	161.88
2757.236	155.88
2760.725	166.88
2764.211	163.88
2767.695	160.88
2771.175	161.88
2774.652	155.88
2778.127	164.88
2781.598	160.88
2785.067	157.88
2788.532	152.88
2791.995	159.88
2795.455	169.88
2798.911	157.88
2802.365	167.88
2805.816	166.88
2809.264	159.88
2812.709	165.88
2816.151	163.88
2819.59	158.88
2823.026	164.88
2826.46	169.88
2829.89	166.88
2833.318	176.88
2836.742	171.88
2840.164	176.88
2843.583	174.88
2846.999	180.88
2850.412	168.88
2853.822	179.88
2857.229	185.88
2860.634	183.88
2864.035	187.88
2867.434	192.88
2870.83	200.88
2874.223	194.88
2877.613	195.88
2881	199.88
2884.385	203.88
2887.766	202.88
2891.145	196.88
2894.521	200.88
2897.894	207.88
2901.264	208.88
2904.631	208.88
2907.996	208.88
2911.358	211.88
2914.717	215.88
2918.073	219.88
2921.426	228.88
2924.777	226.88
2928.124	230.88
2931.469	240.88
2934.811	246.88
2938.15	252.88
2941.487	242.88
2944.821	257.88
2948.152	263.88
2951.48	266.88
2954.805	266.88
2958.128	274.88
2961.447	277.88
2964.765	281.88
2968.079	286.88
2971.39	293.88
2974.699	297.88
2978.005	309.88
2981.308	309.88
2984.609	332.88
2987.907	329.88
2991.202	341.88
2994.494	359.88
2997.784	372.88
3001.07	382.88
3004.355	385.88
3007.636	395.88
3010.915	402.88
3014.191	415.88
3017.464	419.88
3020.734	424.88
3024.002	435.88
3027.267	448.88
3030.53	451.88
3033.789	475.88
3037.046	478.88
3040.301	490.88
3043.552	504.88
3046.801	517.88
3050.048	543.88
3053.291	553.88
3056.532	561.88
3059.771	573.88
3063.006	605.88
3066.239	612.88
3069.469	629.88
3072.697	651.88
3075.922	664.88
3079.144	684.88
3082.364	708.88
3085.581	715.88
3088.795	744.88
3092.007	763.88
3095.216	772.88
3098.423	783.88
3101.627	816.88
3104.828	823.88
3108.026	837.88
3111.222	851.88
3114.416	885.88
3117.607	897.88
3120.795	915.88
3123.98	955.88
3127.163	966.88
3130.344	1000.88
3133.521	1020.88
3136.696	1040.88
3139.869	1050.88
3143.039	1068.88
3146.206	1093.88
3149.371	1097.88
3152.533	1110.88
3155.693	1108.88
3158.85	1124.88
3162.005	1126.88
3165.157	1160.88
3168.306	1149.88
3171.453	1161.88
3174.597	1156.88
3177.739	1172.88
3180.878	1161.88
3184.014	1177.88
3187.149	1176.88
3190.28	1177.88
3193.409	1184.88
3196.536	1178.88
3199.659	1187.88
3202.781	1196.88
3205.9	1201.88
3209.016	1196.88
3212.13	1185.88
3215.241	1200.88
3218.35	1174.88
3221.456	1176.88
3224.56	1168.88
3227.661	1146.88
3230.76	1126.88
3233.856	1132.88
3236.95	1104.88
3240.041	1115.88
3243.13	1080.88
3246.216	1094.88
3249.3	1093.88
3252.382	1081.88
3255.46	1060.88
3258.537	1073.88
3261.611	1055.88
3264.682	1068.88
3267.751	1066.88
3270.818	1058.88
3273.882	1056.88
3276.943	1024.88
3280.002	1034.88
3283.059	1026.88
3286.113	1007.88
3289.165	1005.88
3292.214	993.88
3295.261	967.88
3298.306	953.88
3301.348	944.88
3304.387	922.88
3307.425	911.88
3310.459	905.88
3313.492	884.88
3316.521	887.88
3319.549	864.88
3322.574	879.88
3325.597	876.88
3328.617	852.88
3331.635	854.88
3334.65	855.88
3337.663	846.88
3340.674	839.88
3343.682	838.88
3346.688	835.88
3349.691	824.88
3352.692	822.88
3355.691	813.88
3358.687	803.88
3361.681	799.88
3364.673	782.88
3367.662	784.88
3370.649	782.88
3373.633	760.88
3376.615	749.88
3379.595	730.88
3382.572	730.88
3385.547	719.88
3388.52	700.88
3391.49	696.88
3394.458	698.88
3397.424	683.88
3400.387	676.88
3403.348	665.88
3406.307	652.88
3409.263	647.88
3412.217	655.88
3415.168	648.88
3418.118	639.88
3421.065	624.88
3424.009	622.88
3426.951	609.88
3429.891	593.88
3432.829	585.88
3435.764	571.88
3438.697	559.88
3441.628	557.88
3444.557	535.88
3447.483	505.88
3450.407	504.88
3453.328	494.88
3456.247	480.88
3459.164	457.88
3462.079	438.88
3464.991	429.88
3467.902	427.88
3470.809	400.88
3473.715	400.88
3476.618	386.88
3479.519	374.88
3482.418	360.88
3485.315	358.88
3488.209	337.88
3491.101	327.88
3493.99	314.88
3496.878	309.88
3499.763	297.88
3502.646	284.88
3505.527	276.88
3508.405	269.88
3511.281	250.88
3514.155	246.88
3517.027	225.88
3519.897	213.88
3522.764	210.88
3525.629	190.88
3528.492	186.88
3531.352	171.88
3534.211	158.88
3537.067	151.88
3539.921	147.88
3542.773	136.88
3545.622	125.88
3548.469	125.88
3551.315	110.88
3554.157	103.88
3556.998	94.88
3559.837	89.88
3562.673	88.88
3565.507	77.88
3568.339	68.88
3571.169	64.88
3573.996	54.88
3576.822	53.88
3579.645	42.88
3582.466	42.88
3585.285	36.88
3588.101	35.88
3590.916	22.88
3593.728	24.88
3596.538	12.88
3599.346	7.88
3602.152	6.88
3604.956	-3.12
3607.757	-0.12
3610.556	-8.12
3613.354	-8.12
3616.149	-13.12
3618.942	-11.12
3621.732	-15.12
3624.521	-23.12
3627.307	-27.12
3630.092	-33.12
3632.874	-32.12
3635.654	-36.12
3638.432	-39.12
3641.208	-42.12
3643.982	-40.12
3646.753	-45.12
3649.523	-51.12
3652.29	-52.12
3655.055	-53.12
3657.818	-53.12
3660.579	-59.12
3663.338	-60.12
3666.095	-63.12
3668.849	-68.12
3671.602	-66.12
3674.352	-68.12
3677.101	-66.12
3679.847	-75.12
3682.591	-71.12
3685.333	-76.12
3688.073	-76.12
3690.811	-81.12
3693.547	-81.12
3696.281	-88.12
3699.013	-88.12
3701.742	-90.12
3704.47	-88.12
3707.195	-87.12
3709.919	-90.12
3712.64	-94.12
3715.359	-91.12
3718.076	-95.12
3720.792	-94.12
3723.505	-97.12
3726.216	-96.12
3728.925	-97.12
3731.632	-102.12
3734.336	-100.12
3737.039	-100.12
3739.74	-100.12
3742.439	-101.12
3745.136	-100.12
3747.83	-101.12
3750.523	-99.12
3753.213	-99.12
3755.902	-97.12
3758.589	-99.12
3761.273	-104.12
3763.956	-108.12
3766.636	-107.12
3769.315	-106.12
3771.991	-109.12
3774.665	-105.12
3777.338	-110.12
3780.008	-107.12
3782.677	-109.12
3785.343	-106.12
3788.007	-112.12
3790.67	-103.12
3793.33	-109.12
3795.989	-105.12
3798.645	-108.12
3801.299	-107.12
3803.952	-110.12
3806.602	-107.12
3809.251	-106.12
3811.897	-110.12
3814.542	-112.12
3817.184	-108.12
3819.825	-108.12
3822.463	-109.12
3825.1	-113.12
3827.735	-113.12
3830.367	-115.12
3832.998	-115.12
3835.627	-117.12
3838.253	-115.12
3840.878	-116.12
3843.501	-116.12
3846.122	-115.12
3848.741	-112.12
3851.358	-113.12
3853.973	-109.12
3856.586	-115.12
3859.197	-116.12
3861.806	-116.12
3864.414	-116.12
3867.019	-118.12
3869.622	-116.12
3872.224	-110.12
3874.823	-113.12
3877.421	-105.12
3880.016	-107.12
3882.61	-102.12
3885.202	-103.12
3887.792	-108.12
3890.38	-112.12
3892.966	-115.12
3895.55	-117.12
3898.132	-123.12
3900.713	-118.12
3903.291	-117.12
3905.868	-116.12
3908.442	-116.12
3911.015	-115.12
3913.586	-116.12
3916.155	-113.12
3918.722	-118.12
3921.287	-116.12
3923.85	-116.12
3926.411	-112.12
3928.971	-121.12
3931.528	-119.12
3934.084	-118.12
3936.638	-119.12
3939.19	-118.12
3941.74	-117.12
3944.288	-119.12
3946.834	-120.12
3949.378	-121.12
3951.921	-119.12
3954.462	-120.12
3957	-120.12
3959.537	-125.12
3962.072	-122.12
3964.606	-120.12
3967.137	-119.12
3969.667	-117.12
3972.194	-116.12
3974.72	-112.12
3977.244	-115.12
3979.766	-115.12
3982.286	-116.12
3984.805	-120.12
3987.321	-116.12
3989.836	-117.12
3992.349	-117.12
3994.86	-117.12
3997.369	-123.12
3999.877	-115.12
4002.382	-116.12
4004.886	-118.12
4007.388	-121.12
4009.888	-118.12
4012.386	-117.12
4014.883	-120.12
4017.377	-116.12
4019.87	-122.12
4022.361	-119.12
4024.85	-120.12
4027.338	-117.12
4029.823	-119.12
4032.307	-120.12
4034.789	-120.12
4037.269	-118.12
4039.747	-118.12
4042.224	-112.12
4044.699	-116.12
4047.172	-116.12
4049.643	-116.12
4052.112	-120.12
4054.58	-120.12
4057.046	-120.12
4059.51	-118.12
4061.972	-119.12
4064.432	-122.12
4066.891	-118.12
4069.348	-117.12
4071.803	-115.12
4074.256	-118.12
4076.708	-120.12
4079.158	-122.12
4081.606	-120.12
4084.052	-121.12
4086.497	-118.12
4088.939	-116.12
4091.38	-119.12
4093.819	-120.12
4096.257	-123.12
4098.693	-125.12
4101.127	-126.12
4103.559	-123.12
4105.989	-80.12
4108.418	-75.12
4110.845	-74.12
4113.27	-67.12
4115.694	-64.12
4118.115	-60.12
4120.535	-120.12
4122.954	-116.12
4125.37	-117.12
4127.785	-115.12
4130.198	-114.12
4132.609	-115.12
4135.019	-123.12
4137.427	-122.12
4139.833	-124.12
4142.237	-124.12
