Data from 100CFU1_B_RamanShift_1.txt Node
Date: Thu Jan 26 11:26:38 IST 2017
User: aro
Spectrometer: QEPB0276
Trigger mode: 0
Integration Time (sec): 5.000000E0
Scans to average: 1
Electric dark correction enabled: true
Nonlinearity correction enabled: false
Boxcar width: 0
XAxis mode: Raman Shifts
Number of Pixels in Spectrum: 1044
>>>>>Begin Spectral Data<<<<<
160.701	-32.5
166.742	-4.5
172.777	100.5
178.805	407.5
184.826	1131.5
190.841	2307.5
196.849	3557.5
202.85	4345.5
208.845	4527.5
214.833	4363.5
220.815	4209.5
226.789	4093.5
232.758	3967.5
238.719	3827.5
244.674	3708.5
250.623	3548.5
256.565	3395.5
262.5	3210.5
268.429	3108.5
274.351	2964.5
280.267	2851.5
286.176	2757.5
292.079	2659.5
297.975	2572.5
303.865	2490.5
309.748	2435.5
315.625	2370.5
321.495	2308.5
327.359	2283.5
333.217	2264.5
339.068	2239.5
344.912	2228.5
350.751	2222.5
356.583	2205.5
362.408	2200.5
368.227	2217.5
374.04	2211.5
379.847	2223.5
385.647	2250.5
391.44	2258.5
397.228	2266.5
403.009	2274.5
408.784	2292.5
414.553	2292.5
420.315	2294.5
426.071	2310.5
431.821	2286.5
437.565	2298.5
443.302	2287.5
449.033	2278.5
454.758	2265.5
460.477	2277.5
466.189	2254.5
471.896	2251.5
477.596	2211.5
483.29	2226.5
488.978	2185.5
494.66	2196.5
500.335	2167.5
506.005	2117.5
511.668	2074.5
517.325	2062.5
522.977	2020.5
528.622	2012.5
534.261	1970.5
539.894	1947.5
545.521	1918.5
551.141	1896.5
556.756	1907.5
562.365	1872.5
567.968	1860.5
573.565	1869.5
579.155	1872.5
584.74	1849.5
590.319	1817.5
595.892	1822.5
601.459	1820.5
607.02	1797.5
612.575	1775.5
618.124	1764.5
623.667	1721.5
629.204	1730.5
634.735	1711.5
640.261	1687.5
645.781	1677.5
651.294	1680.5
656.802	1680.5
662.304	1656.5
667.8	1653.5
673.29	1647.5
678.775	1650.5
684.254	1620.5
689.726	1633.5
695.193	1603.5
700.655	1614.5
706.11	1598.5
711.56	1591.5
717.004	1575.5
722.442	1568.5
727.874	1547.5
733.301	1551.5
738.722	1544.5
744.137	1530.5
749.547	1541.5
754.951	1523.5
760.349	1521.5
765.741	1507.5
771.128	1517.5
776.509	1521.5
781.885	1513.5
787.254	1527.5
792.618	1511.5
797.977	1498.5
803.33	1487.5
808.677	1492.5
814.019	1453.5
819.355	1453.5
824.686	1451.5
830.011	1427.5
835.33	1409.5
840.644	1411.5
845.952	1395.5
851.255	1397.5
856.552	1381.5
861.844	1390.5
867.13	1368.5
872.41	1362.5
877.686	1355.5
882.955	1318.5
888.219	1320.5
893.478	1274.5
898.731	1279.5
903.979	1247.5
909.221	1238.5
914.458	1232.5
919.69	1232.5
924.916	1217.5
930.136	1213.5
935.351	1211.5
940.561	1225.5
945.766	1212.5
950.965	1219.5
956.158	1197.5
961.347	1181.5
966.529	1170.5
971.707	1149.5
976.879	1143.5
982.046	1121.5
987.208	1113.5
992.364	1112.5
997.515	1132.5
1002.66	1121.5
1007.801	1148.5
1012.936	1145.5
1018.066	1163.5
1023.19	1175.5
1028.309	1162.5
1033.423	1160.5
1038.532	1153.5
1043.636	1149.5
1048.734	1135.5
1053.827	1132.5
1058.915	1101.5
1063.998	1112.5
1069.075	1093.5
1074.147	1105.5
1079.214	1109.5
1084.276	1117.5
1089.333	1135.5
1094.385	1137.5
1099.431	1142.5
1104.472	1139.5
1109.509	1145.5
1114.54	1113.5
1119.565	1101.5
1124.586	1091.5
1129.602	1084.5
1134.613	1090.5
1139.618	1098.5
1144.619	1084.5
1149.614	1069.5
1154.604	1093.5
1159.589	1099.5
1164.57	1099.5
1169.545	1109.5
1174.515	1098.5
1179.48	1092.5
1184.44	1090.5
1189.395	1083.5
1194.345	1066.5
1199.29	1078.5
1204.23	1073.5
1209.165	1095.5
1214.095	1098.5
1219.021	1095.5
1223.941	1107.5
1228.856	1115.5
1233.766	1114.5
1238.672	1124.5
1243.572	1112.5
1248.467	1123.5
1253.358	1110.5
1258.244	1084.5
1263.124	1068.5
1268	1029.5
1272.871	1051.5
1277.737	1036.5
1282.599	1032.5
1287.455	1032.5
1292.306	1038.5
1297.153	1047.5
1301.995	1059.5
1306.832	1057.5
1311.664	1060.5
1316.491	1048.5
1321.314	1048.5
1326.132	1049.5
1330.945	1043.5
1335.753	1021.5
1340.556	1000.5
1345.354	1003.5
1350.148	993.5
1354.937	978.5
1359.722	990.5
1364.501	964.5
1369.276	949.5
1374.046	958.5
1378.811	944.5
1383.572	959.5
1388.327	938.5
1393.079	930.5
1397.825	929.5
1402.567	916.5
1407.304	931.5
1412.036	924.5
1416.764	922.5
1421.487	931.5
1426.205	910.5
1430.919	944.5
1435.628	948.5
1440.333	957.5
1445.032	970.5
1449.727	961.5
1454.418	977.5
1459.104	971.5
1463.785	960.5
1468.462	956.5
1473.134	945.5
1477.802	946.5
1482.465	932.5
1487.123	940.5
1491.777	933.5
1496.426	948.5
1501.071	959.5
1505.711	970.5
1510.347	975.5
1514.978	992.5
1519.604	992.5
1524.226	992.5
1528.844	1003.5
1533.457	995.5
1538.065	995.5
1542.669	992.5
1547.269	984.5
1551.864	984.5
1556.454	1003.5
1561.041	994.5
1565.622	1007.5
1570.199	1013.5
1574.772	1044.5
1579.34	1063.5
1583.904	1091.5
1588.464	1109.5
1593.019	1137.5
1597.569	1135.5
1602.115	1151.5
1606.657	1178.5
1611.195	1171.5
1615.728	1191.5
1620.256	1201.5
1624.78	1230.5
1629.3	1247.5
1633.816	1261.5
1638.327	1267.5
1642.834	1294.5
1647.336	1317.5
1651.834	1302.5
1656.328	1299.5
1660.817	1306.5
1665.302	1276.5
1669.783	1257.5
1674.259	1199.5
1678.732	1184.5
1683.199	1142.5
1687.663	1110.5
1692.122	1056.5
1696.577	1017.5
1701.028	976.5
1705.474	927.5
1709.917	892.5
1714.355	876.5
1718.788	875.5
1723.218	852.5
1727.643	829.5
1732.064	812.5
1736.481	799.5
1740.893	762.5
1745.301	757.5
1749.705	744.5
1754.105	716.5
1758.501	692.5
1762.893	676.5
1767.28	680.5
1771.663	679.5
1776.042	670.5
1780.417	678.5
1784.787	658.5
1789.154	675.5
1793.516	668.5
1797.874	667.5
1802.228	656.5
1806.578	642.5
1810.924	631.5
1815.266	625.5
1819.603	616.5
1823.937	601.5
1828.266	618.5
1832.591	588.5
1836.913	595.5
1841.23	593.5
1845.543	581.5
1849.852	595.5
1854.156	605.5
1858.457	600.5
1862.754	602.5
1867.047	603.5
1871.335	609.5
1875.62	603.5
1879.9	621.5
1884.177	609.5
1888.449	605.5
1892.718	598.5
1896.982	602.5
1901.243	605.5
1905.499	605.5
1909.752	592.5
1914	606.5
1918.245	606.5
1922.485	606.5
1926.722	608.5
1930.954	604.5
1935.183	608.5
1939.408	606.5
1943.628	609.5
1947.845	610.5
1952.058	607.5
1956.267	613.5
1960.472	597.5
1964.673	589.5
1968.87	574.5
1973.063	570.5
1977.252	580.5
1981.438	573.5
1985.619	575.5
1989.797	575.5
1993.971	576.5
1998.14	582.5
2002.306	574.5
2006.469	579.5
2010.627	587.5
2014.781	588.5
2018.932	590.5
2023.078	582.5
2027.221	571.5
2031.36	578.5
2035.495	576.5
2039.627	572.5
2043.754	567.5
2047.878	563.5
2051.998	574.5
2056.114	571.5
2060.226	557.5
2064.334	573.5
2068.439	580.5
2072.54	582.5
2076.637	581.5
2080.73	583.5
2084.82	592.5
2088.906	581.5
2092.988	590.5
2097.066	579.5
2101.14	586.5
2105.211	583.5
2109.278	570.5
2113.342	576.5
2117.401	562.5
2121.457	572.5
2125.509	570.5
2129.558	562.5
2133.602	551.5
2137.643	549.5
2141.681	541.5
2145.714	549.5
2149.744	553.5
2153.77	536.5
2157.793	532.5
2161.812	534.5
2165.827	520.5
2169.838	528.5
2173.846	521.5
2177.851	505.5
2181.851	507.5
2185.848	493.5
2189.841	491.5
2193.831	473.5
2197.817	487.5
2201.799	478.5
2205.778	483.5
2209.753	462.5
2213.725	472.5
2217.693	471.5
2221.657	471.5
2225.618	471.5
2229.575	460.5
2233.529	465.5
2237.479	457.5
2241.425	449.5
2245.368	447.5
2249.307	446.5
2253.243	436.5
2257.175	421.5
2261.104	428.5
2265.029	409.5
2268.95	408.5
2272.868	405.5
2276.783	401.5
2280.694	404.5
2284.601	383.5
2288.505	381.5
2292.405	385.5
2296.302	380.5
2300.195	370.5
2304.085	366.5
2307.971	361.5
2311.854	348.5
2315.734	345.5
2319.609	340.5
2323.482	334.5
2327.351	334.5
2331.216	319.5
2335.078	325.5
2338.937	320.5
2342.792	322.5
2346.643	310.5
2350.492	329.5
2354.336	322.5
2358.178	321.5
2362.015	322.5
2365.85	317.5
2369.681	318.5
2373.508	319.5
2377.333	318.5
2381.153	329.5
2384.971	321.5
2388.785	316.5
2392.595	309.5
2396.402	310.5
2400.206	314.5
2404.007	298.5
2407.804	305.5
2411.597	311.5
2415.388	300.5
2419.174	309.5
2422.958	303.5
2426.738	307.5
2430.515	306.5
2434.289	298.5
2438.059	294.5
2441.825	298.5
2445.589	294.5
2449.349	296.5
2453.106	285.5
2456.859	285.5
2460.61	283.5
2464.356	286.5
2468.1	281.5
2471.84	271.5
2475.577	281.5
2479.311	280.5
2483.041	279.5
2486.768	273.5
2490.492	271.5
2494.213	280.5
2497.93	271.5
2501.644	274.5
2505.355	270.5
2509.062	269.5
2512.766	272.5
2516.467	271.5
2520.165	273.5
2523.859	264.5
2527.551	267.5
2531.239	265.5
2534.923	259.5
2538.605	250.5
2542.283	260.5
2545.958	258.5
2549.63	257.5
2553.299	256.5
2556.964	247.5
2560.626	249.5
2564.285	241.5
2567.941	244.5
2571.594	239.5
2575.243	242.5
2578.89	237.5
2582.533	239.5
2586.173	232.5
2589.809	233.5
2593.443	235.5
2597.073	227.5
2600.701	222.5
2604.325	222.5
2607.946	220.5
2611.564	222.5
2615.178	221.5
2618.79	223.5
2622.398	225.5
2626.004	225.5
2629.606	214.5
2633.205	211.5
2636.801	213.5
2640.394	211.5
2643.983	206.5
2647.57	207.5
2651.153	207.5
2654.734	207.5
2658.311	195.5
2661.885	200.5
2665.456	197.5
2669.025	186.5
2672.589	200.5
2676.151	197.5
2679.71	186.5
2683.266	184.5
2686.819	188.5
2690.368	187.5
2693.915	183.5
2697.458	175.5
2700.999	168.5
2704.536	179.5
2708.071	178.5
2711.602	175.5
2715.13	165.5
2718.656	168.5
2722.178	174.5
2725.697	176.5
2729.214	169.5
2732.727	178.5
2736.237	178.5
2739.744	179.5
2743.249	182.5
2746.75	178.5
2750.248	180.5
2753.743	178.5
2757.236	171.5
2760.725	172.5
2764.211	171.5
2767.695	173.5
2771.175	169.5
2774.652	167.5
2778.127	169.5
2781.598	162.5
2785.067	162.5
2788.532	166.5
2791.995	168.5
2795.455	171.5
2798.911	163.5
2802.365	167.5
2805.816	177.5
2809.264	170.5
2812.709	171.5
2816.151	179.5
2819.59	167.5
2823.026	175.5
2826.46	180.5
2829.89	186.5
2833.318	176.5
2836.742	180.5
2840.164	184.5
2843.583	185.5
2846.999	190.5
2850.412	192.5
2853.822	191.5
2857.229	190.5
2860.634	194.5
2864.035	196.5
2867.434	198.5
2870.83	207.5
2874.223	208.5
2877.613	211.5
2881	204.5
2884.385	214.5
2887.766	221.5
2891.145	206.5
2894.521	210.5
2897.894	220.5
2901.264	211.5
2904.631	209.5
2907.996	211.5
2911.358	226.5
2914.717	228.5
2918.073	226.5
2921.426	226.5
2924.777	237.5
2928.124	241.5
2931.469	244.5
2934.811	251.5
2938.15	263.5
2941.487	254.5
2944.821	273.5
2948.152	274.5
2951.48	270.5
2954.805	270.5
2958.128	284.5
2961.447	288.5
2964.765	289.5
2968.079	296.5
2971.39	305.5
2974.699	315.5
2978.005	317.5
2981.308	332.5
2984.609	340.5
2987.907	346.5
2991.202	356.5
2994.494	360.5
2997.784	383.5
3001.07	397.5
3004.355	401.5
3007.636	400.5
3010.915	411.5
3014.191	422.5
3017.464	442.5
3020.734	453.5
3024.002	453.5
3027.267	459.5
3030.53	466.5
3033.789	478.5
3037.046	487.5
3040.301	499.5
3043.552	498.5
3046.801	531.5
3050.048	530.5
3053.291	551.5
3056.532	570.5
3059.771	584.5
3063.006	608.5
3066.239	627.5
3069.469	643.5
3072.697	657.5
3075.922	684.5
3079.144	696.5
3082.364	724.5
3085.581	740.5
3088.795	750.5
3092.007	779.5
3095.216	787.5
3098.423	813.5
3101.627	817.5
3104.828	834.5
3108.026	859.5
3111.222	885.5
3114.416	901.5
3117.607	920.5
3120.795	936.5
3123.98	959.5
3127.163	999.5
3130.344	1001.5
3133.521	1035.5
3136.696	1056.5
3139.869	1076.5
3143.039	1118.5
3146.206	1099.5
3149.371	1128.5
3152.533	1127.5
3155.693	1141.5
3158.85	1155.5
3162.005	1166.5
3165.157	1161.5
3168.306	1156.5
3171.453	1175.5
3174.597	1191.5
3177.739	1185.5
3180.878	1190.5
3184.014	1201.5
3187.149	1191.5
3190.28	1191.5
3193.409	1208.5
3196.536	1210.5
3199.659	1203.5
3202.781	1223.5
3205.9	1209.5
3209.016	1220.5
3212.13	1197.5
3215.241	1216.5
3218.35	1203.5
3221.456	1200.5
3224.56	1182.5
3227.661	1162.5
3230.76	1148.5
3233.856	1152.5
3236.95	1142.5
3240.041	1130.5
3243.13	1112.5
3246.216	1107.5
3249.3	1114.5
3252.382	1097.5
3255.46	1096.5
3258.537	1096.5
3261.611	1080.5
3264.682	1086.5
3267.751	1068.5
3270.818	1067.5
3273.882	1059.5
3276.943	1053.5
3280.002	1050.5
3283.059	1040.5
3286.113	1039.5
3289.165	1037.5
3292.214	993.5
3295.261	985.5
3298.306	974.5
3301.348	960.5
3304.387	955.5
3307.425	921.5
3310.459	926.5
3313.492	918.5
3316.521	903.5
3319.549	889.5
3322.574	889.5
3325.597	880.5
3328.617	865.5
3331.635	877.5
3334.65	870.5
3337.663	857.5
3340.674	858.5
3343.682	857.5
3346.688	843.5
3349.691	841.5
3352.692	832.5
3355.691	840.5
3358.687	820.5
3361.681	814.5
3364.673	802.5
3367.662	799.5
3370.649	785.5
3373.633	762.5
3376.615	763.5
3379.595	751.5
3382.572	755.5
3385.547	749.5
3388.52	727.5
3391.49	720.5
3394.458	710.5
3397.424	704.5
3400.387	691.5
3403.348	696.5
3406.307	669.5
3409.263	671.5
3412.217	662.5
3415.168	656.5
3418.118	648.5
3421.065	638.5
3424.009	629.5
3426.951	622.5
3429.891	597.5
3432.829	609.5
3435.764	593.5
3438.697	582.5
3441.628	570.5
3444.557	545.5
3447.483	541.5
3450.407	527.5
3453.328	505.5
3456.247	499.5
3459.164	463.5
3462.079	457.5
3464.991	449.5
3467.902	435.5
3470.809	422.5
3473.715	414.5
3476.618	392.5
3479.519	385.5
3482.418	378.5
3485.315	363.5
3488.209	344.5
3491.101	352.5
3493.99	333.5
3496.878	316.5
3499.763	312.5
3502.646	298.5
3505.527	300.5
3508.405	278.5
3511.281	266.5
3514.155	262.5
3517.027	243.5
3519.897	225.5
3522.764	214.5
3525.629	204.5
3528.492	194.5
3531.352	187.5
3534.211	175.5
3537.067	162.5
3539.921	151.5
3542.773	138.5
3545.622	136.5
3548.469	124.5
3551.315	114.5
3554.157	108.5
3556.998	108.5
3559.837	100.5
3562.673	87.5
3565.507	83.5
3568.339	79.5
3571.169	74.5
3573.996	71.5
3576.822	61.5
3579.645	59.5
3582.466	51.5
3585.285	49.5
3588.101	43.5
3590.916	37.5
3593.728	33.5
3596.538	16.5
3599.346	13.5
3602.152	12.5
3604.956	7.5
3607.757	4.5
3610.556	1.5
3613.354	-6.5
3616.149	-4.5
3618.942	-10.5
3621.732	-9.5
3624.521	-12.5
3627.307	-23.5
3630.092	-24.5
3632.874	-28.5
3635.654	-33.5
3638.432	-32.5
3641.208	-33.5
3643.982	-34.5
3646.753	-42.5
3649.523	-38.5
3652.29	-38.5
3655.055	-48.5
3657.818	-46.5
3660.579	-51.5
3663.338	-54.5
3666.095	-56.5
3668.849	-61.5
3671.602	-57.5
3674.352	-64.5
3677.101	-68.5
3679.847	-65.5
3682.591	-69.5
3685.333	-66.5
3688.073	-69.5
3690.811	-73.5
3693.547	-74.5
3696.281	-81.5
3699.013	-82.5
3701.742	-81.5
3704.47	-83.5
3707.195	-88.5
3709.919	-87.5
3712.64	-91.5
3715.359	-87.5
3718.076	-88.5
3720.792	-86.5
3723.505	-90.5
3726.216	-91.5
3728.925	-90.5
3731.632	-94.5
3734.336	-96.5
3737.039	-96.5
3739.74	-97.5
3742.439	-93.5
3745.136	-93.5
3747.83	-93.5
3750.523	-93.5
3753.213	-89.5
3755.902	-93.5
3758.589	-92.5
3761.273	-96.5
3763.956	-100.5
3766.636	-99.5
3769.315	-102.5
3771.991	-100.5
3774.665	-101.5
3777.338	-103.5
3780.008	-100.5
3782.677	-103.5
3785.343	-101.5
3788.007	-101.5
3790.67	-101.5
3793.33	-103.5
3795.989	-105.5
3798.645	-104.5
3801.299	-106.5
3803.952	-107.5
3806.602	-102.5
3809.251	-104.5
3811.897	-106.5
3814.542	-110.5
3817.184	-107.5
3819.825	-100.5
3822.463	-103.5
3825.1	-106.5
3827.735	-104.5
3830.367	-104.5
3832.998	-104.5
3835.627	-108.5
3838.253	-107.5
3840.878	-109.5
3843.501	-106.5
3846.122	-108.5
3848.741	-107.5
3851.358	-108.5
3853.973	-106.5
3856.586	-109.5
3859.197	-111.5
3861.806	-112.5
3864.414	-113.5
3867.019	-116.5
3869.622	-114.5
3872.224	-113.5
3874.823	-106.5
3877.421	-103.5
3880.016	-107.5
3882.61	-97.5
3885.202	-98.5
3887.792	-101.5
3890.38	-105.5
3892.966	-109.5
3895.55	-113.5
3898.132	-114.5
3900.713	-110.5
3903.291	-107.5
3905.868	-109.5
3908.442	-111.5
3911.015	-108.5
3913.586	-110.5
3916.155	-109.5
3918.722	-110.5
3921.287	-113.5
3923.85	-111.5
3926.411	-110.5
3928.971	-113.5
3931.528	-112.5
3934.084	-115.5
3936.638	-114.5
3939.19	-111.5
3941.74	-112.5
3944.288	-113.5
3946.834	-114.5
3949.378	-116.5
3951.921	-113.5
3954.462	-113.5
3957	-115.5
3959.537	-119.5
3962.072	-116.5
3964.606	-112.5
3967.137	-110.5
3969.667	-114.5
3972.194	-108.5
3974.72	-109.5
3977.244	-109.5
3979.766	-111.5
3982.286	-108.5
3984.805	-114.5
3987.321	-112.5
3989.836	-110.5
3992.349	-114.5
3994.86	-109.5
3997.369	-116.5
3999.877	-113.5
4002.382	-111.5
4004.886	-112.5
4007.388	-112.5
4009.888	-114.5
4012.386	-113.5
4014.883	-113.5
4017.377	-111.5
4019.87	-115.5
4022.361	-112.5
4024.85	-114.5
4027.338	-113.5
4029.823	-117.5
4032.307	-116.5
4034.789	-114.5
4037.269	-112.5
4039.747	-113.5
4042.224	-106.5
4044.699	-112.5
4047.172	-113.5
4049.643	-114.5
4052.112	-110.5
4054.58	-113.5
4057.046	-115.5
4059.51	-110.5
4061.972	-115.5
4064.432	-112.5
4066.891	-113.5
4069.348	-112.5
4071.803	-108.5
4074.256	-111.5
4076.708	-113.5
4079.158	-113.5
4081.606	-112.5
4084.052	-113.5
4086.497	-114.5
4088.939	-114.5
4091.38	-116.5
4093.819	-116.5
4096.257	-118.5
4098.693	-117.5
4101.127	-119.5
4103.559	-115.5
4105.989	-74.5
4108.418	-71.5
4110.845	-67.5
4113.27	-62.5
4115.694	-60.5
4118.115	-52.5
4120.535	-115.5
4122.954	-110.5
4125.37	-111.5
4127.785	-115.5
4130.198	-112.5
4132.609	-109.5
4135.019	-115.5
4137.427	-118.5
4139.833	-119.5
4142.237	-117.5
