Data from 2018-2-8_conc=5_n=10_RamanShift_04.txt Node
Date: Mon Mar 12 16:21:58 IST 2018
User: aro
Spectrometer: QEPB0276
Trigger mode: 0
Integration Time (sec): 3.000000E1
Scans to average: 1
Electric dark correction enabled: true
Nonlinearity correction enabled: false
Boxcar width: 0
XAxis mode: Raman Shifts
Number of Pixels in Spectrum: 1044
>>>>>Begin Spectral Data<<<<<
160.701	17.8
166.742	46.8
172.777	123.8
178.805	367.8
184.826	984.8
190.841	2091.8
196.849	3523.8
202.85	4602.8
208.845	5046.8
214.833	5055.8
220.815	4984.8
226.789	4946.8
232.758	4984.8
238.719	4958.8
244.674	4926.8
250.623	4902.8
256.565	4832.8
262.5	4743.8
268.429	4689.8
274.351	4678.8
280.267	4638.8
286.176	4610.8
292.079	4587.8
297.975	4584.8
303.865	4578.8
309.748	4546.8
315.625	4552.8
321.495	4538.8
327.359	4536.8
333.217	4542.8
339.068	4563.8
344.912	4543.8
350.751	4552.8
356.583	4603.8
362.408	4591.8
368.227	4612.8
374.04	4627.8
379.847	4640.8
385.647	4650.8
391.44	4687.8
397.228	4675.8
403.009	4711.8
408.784	4717.8
414.553	4749.8
420.315	4761.8
426.071	4752.8
431.821	4754.8
437.565	4766.8
443.302	4707.8
449.033	4703.8
454.758	4695.8
460.477	4690.8
466.189	4663.8
471.896	4632.8
477.596	4605.8
483.29	4537.8
488.978	4603.8
494.66	4541.8
500.335	4487.8
506.005	4378.8
511.668	4218.8
517.325	4083.8
522.977	3965.8
528.622	3883.8
534.261	3849.8
539.894	3759.8
545.521	3738.8
551.141	3742.8
556.756	3682.8
562.365	3666.8
567.968	3625.8
573.565	3598.8
579.155	3576.8
584.74	3598.8
590.319	3585.8
595.892	3574.8
601.459	3520.8
607.02	3541.8
612.575	3530.8
618.124	3462.8
623.667	3431.8
629.204	3408.8
634.735	3363.8
640.261	3346.8
645.781	3324.8
651.294	3320.8
656.802	3347.8
662.304	3323.8
667.8	3293.8
673.29	3309.8
678.775	3303.8
684.254	3287.8
689.726	3255.8
695.193	3241.8
700.655	3241.8
706.11	3218.8
711.56	3203.8
717.004	3153.8
722.442	3173.8
727.874	3172.8
733.301	3124.8
738.722	3126.8
744.137	3140.8
749.547	3121.8
754.951	3104.8
760.349	3099.8
765.741	3108.8
771.128	3127.8
776.509	3178.8
781.885	3149.8
787.254	3146.8
792.618	3186.8
797.977	3197.8
803.33	3144.8
808.677	3124.8
814.019	3109.8
819.355	3102.8
824.686	3046.8
830.011	3043.8
835.33	3048.8
840.644	3046.8
845.952	3026.8
851.255	3018.8
856.552	3007.8
861.844	2974.8
867.13	2950.8
872.41	2946.8
877.686	2915.8
882.955	2898.8
888.219	2882.8
893.478	2881.8
898.731	2812.8
903.979	2761.8
909.221	2730.8
914.458	2743.8
919.69	2731.8
924.916	2729.8
930.136	2736.8
935.351	2742.8
940.561	2763.8
945.766	2737.8
950.965	2766.8
956.158	2685.8
961.347	2701.8
966.529	2635.8
971.707	2609.8
976.879	2581.8
982.046	2563.8
987.208	2547.8
992.364	2533.8
997.515	2563.8
1002.66	2589.8
1007.801	2610.8
1012.936	2619.8
1018.066	2621.8
1023.19	2620.8
1028.309	2646.8
1033.423	2634.8
1038.532	2625.8
1043.636	2604.8
1048.734	2581.8
1053.827	2541.8
1058.915	2518.8
1063.998	2500.8
1069.075	2482.8
1074.147	2489.8
1079.214	2484.8
1084.276	2484.8
1089.333	2501.8
1094.385	2509.8
1099.431	2511.8
1104.472	2504.8
1109.509	2495.8
1114.54	2451.8
1119.565	2426.8
1124.586	2386.8
1129.602	2375.8
1134.613	2329.8
1139.618	2312.8
1144.619	2333.8
1149.614	2318.8
1154.604	2344.8
1159.589	2344.8
1164.57	2350.8
1169.545	2347.8
1174.515	2373.8
1179.48	2340.8
1184.44	2318.8
1189.395	2295.8
1194.345	2300.8
1199.29	2274.8
1204.23	2275.8
1209.165	2273.8
1214.095	2297.8
1219.021	2307.8
1223.941	2303.8
1228.856	2324.8
1233.766	2339.8
1238.672	2338.8
1243.572	2328.8
1248.467	2318.8
1253.358	2293.8
1258.244	2254.8
1263.124	2237.8
1268	2181.8
1272.871	2149.8
1277.737	2116.8
1282.599	2125.8
1287.455	2127.8
1292.306	2132.8
1297.153	2143.8
1301.995	2137.8
1306.832	2174.8
1311.664	2178.8
1316.491	2189.8
1321.314	2179.8
1326.132	2158.8
1330.945	2144.8
1335.753	2102.8
1340.556	2083.8
1345.354	2050.8
1350.148	1996.8
1354.937	1989.8
1359.722	1949.8
1364.501	1926.8
1369.276	1883.8
1374.046	1862.8
1378.811	1830.8
1383.572	1808.8
1388.327	1814.8
1393.079	1821.8
1397.825	1813.8
1402.567	1802.8
1407.304	1825.8
1412.036	1816.8
1416.764	1828.8
1421.487	1815.8
1426.205	1831.8
1430.919	1836.8
1435.628	1851.8
1440.333	1870.8
1445.032	1874.8
1449.727	1889.8
1454.418	1894.8
1459.104	1886.8
1463.785	1862.8
1468.462	1858.8
1473.134	1797.8
1477.802	1777.8
1482.465	1742.8
1487.123	1701.8
1491.777	1682.8
1496.426	1675.8
1501.071	1642.8
1505.711	1634.8
1510.347	1649.8
1514.978	1632.8
1519.604	1649.8
1524.226	1629.8
1528.844	1633.8
1533.457	1609.8
1538.065	1600.8
1542.669	1599.8
1547.269	1596.8
1551.864	1604.8
1556.454	1608.8
1561.041	1623.8
1565.622	1644.8
1570.199	1640.8
1574.772	1662.8
1579.34	1660.8
1583.904	1706.8
1588.464	1710.8
1593.019	1702.8
1597.569	1707.8
1602.115	1698.8
1606.657	1704.8
1611.195	1690.8
1615.728	1680.8
1620.256	1702.8
1624.78	1675.8
1629.3	1686.8
1633.816	1720.8
1638.327	1717.8
1642.834	1714.8
1647.336	1725.8
1651.834	1739.8
1656.328	1711.8
1660.817	1725.8
1665.302	1718.8
1669.783	1683.8
1674.259	1619.8
1678.732	1605.8
1683.199	1574.8
1687.663	1524.8
1692.122	1464.8
1696.577	1410.8
1701.028	1365.8
1705.474	1291.8
1709.917	1258.8
1714.355	1236.8
1718.788	1231.8
1723.218	1220.8
1727.643	1235.8
1732.064	1216.8
1736.481	1208.8
1740.893	1200.8
1745.301	1169.8
1749.705	1140.8
1754.105	1118.8
1758.501	1095.8
1762.893	1075.8
1767.28	1071.8
1771.663	1076.8
1776.042	1054.8
1780.417	1052.8
1784.787	1038.8
1789.154	1016.8
1793.516	1015.8
1797.874	987.8
1802.228	972.8
1806.578	977.8
1810.924	959.8
1815.266	960.8
1819.603	955.8
1823.937	952.8
1828.266	946.8
1832.591	947.8
1836.913	940.8
1841.23	944.8
1845.543	967.8
1849.852	952.8
1854.156	936.8
1858.457	958.8
1862.754	954.8
1867.047	960.8
1871.335	960.8
1875.62	957.8
1879.9	951.8
1884.177	957.8
1888.449	929.8
1892.718	936.8
1896.982	909.8
1901.243	902.8
1905.499	894.8
1909.752	879.8
1914	870.8
1918.245	861.8
1922.485	849.8
1926.722	857.8
1930.954	848.8
1935.183	847.8
1939.408	826.8
1943.628	837.8
1947.845	821.8
1952.058	811.8
1956.267	814.8
1960.472	816.8
1964.673	791.8
1968.87	789.8
1973.063	772.8
1977.252	771.8
1981.438	769.8
1985.619	773.8
1989.797	763.8
1993.971	779.8
1998.14	777.8
2002.306	781.8
2006.469	786.8
2010.627	788.8
2014.781	782.8
2018.932	760.8
2023.078	788.8
2027.221	768.8
2031.36	755.8
2035.495	765.8
2039.627	741.8
2043.754	730.8
2047.878	731.8
2051.998	722.8
2056.114	727.8
2060.226	712.8
2064.334	716.8
2068.439	722.8
2072.54	705.8
2076.637	703.8
2080.73	706.8
2084.82	687.8
2088.906	694.8
2092.988	694.8
2097.066	687.8
2101.14	669.8
2105.211	655.8
2109.278	654.8
2113.342	643.8
2117.401	650.8
2121.457	646.8
2125.509	638.8
2129.558	634.8
2133.602	625.8
2137.643	623.8
2141.681	635.8
2145.714	628.8
2149.744	631.8
2153.77	623.8
2157.793	623.8
2161.812	613.8
2165.827	618.8
2169.838	596.8
2173.846	585.8
2177.851	577.8
2181.851	578.8
2185.848	559.8
2189.841	573.8
2193.831	568.8
2197.817	555.8
2201.799	559.8
2205.778	549.8
2209.753	544.8
2213.725	546.8
2217.693	556.8
2221.657	555.8
2225.618	541.8
2229.575	556.8
2233.529	537.8
2237.479	527.8
2241.425	525.8
2245.368	506.8
2249.307	513.8
2253.243	507.8
2257.175	502.8
2261.104	491.8
2265.029	482.8
2268.95	480.8
2272.868	467.8
2276.783	454.8
2280.694	461.8
2284.601	456.8
2288.505	455.8
2292.405	451.8
2296.302	448.8
2300.195	436.8
2304.085	431.8
2307.971	419.8
2311.854	412.8
2315.734	397.8
2319.609	399.8
2323.482	409.8
2327.351	405.8
2331.216	417.8
2335.078	431.8
2338.937	404.8
2342.792	393.8
2346.643	389.8
2350.492	393.8
2354.336	387.8
2358.178	389.8
2362.015	391.8
2365.85	405.8
2369.681	379.8
2373.508	392.8
2377.333	396.8
2381.153	391.8
2384.971	405.8
2388.785	380.8
2392.595	375.8
2396.402	365.8
2400.206	377.8
2404.007	373.8
2407.804	372.8
2411.597	374.8
2415.388	371.8
2419.174	367.8
2422.958	360.8
2426.738	360.8
2430.515	364.8
2434.289	354.8
2438.059	350.8
2441.825	359.8
2445.589	356.8
2449.349	348.8
2453.106	331.8
2456.859	342.8
2460.61	327.8
2464.356	323.8
2468.1	327.8
2471.84	320.8
2475.577	316.8
2479.311	300.8
2483.041	301.8
2486.768	327.8
2490.492	313.8
2494.213	310.8
2497.93	311.8
2501.644	299.8
2505.355	296.8
2509.062	297.8
2512.766	294.8
2516.467	289.8
2520.165	294.8
2523.859	278.8
2527.551	284.8
2531.239	269.8
2534.923	271.8
2538.605	272.8
2542.283	262.8
2545.958	265.8
2549.63	262.8
2553.299	262.8
2556.964	268.8
2560.626	252.8
2564.285	252.8
2567.941	242.8
2571.594	245.8
2575.243	249.8
2578.89	225.8
2582.533	231.8
2586.173	226.8
2589.809	228.8
2593.443	233.8
2597.073	221.8
2600.701	214.8
2604.325	216.8
2607.946	215.8
2611.564	215.8
2615.178	219.8
2618.79	219.8
2622.398	222.8
2626.004	210.8
2629.606	205.8
2633.205	196.8
2636.801	208.8
2640.394	198.8
2643.983	201.8
2647.57	204.8
2651.153	199.8
2654.734	185.8
2658.311	185.8
2661.885	171.8
2665.456	186.8
2669.025	183.8
2672.589	187.8
2676.151	185.8
2679.71	183.8
2683.266	172.8
2686.819	180.8
2690.368	164.8
2693.915	170.8
2697.458	170.8
2700.999	166.8
2704.536	167.8
2708.071	150.8
2711.602	159.8
2715.13	151.8
2718.656	145.8
2722.178	148.8
2725.697	144.8
2729.214	141.8
2732.727	150.8
2736.237	141.8
2739.744	138.8
2743.249	133.8
2746.75	135.8
2750.248	131.8
2753.743	124.8
2757.236	129.8
2760.725	124.8
2764.211	118.8
2767.695	114.8
2771.175	106.8
2774.652	99.8
2778.127	114.8
2781.598	118.8
2785.067	119.8
2788.532	121.8
2791.995	118.8
2795.455	111.8
2798.911	112.8
2802.365	120.8
2805.816	124.8
2809.264	121.8
2812.709	125.8
2816.151	116.8
2819.59	124.8
2823.026	118.8
2826.46	109.8
2829.89	111.8
2833.318	111.8
2836.742	120.8
2840.164	116.8
2843.583	125.8
2846.999	128.8
2850.412	123.8
2853.822	125.8
2857.229	121.8
2860.634	123.8
2864.035	136.8
2867.434	130.8
2870.83	147.8
2874.223	153.8
2877.613	147.8
2881	155.8
2884.385	152.8
2887.766	151.8
2891.145	147.8
2894.521	156.8
2897.894	151.8
2901.264	165.8
2904.631	157.8
2907.996	155.8
2911.358	159.8
2914.717	162.8
2918.073	158.8
2921.426	163.8
2924.777	180.8
2928.124	171.8
2931.469	179.8
2934.811	181.8
2938.15	191.8
2941.487	199.8
2944.821	193.8
2948.152	200.8
2951.48	199.8
2954.805	189.8
2958.128	188.8
2961.447	184.8
2964.765	187.8
2968.079	184.8
2971.39	191.8
2974.699	193.8
2978.005	188.8
2981.308	201.8
2984.609	191.8
2987.907	187.8
2991.202	208.8
2994.494	195.8
2997.784	200.8
3001.07	208.8
3004.355	213.8
3007.636	209.8
3010.915	213.8
3014.191	216.8
3017.464	217.8
3020.734	223.8
3024.002	223.8
3027.267	236.8
3030.53	228.8
3033.789	247.8
3037.046	246.8
3040.301	244.8
3043.552	264.8
3046.801	268.8
3050.048	265.8
3053.291	273.8
3056.532	291.8
3059.771	297.8
3063.006	307.8
3066.239	325.8
3069.469	329.8
3072.697	333.8
3075.922	356.8
3079.144	359.8
3082.364	373.8
3085.581	386.8
3088.795	384.8
3092.007	383.8
3095.216	396.8
3098.423	409.8
3101.627	410.8
3104.828	427.8
3108.026	427.8
3111.222	438.8
3114.416	453.8
3117.607	463.8
3120.795	472.8
3123.98	461.8
3127.163	489.8
3130.344	514.8
3133.521	512.8
3136.696	538.8
3139.869	542.8
3143.039	537.8
3146.206	541.8
3149.371	563.8
3152.533	565.8
3155.693	561.8
3158.85	574.8
3162.005	586.8
3165.157	578.8
3168.306	584.8
3171.453	582.8
3174.597	583.8
3177.739	584.8
3180.878	599.8
3184.014	613.8
3187.149	605.8
3190.28	618.8
3193.409	609.8
3196.536	599.8
3199.659	602.8
3202.781	610.8
3205.9	625.8
3209.016	622.8
3212.13	611.8
3215.241	602.8
3218.35	607.8
3221.456	596.8
3224.56	598.8
3227.661	576.8
3230.76	580.8
3233.856	564.8
3236.95	543.8
3240.041	552.8
3243.13	537.8
3246.216	536.8
3249.3	522.8
3252.382	526.8
3255.46	511.8
3258.537	514.8
3261.611	510.8
3264.682	505.8
3267.751	496.8
3270.818	497.8
3273.882	485.8
3276.943	488.8
3280.002	487.8
3283.059	479.8
3286.113	479.8
3289.165	481.8
3292.214	466.8
3295.261	465.8
3298.306	459.8
3301.348	449.8
3304.387	427.8
3307.425	438.8
3310.459	440.8
3313.492	433.8
3316.521	416.8
3319.549	432.8
3322.574	415.8
3325.597	416.8
3328.617	415.8
3331.635	410.8
3334.65	418.8
3337.663	393.8
3340.674	407.8
3343.682	411.8
3346.688	398.8
3349.691	409.8
3352.692	408.8
3355.691	406.8
3358.687	399.8
3361.681	401.8
3364.673	398.8
3367.662	378.8
3370.649	373.8
3373.633	375.8
3376.615	358.8
3379.595	366.8
3382.572	350.8
3385.547	348.8
3388.52	344.8
3391.49	343.8
3394.458	337.8
3397.424	321.8
3400.387	322.8
3403.348	321.8
3406.307	299.8
3409.263	309.8
3412.217	296.8
3415.168	297.8
3418.118	294.8
3421.065	289.8
3424.009	278.8
3426.951	290.8
3429.891	269.8
3432.829	262.8
3435.764	265.8
3438.697	245.8
3441.628	249.8
3444.557	232.8
3447.483	228.8
3450.407	208.8
3453.328	208.8
3456.247	202.8
3459.164	184.8
3462.079	180.8
3464.991	179.8
3467.902	172.8
3470.809	175.8
3473.715	153.8
3476.618	142.8
3479.519	147.8
3482.418	126.8
3485.315	125.8
3488.209	108.8
3491.101	112.8
3493.99	123.8
3496.878	111.8
3499.763	100.8
3502.646	84.8
3505.527	83.8
3508.405	78.8
3511.281	69.8
3514.155	70.8
3517.027	67.8
3519.897	52.8
3522.764	53.8
3525.629	35.8
3528.492	33.8
3531.352	27.8
3534.211	18.8
3537.067	9.8
3539.921	18.8
3542.773	10.8
3545.622	-3.2
3548.469	-2.2
3551.315	-6.2
3554.157	-13.2
3556.998	-20.2
3559.837	-15.2
3562.673	-17.2
3565.507	-17.2
3568.339	-30.2
3571.169	-38.2
3573.996	-33.2
3576.822	-38.2
3579.645	-42.2
3582.466	-42.2
3585.285	-45.2
3588.101	-34.2
3590.916	-48.2
3593.728	-52.2
3596.538	-58.2
3599.346	-55.2
3602.152	-62.2
3604.956	-65.2
3607.757	-56.2
3610.556	-72.2
3613.354	-64.2
3616.149	-81.2
3618.942	-79.2
3621.732	-78.2
3624.521	-75.2
3627.307	-79.2
3630.092	-82.2
3632.874	-76.2
3635.654	-80.2
3638.432	-80.2
3641.208	-87.2
3643.982	-91.2
3646.753	-94.2
3649.523	-96.2
3652.29	-93.2
3655.055	-97.2
3657.818	-91.2
3660.579	-89.2
3663.338	-95.2
3666.095	-106.2
3668.849	-106.2
3671.602	-101.2
3674.352	-103.2
3677.101	-111.2
3679.847	-106.2
3682.591	-111.2
3685.333	-105.2
3688.073	-109.2
3690.811	-110.2
3693.547	-116.2
3696.281	-109.2
3699.013	-112.2
3701.742	-116.2
3704.47	-114.2
3707.195	-112.2
3709.919	-118.2
3712.64	-115.2
3715.359	-120.2
3718.076	-122.2
3720.792	-119.2
3723.505	-123.2
3726.216	-116.2
3728.925	-123.2
3731.632	-123.2
3734.336	-126.2
3737.039	-122.2
3739.74	-127.2
3742.439	-132.2
3745.136	-119.2
3747.83	-127.2
3750.523	-120.2
3753.213	-121.2
3755.902	-126.2
3758.589	-133.2
3761.273	-118.2
3763.956	-124.2
3766.636	-123.2
3769.315	-117.2
3771.991	-123.2
3774.665	-131.2
3777.338	-122.2
3780.008	-126.2
3782.677	-127.2
3785.343	-127.2
3788.007	-126.2
3790.67	-128.2
3793.33	-125.2
3795.989	-127.2
3798.645	-129.2
3801.299	-130.2
3803.952	-132.2
3806.602	-123.2
3809.251	-131.2
3811.897	-133.2
3814.542	-130.2
3817.184	-125.2
3819.825	-130.2
3822.463	-123.2
3825.1	-124.2
3827.735	-131.2
3830.367	-129.2
3832.998	-133.2
3835.627	-137.2
3838.253	-126.2
3840.878	-128.2
3843.501	-126.2
3846.122	-129.2
3848.741	-128.2
3851.358	-124.2
3853.973	-134.2
3856.586	-129.2
3859.197	-137.2
3861.806	-127.2
3864.414	-137.2
3867.019	-129.2
3869.622	-124.2
3872.224	-118.2
3874.823	-111.2
3877.421	-97.2
3880.016	-71.2
3882.61	-55.2
3885.202	-51.2
3887.792	-72.2
3890.38	-93.2
3892.966	-120.2
3895.55	-123.2
3898.132	-130.2
3900.713	-130.2
3903.291	-131.2
3905.868	-135.2
3908.442	-126.2
3911.015	-128.2
3913.586	-132.2
3916.155	-132.2
3918.722	-134.2
3921.287	-136.2
3923.85	-134.2
3926.411	-141.2
3928.971	-132.2
3931.528	-134.2
3934.084	-127.2
3936.638	-128.2
3939.19	-137.2
3941.74	-140.2
3944.288	-132.2
3946.834	-133.2
3949.378	-131.2
3951.921	-129.2
3954.462	-136.2
3957	-134.2
3959.537	-128.2
3962.072	-136.2
3964.606	-126.2
3967.137	-132.2
3969.667	-131.2
3972.194	-134.2
3974.72	-131.2
3977.244	-130.2
3979.766	-134.2
3982.286	-125.2
3984.805	-140.2
3987.321	-130.2
3989.836	-125.2
3992.349	-131.2
3994.86	-129.2
3997.369	-139.2
3999.877	-138.2
4002.382	-123.2
4004.886	-131.2
4007.388	-132.2
4009.888	-126.2
4012.386	-130.2
4014.883	-133.2
4017.377	-136.2
4019.87	-135.2
4022.361	-135.2
4024.85	-131.2
4027.338	-127.2
4029.823	-125.2
4032.307	-129.2
4034.789	-131.2
4037.269	-135.2
4039.747	-130.2
4042.224	-130.2
4044.699	-132.2
4047.172	-125.2
4049.643	-123.2
4052.112	-130.2
4054.58	-131.2
4057.046	-133.2
4059.51	-133.2
4061.972	-127.2
4064.432	-129.2
4066.891	-132.2
4069.348	-124.2
4071.803	-133.2
4074.256	-131.2
4076.708	-126.2
4079.158	-127.2
4081.606	-128.2
4084.052	-132.2
4086.497	-131.2
4088.939	-122.2
4091.38	-130.2
4093.819	-134.2
4096.257	-138.2
4098.693	-135.2
4101.127	-140.2
4103.559	-136.2
4105.989	16.8
4108.418	10.8
4110.845	9.8
4113.27	8.8
4115.694	0.8
4118.115	-1.2
4120.535	-135.2
4122.954	-133.2
4125.37	-127.2
4127.785	-129.2
4130.198	-129.2
4132.609	-125.2
4135.019	-136.2
4137.427	-142.2
4139.833	-141.2
4142.237	-136.2
