Data from 2018-2-8_conc=3_n=8_RamanShift_05.txt Node
Date: Mon Mar 12 14:54:28 IST 2018
User: aro
Spectrometer: QEPB0276
Trigger mode: 0
Integration Time (sec): 3.000000E1
Scans to average: 1
Electric dark correction enabled: true
Nonlinearity correction enabled: false
Boxcar width: 0
XAxis mode: Raman Shifts
Number of Pixels in Spectrum: 1044
>>>>>Begin Spectral Data<<<<<
160.701	12.5
166.742	37.5
172.777	118.5
178.805	387.5
184.826	1077.5
190.841	2337.5
196.849	3907.5
202.85	5137.5
208.845	5634.5
214.833	5654.5
220.815	5542.5
226.789	5489.5
232.758	5492.5
238.719	5520.5
244.674	5451.5
250.623	5400.5
256.565	5304.5
262.5	5221.5
268.429	5160.5
274.351	5109.5
280.267	5062.5
286.176	5020.5
292.079	4995.5
297.975	4932.5
303.865	4944.5
309.748	4912.5
315.625	4941.5
321.495	4881.5
327.359	4873.5
333.217	4871.5
339.068	4900.5
344.912	4919.5
350.751	4881.5
356.583	4896.5
362.408	4867.5
368.227	4901.5
374.04	4925.5
379.847	4927.5
385.647	4963.5
391.44	4951.5
397.228	4990.5
403.009	5010.5
408.784	5044.5
414.553	5058.5
420.315	5038.5
426.071	5063.5
431.821	5084.5
437.565	5057.5
443.302	5052.5
449.033	5048.5
454.758	5013.5
460.477	5014.5
466.189	4978.5
471.896	4906.5
477.596	4898.5
483.29	4907.5
488.978	4895.5
494.66	4889.5
500.335	4780.5
506.005	4686.5
511.668	4579.5
517.325	4444.5
522.977	4349.5
528.622	4268.5
534.261	4208.5
539.894	4211.5
545.521	4139.5
551.141	4106.5
556.756	4073.5
562.365	4066.5
567.968	4033.5
573.565	4003.5
579.155	3978.5
584.74	3992.5
590.319	3946.5
595.892	3935.5
601.459	3947.5
607.02	3957.5
612.575	3895.5
618.124	3852.5
623.667	3819.5
629.204	3796.5
634.735	3748.5
640.261	3720.5
645.781	3709.5
651.294	3726.5
656.802	3720.5
662.304	3699.5
667.8	3678.5
673.29	3669.5
678.775	3652.5
684.254	3643.5
689.726	3643.5
695.193	3618.5
700.655	3575.5
706.11	3590.5
711.56	3567.5
717.004	3562.5
722.442	3530.5
727.874	3516.5
733.301	3519.5
738.722	3508.5
744.137	3498.5
749.547	3475.5
754.951	3467.5
760.349	3486.5
765.741	3462.5
771.128	3501.5
776.509	3510.5
781.885	3527.5
787.254	3542.5
792.618	3555.5
797.977	3518.5
803.33	3492.5
808.677	3458.5
814.019	3420.5
819.355	3415.5
824.686	3387.5
830.011	3359.5
835.33	3386.5
840.644	3381.5
845.952	3352.5
851.255	3354.5
856.552	3339.5
861.844	3333.5
867.13	3316.5
872.41	3290.5
877.686	3283.5
882.955	3260.5
888.219	3225.5
893.478	3191.5
898.731	3161.5
903.979	3119.5
909.221	3095.5
914.458	3074.5
919.69	3071.5
924.916	3053.5
930.136	3095.5
935.351	3094.5
940.561	3058.5
945.766	3069.5
950.965	3079.5
956.158	3050.5
961.347	3024.5
966.529	2962.5
971.707	2961.5
976.879	2912.5
982.046	2861.5
987.208	2869.5
992.364	2837.5
997.515	2870.5
1002.66	2882.5
1007.801	2916.5
1012.936	2941.5
1018.066	2940.5
1023.19	2951.5
1028.309	2952.5
1033.423	2928.5
1038.532	2938.5
1043.636	2911.5
1048.734	2880.5
1053.827	2856.5
1058.915	2800.5
1063.998	2784.5
1069.075	2788.5
1074.147	2780.5
1079.214	2787.5
1084.276	2797.5
1089.333	2807.5
1094.385	2824.5
1099.431	2825.5
1104.472	2841.5
1109.509	2807.5
1114.54	2777.5
1119.565	2730.5
1124.586	2699.5
1129.602	2681.5
1134.613	2650.5
1139.618	2641.5
1144.619	2627.5
1149.614	2615.5
1154.604	2643.5
1159.589	2631.5
1164.57	2640.5
1169.545	2633.5
1174.515	2643.5
1179.48	2644.5
1184.44	2634.5
1189.395	2593.5
1194.345	2585.5
1199.29	2562.5
1204.23	2551.5
1209.165	2558.5
1214.095	2606.5
1219.021	2588.5
1223.941	2604.5
1228.856	2615.5
1233.766	2647.5
1238.672	2631.5
1243.572	2621.5
1248.467	2600.5
1253.358	2558.5
1258.244	2537.5
1263.124	2500.5
1268	2443.5
1272.871	2436.5
1277.737	2427.5
1282.599	2404.5
1287.455	2411.5
1292.306	2422.5
1297.153	2428.5
1301.995	2426.5
1306.832	2428.5
1311.664	2449.5
1316.491	2448.5
1321.314	2456.5
1326.132	2436.5
1330.945	2422.5
1335.753	2381.5
1340.556	2350.5
1345.354	2325.5
1350.148	2271.5
1354.937	2244.5
1359.722	2204.5
1364.501	2165.5
1369.276	2120.5
1374.046	2088.5
1378.811	2060.5
1383.572	2026.5
1388.327	2049.5
1393.079	2031.5
1397.825	2038.5
1402.567	2050.5
1407.304	2052.5
1412.036	2065.5
1416.764	2058.5
1421.487	2065.5
1426.205	2064.5
1430.919	2067.5
1435.628	2085.5
1440.333	2098.5
1445.032	2113.5
1449.727	2148.5
1454.418	2158.5
1459.104	2148.5
1463.785	2095.5
1468.462	2067.5
1473.134	2041.5
1477.802	1996.5
1482.465	1963.5
1487.123	1911.5
1491.777	1896.5
1496.426	1887.5
1501.071	1862.5
1505.711	1838.5
1510.347	1839.5
1514.978	1825.5
1519.604	1837.5
1524.226	1819.5
1528.844	1813.5
1533.457	1796.5
1538.065	1803.5
1542.669	1785.5
1547.269	1777.5
1551.864	1780.5
1556.454	1800.5
1561.041	1818.5
1565.622	1835.5
1570.199	1816.5
1574.772	1844.5
1579.34	1883.5
1583.904	1922.5
1588.464	1912.5
1593.019	1947.5
1597.569	1941.5
1602.115	1931.5
1606.657	1925.5
1611.195	1938.5
1615.728	1909.5
1620.256	1917.5
1624.78	1908.5
1629.3	1908.5
1633.816	1930.5
1638.327	1953.5
1642.834	1928.5
1647.336	1945.5
1651.834	1932.5
1656.328	1947.5
1660.817	1933.5
1665.302	1943.5
1669.783	1895.5
1674.259	1854.5
1678.732	1806.5
1683.199	1773.5
1687.663	1700.5
1692.122	1657.5
1696.577	1576.5
1701.028	1512.5
1705.474	1451.5
1709.917	1420.5
1714.355	1385.5
1718.788	1368.5
1723.218	1377.5
1727.643	1378.5
1732.064	1349.5
1736.481	1370.5
1740.893	1323.5
1745.301	1314.5
1749.705	1283.5
1754.105	1258.5
1758.501	1218.5
1762.893	1211.5
1767.28	1201.5
1771.663	1176.5
1776.042	1195.5
1780.417	1156.5
1784.787	1151.5
1789.154	1137.5
1793.516	1150.5
1797.874	1091.5
1802.228	1086.5
1806.578	1084.5
1810.924	1062.5
1815.266	1046.5
1819.603	1055.5
1823.937	1052.5
1828.266	1061.5
1832.591	1056.5
1836.913	1060.5
1841.23	1037.5
1845.543	1073.5
1849.852	1047.5
1854.156	1061.5
1858.457	1054.5
1862.754	1058.5
1867.047	1077.5
1871.335	1068.5
1875.62	1062.5
1879.9	1072.5
1884.177	1047.5
1888.449	1042.5
1892.718	1032.5
1896.982	1015.5
1901.243	1011.5
1905.499	994.5
1909.752	990.5
1914	972.5
1918.245	957.5
1922.485	947.5
1926.722	937.5
1930.954	946.5
1935.183	928.5
1939.408	919.5
1943.628	924.5
1947.845	916.5
1952.058	900.5
1956.267	899.5
1960.472	889.5
1964.673	887.5
1968.87	890.5
1973.063	865.5
1977.252	854.5
1981.438	857.5
1985.619	858.5
1989.797	850.5
1993.971	862.5
1998.14	868.5
2002.306	866.5
2006.469	855.5
2010.627	857.5
2014.781	869.5
2018.932	851.5
2023.078	863.5
2027.221	848.5
2031.36	855.5
2035.495	844.5
2039.627	827.5
2043.754	804.5
2047.878	795.5
2051.998	802.5
2056.114	809.5
2060.226	802.5
2064.334	799.5
2068.439	786.5
2072.54	803.5
2076.637	795.5
2080.73	782.5
2084.82	778.5
2088.906	800.5
2092.988	781.5
2097.066	769.5
2101.14	759.5
2105.211	744.5
2109.278	726.5
2113.342	725.5
2117.401	707.5
2121.457	722.5
2125.509	717.5
2129.558	706.5
2133.602	707.5
2137.643	705.5
2141.681	706.5
2145.714	693.5
2149.744	711.5
2153.77	706.5
2157.793	705.5
2161.812	687.5
2165.827	687.5
2169.838	669.5
2173.846	661.5
2177.851	652.5
2181.851	638.5
2185.848	648.5
2189.841	634.5
2193.831	642.5
2197.817	624.5
2201.799	631.5
2205.778	624.5
2209.753	606.5
2213.725	622.5
2217.693	629.5
2221.657	627.5
2225.618	623.5
2229.575	627.5
2233.529	612.5
2237.479	600.5
2241.425	601.5
2245.368	594.5
2249.307	580.5
2253.243	575.5
2257.175	574.5
2261.104	558.5
2265.029	550.5
2268.95	543.5
2272.868	534.5
2276.783	527.5
2280.694	531.5
2284.601	513.5
2288.505	518.5
2292.405	513.5
2296.302	512.5
2300.195	493.5
2304.085	487.5
2307.971	477.5
2311.854	482.5
2315.734	475.5
2319.609	464.5
2323.482	451.5
2327.351	467.5
2331.216	466.5
2335.078	487.5
2338.937	466.5
2342.792	463.5
2346.643	458.5
2350.492	450.5
2354.336	455.5
2358.178	450.5
2362.015	449.5
2365.85	459.5
2369.681	449.5
2373.508	455.5
2377.333	455.5
2381.153	456.5
2384.971	469.5
2388.785	446.5
2392.595	432.5
2396.402	435.5
2400.206	442.5
2404.007	440.5
2407.804	441.5
2411.597	429.5
2415.388	426.5
2419.174	432.5
2422.958	422.5
2426.738	430.5
2430.515	422.5
2434.289	422.5
2438.059	416.5
2441.825	397.5
2445.589	407.5
2449.349	395.5
2453.106	402.5
2456.859	398.5
2460.61	392.5
2464.356	381.5
2468.1	383.5
2471.84	386.5
2475.577	373.5
2479.311	370.5
2483.041	358.5
2486.768	375.5
2490.492	361.5
2494.213	370.5
2497.93	364.5
2501.644	359.5
2505.355	346.5
2509.062	353.5
2512.766	349.5
2516.467	339.5
2520.165	333.5
2523.859	348.5
2527.551	327.5
2531.239	317.5
2534.923	315.5
2538.605	316.5
2542.283	307.5
2545.958	312.5
2549.63	317.5
2553.299	301.5
2556.964	304.5
2560.626	300.5
2564.285	301.5
2567.941	297.5
2571.594	287.5
2575.243	292.5
2578.89	296.5
2582.533	277.5
2586.173	270.5
2589.809	268.5
2593.443	277.5
2597.073	273.5
2600.701	267.5
2604.325	261.5
2607.946	260.5
2611.564	253.5
2615.178	258.5
2618.79	257.5
2622.398	254.5
2626.004	253.5
2629.606	253.5
2633.205	249.5
2636.801	248.5
2640.394	239.5
2643.983	237.5
2647.57	247.5
2651.153	238.5
2654.734	231.5
2658.311	230.5
2661.885	223.5
2665.456	223.5
2669.025	230.5
2672.589	226.5
2676.151	228.5
2679.71	226.5
2683.266	208.5
2686.819	217.5
2690.368	209.5
2693.915	200.5
2697.458	190.5
2700.999	197.5
2704.536	196.5
2708.071	191.5
2711.602	193.5
2715.13	188.5
2718.656	182.5
2722.178	181.5
2725.697	167.5
2729.214	169.5
2732.727	178.5
2736.237	181.5
2739.744	176.5
2743.249	167.5
2746.75	159.5
2750.248	156.5
2753.743	147.5
2757.236	149.5
2760.725	153.5
2764.211	145.5
2767.695	145.5
2771.175	138.5
2774.652	139.5
2778.127	132.5
2781.598	136.5
2785.067	146.5
2788.532	144.5
2791.995	145.5
2795.455	144.5
2798.911	144.5
2802.365	151.5
2805.816	158.5
2809.264	151.5
2812.709	160.5
2816.151	145.5
2819.59	147.5
2823.026	155.5
2826.46	141.5
2829.89	140.5
2833.318	146.5
2836.742	149.5
2840.164	146.5
2843.583	154.5
2846.999	148.5
2850.412	152.5
2853.822	153.5
2857.229	151.5
2860.634	154.5
2864.035	164.5
2867.434	163.5
2870.83	170.5
2874.223	186.5
2877.613	187.5
2881	198.5
2884.385	189.5
2887.766	181.5
2891.145	185.5
2894.521	190.5
2897.894	196.5
2901.264	194.5
2904.631	196.5
2907.996	205.5
2911.358	199.5
2914.717	194.5
2918.073	200.5
2921.426	213.5
2924.777	221.5
2928.124	226.5
2931.469	230.5
2934.811	232.5
2938.15	232.5
2941.487	242.5
2944.821	233.5
2948.152	244.5
2951.48	248.5
2954.805	253.5
2958.128	238.5
2961.447	234.5
2964.765	230.5
2968.079	230.5
2971.39	226.5
2974.699	239.5
2978.005	236.5
2981.308	237.5
2984.609	243.5
2987.907	240.5
2991.202	246.5
2994.494	248.5
2997.784	249.5
3001.07	254.5
3004.355	259.5
3007.636	259.5
3010.915	266.5
3014.191	254.5
3017.464	262.5
3020.734	262.5
3024.002	272.5
3027.267	277.5
3030.53	286.5
3033.789	289.5
3037.046	298.5
3040.301	304.5
3043.552	328.5
3046.801	318.5
3050.048	336.5
3053.291	341.5
3056.532	352.5
3059.771	368.5
3063.006	384.5
3066.239	388.5
3069.469	394.5
3072.697	413.5
3075.922	414.5
3079.144	427.5
3082.364	450.5
3085.581	453.5
3088.795	455.5
3092.007	475.5
3095.216	479.5
3098.423	492.5
3101.627	509.5
3104.828	508.5
3108.026	514.5
3111.222	531.5
3114.416	541.5
3117.607	558.5
3120.795	574.5
3123.98	570.5
3127.163	587.5
3130.344	604.5
3133.521	611.5
3136.696	636.5
3139.869	642.5
3143.039	651.5
3146.206	659.5
3149.371	684.5
3152.533	677.5
3155.693	676.5
3158.85	691.5
3162.005	693.5
3165.157	702.5
3168.306	679.5
3171.453	694.5
3174.597	693.5
3177.739	714.5
3180.878	724.5
3184.014	718.5
3187.149	717.5
3190.28	716.5
3193.409	722.5
3196.536	722.5
3199.659	732.5
3202.781	724.5
3205.9	730.5
3209.016	736.5
3212.13	730.5
3215.241	729.5
3218.35	727.5
3221.456	709.5
3224.56	703.5
3227.661	687.5
3230.76	695.5
3233.856	676.5
3236.95	661.5
3240.041	662.5
3243.13	651.5
3246.216	641.5
3249.3	624.5
3252.382	624.5
3255.46	621.5
3258.537	614.5
3261.611	613.5
3264.682	600.5
3267.751	607.5
3270.818	597.5
3273.882	590.5
3276.943	596.5
3280.002	587.5
3283.059	584.5
3286.113	584.5
3289.165	574.5
3292.214	557.5
3295.261	555.5
3298.306	556.5
3301.348	537.5
3304.387	528.5
3307.425	531.5
3310.459	530.5
3313.492	521.5
3316.521	526.5
3319.549	516.5
3322.574	503.5
3325.597	501.5
3328.617	517.5
3331.635	501.5
3334.65	491.5
3337.663	483.5
3340.674	500.5
3343.682	503.5
3346.688	502.5
3349.691	491.5
3352.692	485.5
3355.691	499.5
3358.687	474.5
3361.681	479.5
3364.673	467.5
3367.662	470.5
3370.649	463.5
3373.633	454.5
3376.615	434.5
3379.595	440.5
3382.572	429.5
3385.547	427.5
3388.52	423.5
3391.49	418.5
3394.458	406.5
3397.424	406.5
3400.387	396.5
3403.348	391.5
3406.307	383.5
3409.263	383.5
3412.217	368.5
3415.168	372.5
3418.118	381.5
3421.065	356.5
3424.009	348.5
3426.951	345.5
3429.891	336.5
3432.829	325.5
3435.764	324.5
3438.697	312.5
3441.628	311.5
3444.557	294.5
3447.483	285.5
3450.407	275.5
3453.328	269.5
3456.247	263.5
3459.164	247.5
3462.079	238.5
3464.991	231.5
3467.902	219.5
3470.809	222.5
3473.715	207.5
3476.618	200.5
3479.519	191.5
3482.418	183.5
3485.315	170.5
3488.209	163.5
3491.101	159.5
3493.99	165.5
3496.878	147.5
3499.763	136.5
3502.646	129.5
3505.527	119.5
3508.405	112.5
3511.281	106.5
3514.155	105.5
3517.027	93.5
3519.897	86.5
3522.764	78.5
3525.629	57.5
3528.492	61.5
3531.352	50.5
3534.211	50.5
3537.067	45.5
3539.921	34.5
3542.773	21.5
3545.622	9.5
3548.469	15.5
3551.315	14.5
3554.157	6.5
3556.998	-2.5
3559.837	1.5
3562.673	-2.5
3565.507	-4.5
3568.339	-11.5
3571.169	-24.5
3573.996	-24.5
3576.822	-24.5
3579.645	-22.5
3582.466	-27.5
3585.285	-35.5
3588.101	-27.5
3590.916	-45.5
3593.728	-50.5
3596.538	-52.5
3599.346	-48.5
3602.152	-53.5
3604.956	-51.5
3607.757	-48.5
3610.556	-62.5
3613.354	-58.5
3616.149	-75.5
3618.942	-66.5
3621.732	-62.5
3624.521	-72.5
3627.307	-68.5
3630.092	-71.5
3632.874	-70.5
3635.654	-82.5
3638.432	-67.5
3641.208	-78.5
3643.982	-88.5
3646.753	-86.5
3649.523	-86.5
3652.29	-85.5
3655.055	-88.5
3657.818	-90.5
3660.579	-90.5
3663.338	-90.5
3666.095	-91.5
3668.849	-99.5
3671.602	-98.5
3674.352	-102.5
3677.101	-100.5
3679.847	-106.5
3682.591	-103.5
3685.333	-105.5
3688.073	-106.5
3690.811	-111.5
3693.547	-117.5
3696.281	-107.5
3699.013	-106.5
3701.742	-112.5
3704.47	-112.5
3707.195	-108.5
3709.919	-111.5
3712.64	-116.5
3715.359	-117.5
3718.076	-118.5
3720.792	-116.5
3723.505	-117.5
3726.216	-111.5
3728.925	-120.5
3731.632	-119.5
3734.336	-128.5
3737.039	-122.5
3739.74	-124.5
3742.439	-125.5
3745.136	-116.5
3747.83	-122.5
3750.523	-122.5
3753.213	-125.5
3755.902	-119.5
3758.589	-127.5
3761.273	-116.5
3763.956	-118.5
3766.636	-126.5
3769.315	-118.5
3771.991	-120.5
3774.665	-124.5
3777.338	-125.5
3780.008	-126.5
3782.677	-129.5
3785.343	-127.5
3788.007	-126.5
3790.67	-121.5
3793.33	-118.5
3795.989	-121.5
3798.645	-123.5
3801.299	-126.5
3803.952	-135.5
3806.602	-122.5
3809.251	-128.5
3811.897	-130.5
3814.542	-130.5
3817.184	-122.5
3819.825	-128.5
3822.463	-128.5
3825.1	-126.5
3827.735	-129.5
3830.367	-128.5
3832.998	-125.5
3835.627	-130.5
3838.253	-128.5
3840.878	-129.5
3843.501	-123.5
3846.122	-128.5
3848.741	-130.5
3851.358	-124.5
3853.973	-136.5
3856.586	-125.5
3859.197	-137.5
3861.806	-128.5
3864.414	-132.5
3867.019	-127.5
3869.622	-129.5
3872.224	-116.5
3874.823	-112.5
3877.421	-105.5
3880.016	-86.5
3882.61	-69.5
3885.202	-64.5
3887.792	-78.5
3890.38	-100.5
3892.966	-120.5
3895.55	-121.5
3898.132	-129.5
3900.713	-127.5
3903.291	-133.5
3905.868	-128.5
3908.442	-125.5
3911.015	-129.5
3913.586	-132.5
3916.155	-134.5
3918.722	-136.5
3921.287	-136.5
3923.85	-131.5
3926.411	-131.5
3928.971	-133.5
3931.528	-133.5
3934.084	-128.5
3936.638	-129.5
3939.19	-139.5
3941.74	-133.5
3944.288	-129.5
3946.834	-132.5
3949.378	-127.5
3951.921	-128.5
3954.462	-135.5
3957	-134.5
3959.537	-129.5
3962.072	-133.5
3964.606	-129.5
3967.137	-126.5
3969.667	-133.5
3972.194	-135.5
3974.72	-128.5
3977.244	-134.5
3979.766	-132.5
3982.286	-128.5
3984.805	-132.5
3987.321	-127.5
3989.836	-123.5
3992.349	-129.5
3994.86	-130.5
3997.369	-123.5
3999.877	-127.5
4002.382	-124.5
4004.886	-130.5
4007.388	-126.5
4009.888	-126.5
4012.386	-132.5
4014.883	-133.5
4017.377	-131.5
4019.87	-131.5
4022.361	-134.5
4024.85	-128.5
4027.338	-124.5
4029.823	-126.5
4032.307	-127.5
4034.789	-132.5
4037.269	-132.5
4039.747	-133.5
4042.224	-125.5
4044.699	-128.5
4047.172	-130.5
4049.643	-127.5
4052.112	-136.5
4054.58	-129.5
4057.046	-134.5
4059.51	-132.5
4061.972	-129.5
4064.432	-127.5
4066.891	-130.5
4069.348	-123.5
4071.803	-136.5
4074.256	-129.5
4076.708	-128.5
4079.158	-134.5
4081.606	-123.5
4084.052	-131.5
4086.497	-126.5
4088.939	-122.5
4091.38	-125.5
4093.819	-129.5
4096.257	-137.5
4098.693	-135.5
4101.127	-133.5
4103.559	-132.5
4105.989	-7.5
4108.418	-13.5
4110.845	-13.5
4113.27	-15.5
4115.694	-16.5
4118.115	-9.5
4120.535	-132.5
4122.954	-132.5
4125.37	-125.5
4127.785	-130.5
4130.198	-126.5
4132.609	-131.5
4135.019	-136.5
4137.427	-138.5
4139.833	-142.5
4142.237	-138.5
