Data from 2018-2-8_conc=3_n=7_RamanShift_04.txt Node
Date: Mon Mar 12 14:49:28 IST 2018
User: aro
Spectrometer: QEPB0276
Trigger mode: 0
Integration Time (sec): 3.000000E1
Scans to average: 1
Electric dark correction enabled: true
Nonlinearity correction enabled: false
Boxcar width: 0
XAxis mode: Raman Shifts
Number of Pixels in Spectrum: 1044
>>>>>Begin Spectral Data<<<<<
160.701	9.4
166.742	39.4
172.777	123.4
178.805	382.4
184.826	1025.4
190.841	2253.4
196.849	3777.4
202.85	4949.4
208.845	5450.4
214.833	5445.4
220.815	5355.4
226.789	5339.4
232.758	5311.4
238.719	5323.4
244.674	5305.4
250.623	5233.4
256.565	5157.4
262.5	5102.4
268.429	5032.4
274.351	4982.4
280.267	4965.4
286.176	4923.4
292.079	4892.4
297.975	4868.4
303.865	4860.4
309.748	4858.4
315.625	4838.4
321.495	4828.4
327.359	4867.4
333.217	4811.4
339.068	4815.4
344.912	4831.4
350.751	4829.4
356.583	4820.4
362.408	4823.4
368.227	4855.4
374.04	4889.4
379.847	4897.4
385.647	4918.4
391.44	4923.4
397.228	4944.4
403.009	4985.4
408.784	5003.4
414.553	5012.4
420.315	5026.4
426.071	5022.4
431.821	5026.4
437.565	5021.4
443.302	5005.4
449.033	5000.4
454.758	4975.4
460.477	4932.4
466.189	4931.4
471.896	4897.4
477.596	4886.4
483.29	4835.4
488.978	4848.4
494.66	4844.4
500.335	4764.4
506.005	4655.4
511.668	4513.4
517.325	4392.4
522.977	4274.4
528.622	4203.4
534.261	4157.4
539.894	4139.4
545.521	4044.4
551.141	4018.4
556.756	4025.4
562.365	3994.4
567.968	3963.4
573.565	3935.4
579.155	3931.4
584.74	3927.4
590.319	3916.4
595.892	3878.4
601.459	3880.4
607.02	3848.4
612.575	3804.4
618.124	3781.4
623.667	3761.4
629.204	3728.4
634.735	3689.4
640.261	3693.4
645.781	3644.4
651.294	3670.4
656.802	3646.4
662.304	3635.4
667.8	3610.4
673.29	3606.4
678.775	3613.4
684.254	3586.4
689.726	3563.4
695.193	3551.4
700.655	3555.4
706.11	3527.4
711.56	3508.4
717.004	3466.4
722.442	3460.4
727.874	3452.4
733.301	3451.4
738.722	3421.4
744.137	3414.4
749.547	3421.4
754.951	3410.4
760.349	3420.4
765.741	3398.4
771.128	3438.4
776.509	3448.4
781.885	3479.4
787.254	3491.4
792.618	3460.4
797.977	3464.4
803.33	3438.4
808.677	3382.4
814.019	3366.4
819.355	3342.4
824.686	3321.4
830.011	3299.4
835.33	3307.4
840.644	3312.4
845.952	3298.4
851.255	3279.4
856.552	3285.4
861.844	3265.4
867.13	3239.4
872.41	3238.4
877.686	3200.4
882.955	3193.4
888.219	3172.4
893.478	3104.4
898.731	3065.4
903.979	3039.4
909.221	3009.4
914.458	3012.4
919.69	2967.4
924.916	2997.4
930.136	3008.4
935.351	3023.4
940.561	3012.4
945.766	3006.4
950.965	3029.4
956.158	2957.4
961.347	2934.4
966.529	2888.4
971.707	2866.4
976.879	2836.4
982.046	2791.4
987.208	2795.4
992.364	2788.4
997.515	2781.4
1002.66	2808.4
1007.801	2837.4
1012.936	2858.4
1018.066	2894.4
1023.19	2880.4
1028.309	2882.4
1033.423	2899.4
1038.532	2849.4
1043.636	2835.4
1048.734	2820.4
1053.827	2778.4
1058.915	2729.4
1063.998	2712.4
1069.075	2712.4
1074.147	2718.4
1079.214	2703.4
1084.276	2729.4
1089.333	2742.4
1094.385	2746.4
1099.431	2775.4
1104.472	2740.4
1109.509	2741.4
1114.54	2704.4
1119.565	2645.4
1124.586	2637.4
1129.602	2592.4
1134.613	2585.4
1139.618	2559.4
1144.619	2553.4
1149.614	2548.4
1154.604	2570.4
1159.589	2573.4
1164.57	2556.4
1169.545	2568.4
1174.515	2592.4
1179.48	2544.4
1184.44	2545.4
1189.395	2524.4
1194.345	2513.4
1199.29	2489.4
1204.23	2490.4
1209.165	2467.4
1214.095	2489.4
1219.021	2506.4
1223.941	2524.4
1228.856	2551.4
1233.766	2556.4
1238.672	2549.4
1243.572	2526.4
1248.467	2534.4
1253.358	2511.4
1258.244	2455.4
1263.124	2422.4
1268	2380.4
1272.871	2362.4
1277.737	2335.4
1282.599	2324.4
1287.455	2309.4
1292.306	2321.4
1297.153	2345.4
1301.995	2358.4
1306.832	2367.4
1311.664	2378.4
1316.491	2392.4
1321.314	2350.4
1326.132	2347.4
1330.945	2344.4
1335.753	2295.4
1340.556	2252.4
1345.354	2213.4
1350.148	2223.4
1354.937	2161.4
1359.722	2117.4
1364.501	2081.4
1369.276	2049.4
1374.046	2015.4
1378.811	1983.4
1383.572	1983.4
1388.327	1977.4
1393.079	1971.4
1397.825	1977.4
1402.567	1969.4
1407.304	1985.4
1412.036	1978.4
1416.764	1974.4
1421.487	2000.4
1426.205	1993.4
1430.919	2009.4
1435.628	2028.4
1440.333	2025.4
1445.032	2021.4
1449.727	2063.4
1454.418	2066.4
1459.104	2067.4
1463.785	2033.4
1468.462	1997.4
1473.134	1960.4
1477.802	1912.4
1482.465	1890.4
1487.123	1835.4
1491.777	1828.4
1496.426	1803.4
1501.071	1781.4
1505.711	1772.4
1510.347	1796.4
1514.978	1761.4
1519.604	1748.4
1524.226	1767.4
1528.844	1730.4
1533.457	1737.4
1538.065	1742.4
1542.669	1735.4
1547.269	1726.4
1551.864	1711.4
1556.454	1746.4
1561.041	1769.4
1565.622	1793.4
1570.199	1751.4
1574.772	1785.4
1579.34	1837.4
1583.904	1843.4
1588.464	1850.4
1593.019	1853.4
1597.569	1835.4
1602.115	1848.4
1606.657	1830.4
1611.195	1838.4
1615.728	1830.4
1620.256	1818.4
1624.78	1839.4
1629.3	1840.4
1633.816	1841.4
1638.327	1849.4
1642.834	1860.4
1647.336	1875.4
1651.834	1855.4
1656.328	1860.4
1660.817	1869.4
1665.302	1831.4
1669.783	1802.4
1674.259	1753.4
1678.732	1728.4
1683.199	1670.4
1687.663	1621.4
1692.122	1571.4
1696.577	1512.4
1701.028	1437.4
1705.474	1385.4
1709.917	1341.4
1714.355	1323.4
1718.788	1314.4
1723.218	1320.4
1727.643	1313.4
1732.064	1307.4
1736.481	1306.4
1740.893	1278.4
1745.301	1239.4
1749.705	1233.4
1754.105	1200.4
1758.501	1185.4
1762.893	1164.4
1767.28	1132.4
1771.663	1143.4
1776.042	1122.4
1780.417	1102.4
1784.787	1111.4
1789.154	1096.4
1793.516	1083.4
1797.874	1055.4
1802.228	1063.4
1806.578	1030.4
1810.924	1022.4
1815.266	1000.4
1819.603	1021.4
1823.937	1029.4
1828.266	1010.4
1832.591	1017.4
1836.913	1018.4
1841.23	1036.4
1845.543	1016.4
1849.852	1021.4
1854.156	1011.4
1858.457	1018.4
1862.754	1011.4
1867.047	1016.4
1871.335	1010.4
1875.62	1030.4
1879.9	1024.4
1884.177	1012.4
1888.449	987.4
1892.718	981.4
1896.982	980.4
1901.243	945.4
1905.499	941.4
1909.752	945.4
1914	921.4
1918.245	921.4
1922.485	900.4
1926.722	880.4
1930.954	894.4
1935.183	883.4
1939.408	868.4
1943.628	894.4
1947.845	871.4
1952.058	864.4
1956.267	851.4
1960.472	841.4
1964.673	842.4
1968.87	833.4
1973.063	826.4
1977.252	808.4
1981.438	831.4
1985.619	818.4
1989.797	816.4
1993.971	830.4
1998.14	836.4
2002.306	824.4
2006.469	844.4
2010.627	827.4
2014.781	828.4
2018.932	816.4
2023.078	815.4
2027.221	821.4
2031.36	816.4
2035.495	793.4
2039.627	780.4
2043.754	781.4
2047.878	775.4
2051.998	777.4
2056.114	765.4
2060.226	768.4
2064.334	761.4
2068.439	750.4
2072.54	758.4
2076.637	759.4
2080.73	746.4
2084.82	746.4
2088.906	739.4
2092.988	731.4
2097.066	731.4
2101.14	706.4
2105.211	710.4
2109.278	693.4
2113.342	684.4
2117.401	675.4
2121.457	682.4
2125.509	659.4
2129.558	679.4
2133.602	674.4
2137.643	671.4
2141.681	665.4
2145.714	675.4
2149.744	678.4
2153.77	663.4
2157.793	660.4
2161.812	663.4
2165.827	647.4
2169.838	650.4
2173.846	644.4
2177.851	623.4
2181.851	616.4
2185.848	610.4
2189.841	625.4
2193.831	594.4
2197.817	592.4
2201.799	605.4
2205.778	589.4
2209.753	591.4
2213.725	586.4
2217.693	585.4
2221.657	574.4
2225.618	586.4
2229.575	576.4
2233.529	583.4
2237.479	571.4
2241.425	562.4
2245.368	553.4
2249.307	556.4
2253.243	540.4
2257.175	537.4
2261.104	533.4
2265.029	518.4
2268.95	524.4
2272.868	505.4
2276.783	503.4
2280.694	501.4
2284.601	497.4
2288.505	486.4
2292.405	483.4
2296.302	483.4
2300.195	472.4
2304.085	460.4
2307.971	449.4
2311.854	445.4
2315.734	439.4
2319.609	430.4
2323.482	432.4
2327.351	433.4
2331.216	449.4
2335.078	460.4
2338.937	435.4
2342.792	424.4
2346.643	420.4
2350.492	417.4
2354.336	420.4
2358.178	423.4
2362.015	414.4
2365.85	424.4
2369.681	432.4
2373.508	431.4
2377.333	429.4
2381.153	420.4
2384.971	426.4
2388.785	420.4
2392.595	410.4
2396.402	405.4
2400.206	411.4
2404.007	405.4
2407.804	412.4
2411.597	394.4
2415.388	390.4
2419.174	393.4
2422.958	397.4
2426.738	406.4
2430.515	389.4
2434.289	398.4
2438.059	377.4
2441.825	377.4
2445.589	377.4
2449.349	360.4
2453.106	362.4
2456.859	368.4
2460.61	366.4
2464.356	350.4
2468.1	348.4
2471.84	343.4
2475.577	350.4
2479.311	323.4
2483.041	342.4
2486.768	339.4
2490.492	323.4
2494.213	337.4
2497.93	340.4
2501.644	325.4
2505.355	319.4
2509.062	314.4
2512.766	320.4
2516.467	322.4
2520.165	311.4
2523.859	311.4
2527.551	301.4
2531.239	294.4
2534.923	291.4
2538.605	284.4
2542.283	285.4
2545.958	280.4
2549.63	292.4
2553.299	274.4
2556.964	277.4
2560.626	264.4
2564.285	258.4
2567.941	258.4
2571.594	255.4
2575.243	266.4
2578.89	250.4
2582.533	244.4
2586.173	247.4
2589.809	241.4
2593.443	248.4
2597.073	235.4
2600.701	237.4
2604.325	235.4
2607.946	230.4
2611.564	236.4
2615.178	240.4
2618.79	242.4
2622.398	226.4
2626.004	230.4
2629.606	224.4
2633.205	222.4
2636.801	218.4
2640.394	219.4
2643.983	227.4
2647.57	212.4
2651.153	207.4
2654.734	210.4
2658.311	198.4
2661.885	197.4
2665.456	201.4
2669.025	198.4
2672.589	196.4
2676.151	205.4
2679.71	194.4
2683.266	187.4
2686.819	191.4
2690.368	183.4
2693.915	180.4
2697.458	180.4
2700.999	178.4
2704.536	182.4
2708.071	167.4
2711.602	159.4
2715.13	164.4
2718.656	161.4
2722.178	156.4
2725.697	157.4
2729.214	149.4
2732.727	158.4
2736.237	162.4
2739.744	144.4
2743.249	149.4
2746.75	148.4
2750.248	141.4
2753.743	143.4
2757.236	137.4
2760.725	134.4
2764.211	128.4
2767.695	126.4
2771.175	120.4
2774.652	124.4
2778.127	119.4
2781.598	120.4
2785.067	132.4
2788.532	124.4
2791.995	126.4
2795.455	123.4
2798.911	127.4
2802.365	129.4
2805.816	129.4
2809.264	122.4
2812.709	122.4
2816.151	132.4
2819.59	126.4
2823.026	134.4
2826.46	130.4
2829.89	127.4
2833.318	121.4
2836.742	134.4
2840.164	128.4
2843.583	131.4
2846.999	136.4
2850.412	126.4
2853.822	142.4
2857.229	131.4
2860.634	138.4
2864.035	141.4
2867.434	151.4
2870.83	151.4
2874.223	156.4
2877.613	165.4
2881	176.4
2884.385	170.4
2887.766	165.4
2891.145	161.4
2894.521	160.4
2897.894	176.4
2901.264	174.4
2904.631	173.4
2907.996	165.4
2911.358	169.4
2914.717	174.4
2918.073	180.4
2921.426	189.4
2924.777	185.4
2928.124	199.4
2931.469	192.4
2934.811	200.4
2938.15	203.4
2941.487	211.4
2944.821	206.4
2948.152	201.4
2951.48	212.4
2954.805	212.4
2958.128	210.4
2961.447	202.4
2964.765	213.4
2968.079	216.4
2971.39	200.4
2974.699	215.4
2978.005	201.4
2981.308	219.4
2984.609	209.4
2987.907	209.4
2991.202	216.4
2994.494	220.4
2997.784	217.4
3001.07	224.4
3004.355	233.4
3007.636	229.4
3010.915	235.4
3014.191	236.4
3017.464	243.4
3020.734	236.4
3024.002	231.4
3027.267	256.4
3030.53	249.4
3033.789	266.4
3037.046	273.4
3040.301	263.4
3043.552	290.4
3046.801	291.4
3050.048	300.4
3053.291	297.4
3056.532	320.4
3059.771	332.4
3063.006	329.4
3066.239	343.4
3069.469	361.4
3072.697	366.4
3075.922	386.4
3079.144	395.4
3082.364	400.4
3085.581	410.4
3088.795	417.4
3092.007	430.4
3095.216	432.4
3098.423	438.4
3101.627	459.4
3104.828	460.4
3108.026	463.4
3111.222	481.4
3114.416	492.4
3117.607	512.4
3120.795	511.4
3123.98	526.4
3127.163	530.4
3130.344	544.4
3133.521	558.4
3136.696	572.4
3139.869	580.4
3143.039	586.4
3146.206	603.4
3149.371	611.4
3152.533	616.4
3155.693	639.4
3158.85	619.4
3162.005	627.4
3165.157	643.4
3168.306	635.4
3171.453	626.4
3174.597	645.4
3177.739	643.4
3180.878	651.4
3184.014	666.4
3187.149	649.4
3190.28	649.4
3193.409	656.4
3196.536	661.4
3199.659	660.4
3202.781	663.4
3205.9	674.4
3209.016	671.4
3212.13	664.4
3215.241	663.4
3218.35	662.4
3221.456	646.4
3224.56	645.4
3227.661	629.4
3230.76	624.4
3233.856	618.4
3236.95	609.4
3240.041	608.4
3243.13	585.4
3246.216	581.4
3249.3	575.4
3252.382	576.4
3255.46	559.4
3258.537	559.4
3261.611	553.4
3264.682	540.4
3267.751	549.4
3270.818	542.4
3273.882	555.4
3276.943	543.4
3280.002	627.4
3283.059	579.4
3286.113	532.4
3289.165	528.4
3292.214	507.4
3295.261	510.4
3298.306	506.4
3301.348	495.4
3304.387	486.4
3307.425	480.4
3310.459	474.4
3313.492	478.4
3316.521	466.4
3319.549	461.4
3322.574	461.4
3325.597	471.4
3328.617	461.4
3331.635	451.4
3334.65	452.4
3337.663	439.4
3340.674	460.4
3343.682	466.4
3346.688	444.4
3349.691	456.4
3352.692	446.4
3355.691	449.4
3358.687	440.4
3361.681	430.4
3364.673	439.4
3367.662	428.4
3370.649	415.4
3373.633	410.4
3376.615	393.4
3379.595	394.4
3382.572	396.4
3385.547	384.4
3388.52	383.4
3391.49	363.4
3394.458	371.4
3397.424	368.4
3400.387	352.4
3403.348	356.4
3406.307	342.4
3409.263	334.4
3412.217	334.4
3415.168	334.4
3418.118	328.4
3421.065	322.4
3424.009	323.4
3426.951	312.4
3429.891	307.4
3432.829	289.4
3435.764	286.4
3438.697	289.4
3441.628	279.4
3444.557	266.4
3447.483	256.4
3450.407	246.4
3453.328	228.4
3456.247	224.4
3459.164	223.4
3462.079	207.4
3464.991	196.4
3467.902	189.4
3470.809	191.4
3473.715	163.4
3476.618	164.4
3479.519	163.4
3482.418	149.4
3485.315	148.4
3488.209	136.4
3491.101	137.4
3493.99	134.4
3496.878	117.4
3499.763	108.4
3502.646	108.4
3505.527	105.4
3508.405	100.4
3511.281	93.4
3514.155	81.4
3517.027	76.4
3519.897	67.4
3522.764	58.4
3525.629	48.4
3528.492	44.4
3531.352	40.4
3534.211	32.4
3537.067	24.4
3539.921	23.4
3542.773	15.4
3545.622	8.4
3548.469	5.4
3551.315	9.4
3554.157	-3.6
3556.998	-11.6
3559.837	-14.6
3562.673	-15.6
3565.507	-19.6
3568.339	-22.6
3571.169	-29.6
3573.996	-29.6
3576.822	-33.6
3579.645	-35.6
3582.466	-35.6
3585.285	-52.6
3588.101	-38.6
3590.916	-48.6
3593.728	-56.6
3596.538	-52.6
3599.346	-60.6
3602.152	-59.6
3604.956	-63.6
3607.757	-57.6
3610.556	-64.6
3613.354	-64.6
3616.149	-75.6
3618.942	-74.6
3621.732	-82.6
3624.521	-79.6
3627.307	-77.6
3630.092	-82.6
3632.874	-81.6
3635.654	-82.6
3638.432	-84.6
3641.208	-82.6
3643.982	-97.6
3646.753	-87.6
3649.523	-100.6
3652.29	-88.6
3655.055	-93.6
3657.818	-92.6
3660.579	-97.6
3663.338	-97.6
3666.095	-101.6
3668.849	-107.6
3671.602	-108.6
3674.352	-105.6
3677.101	-105.6
3679.847	-105.6
3682.591	-113.6
3685.333	-109.6
3688.073	-110.6
3690.811	-112.6
3693.547	-119.6
3696.281	-111.6
3699.013	-111.6
3701.742	-117.6
3704.47	-113.6
3707.195	-115.6
3709.919	-119.6
3712.64	-120.6
3715.359	-127.6
3718.076	-122.6
3720.792	-120.6
3723.505	-122.6
3726.216	-117.6
3728.925	-122.6
3731.632	-122.6
3734.336	-133.6
3737.039	-125.6
3739.74	-127.6
3742.439	-133.6
3745.136	-117.6
3747.83	-127.6
3750.523	-129.6
3753.213	-129.6
3755.902	-126.6
3758.589	-131.6
3761.273	-128.6
3763.956	-122.6
3766.636	-126.6
3769.315	-121.6
3771.991	-127.6
3774.665	-129.6
3777.338	-123.6
3780.008	-133.6
3782.677	-130.6
3785.343	-127.6
3788.007	-131.6
3790.67	-124.6
3793.33	-126.6
3795.989	-129.6
3798.645	-127.6
3801.299	-129.6
3803.952	-137.6
3806.602	-129.6
3809.251	-133.6
3811.897	-131.6
3814.542	-134.6
3817.184	-126.6
3819.825	-132.6
3822.463	-132.6
3825.1	-131.6
3827.735	-134.6
3830.367	-134.6
3832.998	-134.6
3835.627	-127.6
3838.253	-127.6
3840.878	-127.6
3843.501	-127.6
3846.122	-132.6
3848.741	-136.6
3851.358	-129.6
3853.973	-137.6
3856.586	-136.6
3859.197	-133.6
3861.806	-130.6
3864.414	-135.6
3867.019	-132.6
3869.622	-136.6
3872.224	-120.6
3874.823	-116.6
3877.421	-103.6
3880.016	-78.6
3882.61	-63.6
3885.202	-68.6
3887.792	-82.6
3890.38	-103.6
3892.966	-126.6
3895.55	-127.6
3898.132	-134.6
3900.713	-133.6
3903.291	-132.6
3905.868	-133.6
3908.442	-130.6
3911.015	-135.6
3913.586	-135.6
3916.155	-139.6
3918.722	-140.6
3921.287	-136.6
3923.85	-131.6
3926.411	-134.6
3928.971	-138.6
3931.528	-138.6
3934.084	-133.6
3936.638	-130.6
3939.19	-140.6
3941.74	-137.6
3944.288	-138.6
3946.834	-131.6
3949.378	-130.6
3951.921	-134.6
3954.462	-143.6
3957	-137.6
3959.537	-132.6
3962.072	-136.6
3964.606	-129.6
3967.137	-130.6
3969.667	-136.6
3972.194	-138.6
3974.72	-132.6
3977.244	-138.6
3979.766	-132.6
3982.286	-133.6
3984.805	-133.6
3987.321	-133.6
3989.836	-121.6
3992.349	-133.6
3994.86	-137.6
3997.369	-134.6
3999.877	-137.6
4002.382	-126.6
4004.886	-134.6
4007.388	-133.6
4009.888	-126.6
4012.386	-134.6
4014.883	-131.6
4017.377	-135.6
4019.87	-137.6
4022.361	-135.6
4024.85	-136.6
4027.338	-133.6
4029.823	-128.6
4032.307	-126.6
4034.789	-133.6
4037.269	-132.6
4039.747	-126.6
4042.224	-132.6
4044.699	-134.6
4047.172	-129.6
4049.643	-128.6
4052.112	-131.6
4054.58	-132.6
4057.046	-134.6
4059.51	-132.6
4061.972	-133.6
4064.432	-139.6
4066.891	-137.6
4069.348	-130.6
4071.803	-133.6
4074.256	-135.6
4076.708	-130.6
4079.158	-134.6
4081.606	-129.6
4084.052	-135.6
4086.497	-131.6
4088.939	-124.6
4091.38	-132.6
4093.819	-131.6
4096.257	-138.6
4098.693	-137.6
4101.127	-141.6
4103.559	-135.6
4105.989	-5.6
4108.418	-11.6
4110.845	-2.6
4113.27	-10.6
4115.694	-13.6
4118.115	-8.6
4120.535	-132.6
4122.954	-139.6
4125.37	-131.6
4127.785	-129.6
4130.198	-134.6
4132.609	-131.6
4135.019	-138.6
4137.427	-139.6
4139.833	-136.6
4142.237	-139.6
