Data from 2018-2-8_conc=4_n=9_RamanShift_03.txt Node
Date: Mon Mar 12 15:37:28 IST 2018
User: aro
Spectrometer: QEPB0276
Trigger mode: 0
Integration Time (sec): 3.000000E1
Scans to average: 1
Electric dark correction enabled: true
Nonlinearity correction enabled: false
Boxcar width: 0
XAxis mode: Raman Shifts
Number of Pixels in Spectrum: 1044
>>>>>Begin Spectral Data<<<<<
160.701	20.4
166.742	57.4
172.777	144.4
178.805	442.4
184.826	1174.4
190.841	2561.4
196.849	4278.4
202.85	5580.4
208.845	6115.4
214.833	6105.4
220.815	6002.4
226.789	5975.4
232.758	5980.4
238.719	5943.4
244.674	5893.4
250.623	5843.4
256.565	5750.4
262.5	5640.4
268.429	5555.4
274.351	5475.4
280.267	5466.4
286.176	5424.4
292.079	5345.4
297.975	5342.4
303.865	5327.4
309.748	5293.4
315.625	5285.4
321.495	5252.4
327.359	5251.4
333.217	5240.4
339.068	5263.4
344.912	5240.4
350.751	5280.4
356.583	5302.4
362.408	5295.4
368.227	5258.4
374.04	5286.4
379.847	5289.4
385.647	5348.4
391.44	5349.4
397.228	5408.4
403.009	5400.4
408.784	5438.4
414.553	5453.4
420.315	5496.4
426.071	5487.4
431.821	5473.4
437.565	5466.4
443.302	5456.4
449.033	5430.4
454.758	5426.4
460.477	5374.4
466.189	5390.4
471.896	5334.4
477.596	5298.4
483.29	5307.4
488.978	5310.4
494.66	5246.4
500.335	5175.4
506.005	5076.4
511.668	4906.4
517.325	4758.4
522.977	4661.4
528.622	4585.4
534.261	4508.4
539.894	4445.4
545.521	4421.4
551.141	4397.4
556.756	4356.4
562.365	4311.4
567.968	4304.4
573.565	4274.4
579.155	4224.4
584.74	4249.4
590.319	4195.4
595.892	4220.4
601.459	4205.4
607.02	4183.4
612.575	4149.4
618.124	4125.4
623.667	4058.4
629.204	4050.4
634.735	4015.4
640.261	3975.4
645.781	3957.4
651.294	3959.4
656.802	3940.4
662.304	3957.4
667.8	3936.4
673.29	3940.4
678.775	3898.4
684.254	3867.4
689.726	3916.4
695.193	3888.4
700.655	3856.4
706.11	3849.4
711.56	3801.4
717.004	3787.4
722.442	3760.4
727.874	3754.4
733.301	3718.4
738.722	3715.4
744.137	3700.4
749.547	3687.4
754.951	3684.4
760.349	3686.4
765.741	3705.4
771.128	3711.4
776.509	3741.4
781.885	3783.4
787.254	3770.4
792.618	3790.4
797.977	3736.4
803.33	3758.4
808.677	3681.4
814.019	3684.4
819.355	3644.4
824.686	3606.4
830.011	3621.4
835.33	3598.4
840.644	3601.4
845.952	3578.4
851.255	3574.4
856.552	3579.4
861.844	3544.4
867.13	3523.4
872.41	3478.4
877.686	3472.4
882.955	3476.4
888.219	3442.4
893.478	3394.4
898.731	3359.4
903.979	3281.4
909.221	3292.4
914.458	3247.4
919.69	3238.4
924.916	3258.4
930.136	3285.4
935.351	3271.4
940.561	3281.4
945.766	3241.4
950.965	3270.4
956.158	3228.4
961.347	3181.4
966.529	3146.4
971.707	3100.4
976.879	3076.4
982.046	3033.4
987.208	3038.4
992.364	3018.4
997.515	3037.4
1002.66	3064.4
1007.801	3089.4
1012.936	3125.4
1018.066	3132.4
1023.19	3144.4
1028.309	3119.4
1033.423	3139.4
1038.532	3119.4
1043.636	3091.4
1048.734	3065.4
1053.827	3030.4
1058.915	2993.4
1063.998	2963.4
1069.075	2959.4
1074.147	2973.4
1079.214	2951.4
1084.276	2962.4
1089.333	2989.4
1094.385	2989.4
1099.431	2993.4
1104.472	2984.4
1109.509	2988.4
1114.54	2958.4
1119.565	2889.4
1124.586	2853.4
1129.602	2832.4
1134.613	2823.4
1139.618	2776.4
1144.619	2796.4
1149.614	2762.4
1154.604	2803.4
1159.589	2805.4
1164.57	2819.4
1169.545	2801.4
1174.515	2818.4
1179.48	2786.4
1184.44	2763.4
1189.395	2783.4
1194.345	2737.4
1199.29	2722.4
1204.23	2708.4
1209.165	2736.4
1214.095	2731.4
1219.021	2752.4
1223.941	2760.4
1228.856	2786.4
1233.766	2808.4
1238.672	2771.4
1243.572	2795.4
1248.467	2770.4
1253.358	2728.4
1258.244	2692.4
1263.124	2651.4
1268	2595.4
1272.871	2593.4
1277.737	2547.4
1282.599	2554.4
1287.455	2537.4
1292.306	2553.4
1297.153	2557.4
1301.995	2599.4
1306.832	2585.4
1311.664	2609.4
1316.491	2627.4
1321.314	2611.4
1326.132	2620.4
1330.945	2566.4
1335.753	2539.4
1340.556	2484.4
1345.354	2479.4
1350.148	2399.4
1354.937	2378.4
1359.722	2324.4
1364.501	2302.4
1369.276	2261.4
1374.046	2249.4
1378.811	2179.4
1383.572	2189.4
1388.327	2193.4
1393.079	2192.4
1397.825	2204.4
1402.567	2194.4
1407.304	2188.4
1412.036	2191.4
1416.764	2208.4
1421.487	2215.4
1426.205	2216.4
1430.919	2212.4
1435.628	2222.4
1440.333	2245.4
1445.032	2268.4
1449.727	2297.4
1454.418	2294.4
1459.104	2291.4
1463.785	2264.4
1468.462	2200.4
1473.134	2180.4
1477.802	2127.4
1482.465	2100.4
1487.123	2060.4
1491.777	2012.4
1496.426	1994.4
1501.071	1998.4
1505.711	1960.4
1510.347	1970.4
1514.978	1993.4
1519.604	1965.4
1524.226	1973.4
1528.844	1950.4
1533.457	1929.4
1538.065	1914.4
1542.669	1928.4
1547.269	1916.4
1551.864	1938.4
1556.454	1961.4
1561.041	1956.4
1565.622	1989.4
1570.199	1962.4
1574.772	2004.4
1579.34	2034.4
1583.904	2042.4
1588.464	2078.4
1593.019	2071.4
1597.569	2087.4
1602.115	2082.4
1606.657	2064.4
1611.195	2070.4
1615.728	2060.4
1620.256	2041.4
1624.78	2066.4
1629.3	2068.4
1633.816	2078.4
1638.327	2095.4
1642.834	2091.4
1647.336	2099.4
1651.834	2137.4
1656.328	2111.4
1660.817	2095.4
1665.302	2083.4
1669.783	2050.4
1674.259	2002.4
1678.732	1943.4
1683.199	1896.4
1687.663	1855.4
1692.122	1790.4
1696.577	1707.4
1701.028	1631.4
1705.474	1579.4
1709.917	1508.4
1714.355	1491.4
1718.788	1481.4
1723.218	1482.4
1727.643	1483.4
1732.064	1464.4
1736.481	1465.4
1740.893	1423.4
1745.301	1384.4
1749.705	1379.4
1754.105	1343.4
1758.501	1329.4
1762.893	1295.4
1767.28	1300.4
1771.663	1261.4
1776.042	1262.4
1780.417	1234.4
1784.787	1253.4
1789.154	1245.4
1793.516	1215.4
1797.874	1184.4
1802.228	1174.4
1806.578	1161.4
1810.924	1150.4
1815.266	1135.4
1819.603	1146.4
1823.937	1149.4
1828.266	1139.4
1832.591	1122.4
1836.913	1135.4
1841.23	1124.4
1845.543	1151.4
1849.852	1144.4
1854.156	1122.4
1858.457	1144.4
1862.754	1142.4
1867.047	1135.4
1871.335	1137.4
1875.62	1144.4
1879.9	1129.4
1884.177	1153.4
1888.449	1118.4
1892.718	1102.4
1896.982	1092.4
1901.243	1071.4
1905.499	1060.4
1909.752	1048.4
1914	1034.4
1918.245	1016.4
1922.485	1016.4
1926.722	1008.4
1930.954	1002.4
1935.183	982.4
1939.408	999.4
1943.628	990.4
1947.845	968.4
1952.058	960.4
1956.267	956.4
1960.472	956.4
1964.673	943.4
1968.87	927.4
1973.063	917.4
1977.252	919.4
1981.438	935.4
1985.619	919.4
1989.797	913.4
1993.971	933.4
1998.14	921.4
2002.306	917.4
2006.469	937.4
2010.627	938.4
2014.781	948.4
2018.932	926.4
2023.078	937.4
2027.221	917.4
2031.36	904.4
2035.495	900.4
2039.627	893.4
2043.754	873.4
2047.878	870.4
2051.998	862.4
2056.114	866.4
2060.226	875.4
2064.334	864.4
2068.439	848.4
2072.54	855.4
2076.637	850.4
2080.73	852.4
2084.82	852.4
2088.906	823.4
2092.988	833.4
2097.066	815.4
2101.14	805.4
2105.211	790.4
2109.278	792.4
2113.342	772.4
2117.401	762.4
2121.457	769.4
2125.509	758.4
2129.558	767.4
2133.602	760.4
2137.643	765.4
2141.681	759.4
2145.714	757.4
2149.744	761.4
2153.77	762.4
2157.793	753.4
2161.812	750.4
2165.827	737.4
2169.838	734.4
2173.846	725.4
2177.851	695.4
2181.851	691.4
2185.848	698.4
2189.841	685.4
2193.831	682.4
2197.817	669.4
2201.799	673.4
2205.778	675.4
2209.753	673.4
2213.725	662.4
2217.693	661.4
2221.657	666.4
2225.618	663.4
2229.575	661.4
2233.529	668.4
2237.479	646.4
2241.425	648.4
2245.368	623.4
2249.307	629.4
2253.243	612.4
2257.175	600.4
2261.104	595.4
2265.029	574.4
2268.95	590.4
2272.868	573.4
2276.783	576.4
2280.694	569.4
2284.601	548.4
2288.505	545.4
2292.405	545.4
2296.302	528.4
2300.195	539.4
2304.085	524.4
2307.971	512.4
2311.854	507.4
2315.734	493.4
2319.609	487.4
2323.482	490.4
2327.351	492.4
2331.216	500.4
2335.078	518.4
2338.937	487.4
2342.792	482.4
2346.643	476.4
2350.492	461.4
2354.336	477.4
2358.178	465.4
2362.015	474.4
2365.85	478.4
2369.681	473.4
2373.508	481.4
2377.333	473.4
2381.153	470.4
2384.971	481.4
2388.785	474.4
2392.595	457.4
2396.402	464.4
2400.206	462.4
2404.007	461.4
2407.804	449.4
2411.597	457.4
2415.388	442.4
2419.174	448.4
2422.958	443.4
2426.738	443.4
2430.515	448.4
2434.289	435.4
2438.059	436.4
2441.825	420.4
2445.589	426.4
2449.349	407.4
2453.106	406.4
2456.859	414.4
2460.61	402.4
2464.356	390.4
2468.1	402.4
2471.84	382.4
2475.577	386.4
2479.311	365.4
2483.041	376.4
2486.768	381.4
2490.492	370.4
2494.213	387.4
2497.93	370.4
2501.644	370.4
2505.355	355.4
2509.062	361.4
2512.766	355.4
2516.467	351.4
2520.165	360.4
2523.859	348.4
2527.551	346.4
2531.239	331.4
2534.923	336.4
2538.605	320.4
2542.283	329.4
2545.958	316.4
2549.63	324.4
2553.299	316.4
2556.964	320.4
2560.626	297.4
2564.285	292.4
2567.941	299.4
2571.594	296.4
2575.243	296.4
2578.89	285.4
2582.533	288.4
2586.173	273.4
2589.809	268.4
2593.443	270.4
2597.073	271.4
2600.701	264.4
2604.325	262.4
2607.946	274.4
2611.564	265.4
2615.178	264.4
2618.79	268.4
2622.398	268.4
2626.004	261.4
2629.606	265.4
2633.205	250.4
2636.801	252.4
2640.394	255.4
2643.983	234.4
2647.57	237.4
2651.153	231.4
2654.734	245.4
2658.311	228.4
2661.885	228.4
2665.456	233.4
2669.025	225.4
2672.589	223.4
2676.151	230.4
2679.71	224.4
2683.266	220.4
2686.819	216.4
2690.368	215.4
2693.915	209.4
2697.458	201.4
2700.999	196.4
2704.536	199.4
2708.071	192.4
2711.602	191.4
2715.13	193.4
2718.656	186.4
2722.178	179.4
2725.697	182.4
2729.214	173.4
2732.727	180.4
2736.237	187.4
2739.744	175.4
2743.249	171.4
2746.75	167.4
2750.248	157.4
2753.743	151.4
2757.236	151.4
2760.725	154.4
2764.211	152.4
2767.695	149.4
2771.175	132.4
2774.652	137.4
2778.127	141.4
2781.598	134.4
2785.067	145.4
2788.532	143.4
2791.995	145.4
2795.455	138.4
2798.911	146.4
2802.365	145.4
2805.816	143.4
2809.264	149.4
2812.709	152.4
2816.151	150.4
2819.59	149.4
2823.026	148.4
2826.46	149.4
2829.89	142.4
2833.318	139.4
2836.742	152.4
2840.164	153.4
2843.583	161.4
2846.999	160.4
2850.412	155.4
2853.822	150.4
2857.229	157.4
2860.634	160.4
2864.035	167.4
2867.434	173.4
2870.83	176.4
2874.223	188.4
2877.613	194.4
2881	201.4
2884.385	202.4
2887.766	190.4
2891.145	200.4
2894.521	201.4
2897.894	205.4
2901.264	210.4
2904.631	198.4
2907.996	215.4
2911.358	208.4
2914.717	207.4
2918.073	222.4
2921.426	221.4
2924.777	238.4
2928.124	239.4
2931.469	233.4
2934.811	246.4
2938.15	252.4
2941.487	255.4
2944.821	264.4
2948.152	268.4
2951.48	261.4
2954.805	254.4
2958.128	247.4
2961.447	240.4
2964.765	251.4
2968.079	248.4
2971.39	260.4
2974.699	258.4
2978.005	253.4
2981.308	261.4
2984.609	252.4
2987.907	259.4
2991.202	275.4
2994.494	266.4
2997.784	263.4
3001.07	276.4
3004.355	280.4
3007.636	286.4
3010.915	278.4
3014.191	284.4
3017.464	292.4
3020.734	303.4
3024.002	295.4
3027.267	309.4
3030.53	313.4
3033.789	323.4
3037.046	325.4
3040.301	325.4
3043.552	356.4
3046.801	353.4
3050.048	371.4
3053.291	373.4
3056.532	389.4
3059.771	401.4
3063.006	408.4
3066.239	433.4
3069.469	448.4
3072.697	447.4
3075.922	475.4
3079.144	493.4
3082.364	494.4
3085.581	506.4
3088.795	513.4
3092.007	521.4
3095.216	546.4
3098.423	551.4
3101.627	563.4
3104.828	567.4
3108.026	576.4
3111.222	597.4
3114.416	619.4
3117.607	614.4
3120.795	626.4
3123.98	636.4
3127.163	647.4
3130.344	672.4
3133.521	688.4
3136.696	697.4
3139.869	715.4
3143.039	721.4
3146.206	738.4
3149.371	745.4
3152.533	749.4
3155.693	770.4
3158.85	778.4
3162.005	779.4
3165.157	773.4
3168.306	779.4
3171.453	787.4
3174.597	794.4
3177.739	810.4
3180.878	791.4
3184.014	810.4
3187.149	804.4
3190.28	808.4
3193.409	819.4
3196.536	806.4
3199.659	806.4
3202.781	832.4
3205.9	821.4
3209.016	829.4
3212.13	824.4
3215.241	820.4
3218.35	797.4
3221.456	805.4
3224.56	783.4
3227.661	788.4
3230.76	779.4
3233.856	777.4
3236.95	751.4
3240.041	752.4
3243.13	721.4
3246.216	721.4
3249.3	699.4
3252.382	701.4
3255.46	694.4
3258.537	696.4
3261.611	686.4
3264.682	655.4
3267.751	660.4
3270.818	661.4
3273.882	663.4
3276.943	666.4
3280.002	657.4
3283.059	659.4
3286.113	643.4
3289.165	644.4
3292.214	642.4
3295.261	624.4
3298.306	614.4
3301.348	607.4
3304.387	598.4
3307.425	611.4
3310.459	596.4
3313.492	578.4
3316.521	575.4
3319.549	574.4
3322.574	575.4
3325.597	570.4
3328.617	580.4
3331.635	562.4
3334.65	562.4
3337.663	545.4
3340.674	556.4
3343.682	554.4
3346.688	550.4
3349.691	568.4
3352.692	555.4
3355.691	554.4
3358.687	548.4
3361.681	541.4
3364.673	533.4
3367.662	515.4
3370.649	535.4
3373.633	502.4
3376.615	493.4
3379.595	506.4
3382.572	485.4
3385.547	477.4
3388.52	473.4
3391.49	451.4
3394.458	461.4
3397.424	444.4
3400.387	437.4
3403.348	437.4
3406.307	423.4
3409.263	426.4
3412.217	420.4
3415.168	415.4
3418.118	414.4
3421.065	398.4
3424.009	390.4
3426.951	389.4
3429.891	382.4
3432.829	365.4
3435.764	364.4
3438.697	352.4
3441.628	335.4
3444.557	323.4
3447.483	313.4
3450.407	313.4
3453.328	290.4
3456.247	284.4
3459.164	276.4
3462.079	256.4
3464.991	249.4
3467.902	239.4
3470.809	226.4
3473.715	224.4
3476.618	205.4
3479.519	207.4
3482.418	195.4
3485.315	182.4
3488.209	172.4
3491.101	166.4
3493.99	168.4
3496.878	159.4
3499.763	144.4
3502.646	133.4
3505.527	124.4
3508.405	127.4
3511.281	110.4
3514.155	96.4
3517.027	97.4
3519.897	89.4
3522.764	73.4
3525.629	63.4
3528.492	62.4
3531.352	52.4
3534.211	43.4
3537.067	40.4
3539.921	35.4
3542.773	33.4
3545.622	18.4
3548.469	9.4
3551.315	13.4
3554.157	4.4
3556.998	-10.6
3559.837	-3.6
3562.673	-15.6
3565.507	-10.6
3568.339	-18.6
3571.169	-36.6
3573.996	-28.6
3576.822	-36.6
3579.645	-39.6
3582.466	-42.6
3585.285	-51.6
3588.101	-36.6
3590.916	-58.6
3593.728	-63.6
3596.538	-59.6
3599.346	-67.6
3602.152	-68.6
3604.956	-68.6
3607.757	-67.6
3610.556	-77.6
3613.354	-77.6
3616.149	-88.6
3618.942	-93.6
3621.732	-87.6
3624.521	-89.6
3627.307	-89.6
3630.092	-84.6
3632.874	-92.6
3635.654	-101.6
3638.432	-93.6
3641.208	-96.6
3643.982	-105.6
3646.753	-111.6
3649.523	-105.6
3652.29	-103.6
3655.055	-109.6
3657.818	-109.6
3660.579	-110.6
3663.338	-108.6
3666.095	-115.6
3668.849	-125.6
3671.602	-121.6
3674.352	-122.6
3677.101	-124.6
3679.847	-124.6
3682.591	-121.6
3685.333	-125.6
3688.073	-126.6
3690.811	-130.6
3693.547	-136.6
3696.281	-133.6
3699.013	-135.6
3701.742	-136.6
3704.47	-136.6
3707.195	-132.6
3709.919	-139.6
3712.64	-140.6
3715.359	-145.6
3718.076	-146.6
3720.792	-138.6
3723.505	-144.6
3726.216	-139.6
3728.925	-148.6
3731.632	-146.6
3734.336	-150.6
3737.039	-145.6
3739.74	-152.6
3742.439	-154.6
3745.136	-141.6
3747.83	-150.6
3750.523	-146.6
3753.213	-146.6
3755.902	-146.6
3758.589	-158.6
3761.273	-143.6
3763.956	-146.6
3766.636	-151.6
3769.315	-143.6
3771.991	-147.6
3774.665	-155.6
3777.338	-149.6
3780.008	-148.6
3782.677	-151.6
3785.343	-149.6
3788.007	-153.6
3790.67	-156.6
3793.33	-148.6
3795.989	-150.6
3798.645	-148.6
3801.299	-149.6
3803.952	-154.6
3806.602	-147.6
3809.251	-158.6
3811.897	-161.6
3814.542	-157.6
3817.184	-154.6
3819.825	-158.6
3822.463	-153.6
3825.1	-154.6
3827.735	-154.6
3830.367	-152.6
3832.998	-157.6
3835.627	-152.6
3838.253	-154.6
3840.878	-157.6
3843.501	-151.6
3846.122	-156.6
3848.741	-161.6
3851.358	-152.6
3853.973	-158.6
3856.586	-153.6
3859.197	-163.6
3861.806	-150.6
3864.414	-158.6
3867.019	-151.6
3869.622	-152.6
3872.224	-142.6
3874.823	-131.6
3877.421	-120.6
3880.016	-96.6
3882.61	-68.6
3885.202	-62.6
3887.792	-84.6
3890.38	-112.6
3892.966	-143.6
3895.55	-152.6
3898.132	-153.6
3900.713	-154.6
3903.291	-159.6
3905.868	-155.6
3908.442	-154.6
3911.015	-156.6
3913.586	-158.6
3916.155	-162.6
3918.722	-159.6
3921.287	-155.6
3923.85	-160.6
3926.411	-162.6
3928.971	-163.6
3931.528	-161.6
3934.084	-157.6
3936.638	-156.6
3939.19	-165.6
3941.74	-161.6
3944.288	-151.6
3946.834	-153.6
3949.378	-157.6
3951.921	-158.6
3954.462	-162.6
3957	-162.6
3959.537	-158.6
3962.072	-160.6
3964.606	-154.6
3967.137	-152.6
3969.667	-154.6
3972.194	-161.6
3974.72	-159.6
3977.244	-158.6
3979.766	-157.6
3982.286	-156.6
3984.805	-159.6
3987.321	-156.6
3989.836	-152.6
3992.349	-158.6
3994.86	-160.6
3997.369	-159.6
3999.877	-156.6
4002.382	-161.6
4004.886	-153.6
4007.388	-153.6
4009.888	-155.6
4012.386	-164.6
4014.883	-160.6
4017.377	-155.6
4019.87	-155.6
4022.361	-158.6
4024.85	-158.6
4027.338	-154.6
4029.823	-159.6
4032.307	-156.6
4034.789	-162.6
4037.269	-153.6
4039.747	-151.6
4042.224	-154.6
4044.699	-159.6
4047.172	-159.6
4049.643	-152.6
4052.112	-160.6
4054.58	-154.6
4057.046	-155.6
4059.51	-155.6
4061.972	-154.6
4064.432	-155.6
4066.891	-158.6
4069.348	-154.6
4071.803	-158.6
4074.256	-157.6
4076.708	-148.6
4079.158	-151.6
4081.606	-150.6
4084.052	-160.6
4086.497	-157.6
4088.939	-147.6
4091.38	-154.6
4093.819	-157.6
4096.257	-162.6
4098.693	-163.6
4101.127	-160.6
4103.559	-161.6
4105.989	14.4
4108.418	8.4
4110.845	0.4
4113.27	-0.6
4115.694	-6.6
4118.115	9.4
4120.535	-157.6
4122.954	-163.6
4125.37	-154.6
4127.785	-161.6
4130.198	-154.6
4132.609	-156.6
4135.019	-164.6
4137.427	-169.6
4139.833	-165.6
4142.237	-164.6
