Data from 2018-2-8_conc=0_n=8_RamanShift_04.txt Node
Date: Mon Mar 12 13:45:29 IST 2018
User: aro
Spectrometer: QEPB0276
Trigger mode: 0
Integration Time (sec): 3.000000E1
Scans to average: 1
Electric dark correction enabled: true
Nonlinearity correction enabled: false
Boxcar width: 0
XAxis mode: Raman Shifts
Number of Pixels in Spectrum: 1044
>>>>>Begin Spectral Data<<<<<
160.701	15.2
166.742	44.2
172.777	127.2
178.805	388.2
184.826	1063.2
190.841	2329.2
196.849	3880.2
202.85	5099.2
208.845	5616.2
214.833	5583.2
220.815	5540.2
226.789	5505.2
232.758	5517.2
238.719	5508.2
244.674	5474.2
250.623	5420.2
256.565	5342.2
262.5	5252.2
268.429	5192.2
274.351	5125.2
280.267	5104.2
286.176	5082.2
292.079	5064.2
297.975	5060.2
303.865	5017.2
309.748	4989.2
315.625	4970.2
321.495	4979.2
327.359	4975.2
333.217	4959.2
339.068	4973.2
344.912	4962.2
350.751	4990.2
356.583	4978.2
362.408	4976.2
368.227	4992.2
374.04	5003.2
379.847	5036.2
385.647	5049.2
391.44	5078.2
397.228	5082.2
403.009	5130.2
408.784	5146.2
414.553	5160.2
420.315	5158.2
426.071	5169.2
431.821	5166.2
437.565	5169.2
443.302	5159.2
449.033	5135.2
454.758	5122.2
460.477	5086.2
466.189	5047.2
471.896	5024.2
477.596	5014.2
483.29	5009.2
488.978	5016.2
494.66	4961.2
500.335	4904.2
506.005	4764.2
511.668	4636.2
517.325	4515.2
522.977	4396.2
528.622	4349.2
534.261	4319.2
539.894	4258.2
545.521	4195.2
551.141	4192.2
556.756	4148.2
562.365	4134.2
567.968	4120.2
573.565	4084.2
579.155	4070.2
584.74	4024.2
590.319	4020.2
595.892	4038.2
601.459	4009.2
607.02	3981.2
612.575	3943.2
618.124	3948.2
623.667	3884.2
629.204	3881.2
634.735	3846.2
640.261	3802.2
645.781	3785.2
651.294	3793.2
656.802	3775.2
662.304	3747.2
667.8	3742.2
673.29	3744.2
678.775	3728.2
684.254	3706.2
689.726	3702.2
695.193	3708.2
700.655	3661.2
706.11	3643.2
711.56	3625.2
717.004	3608.2
722.442	3609.2
727.874	3571.2
733.301	3587.2
738.722	3543.2
744.137	3543.2
749.547	3497.2
754.951	3540.2
760.349	3527.2
765.741	3554.2
771.128	3553.2
776.509	3608.2
781.885	3589.2
787.254	3579.2
792.618	3617.2
797.977	3569.2
803.33	3558.2
808.677	3507.2
814.019	3480.2
819.355	3481.2
824.686	3444.2
830.011	3413.2
835.33	3435.2
840.644	3429.2
845.952	3412.2
851.255	3429.2
856.552	3412.2
861.844	3400.2
867.13	3351.2
872.41	3363.2
877.686	3344.2
882.955	3345.2
888.219	3309.2
893.478	3258.2
898.731	3204.2
903.979	3158.2
909.221	3139.2
914.458	3118.2
919.69	3112.2
924.916	3131.2
930.136	3131.2
935.351	3109.2
940.561	3145.2
945.766	3110.2
950.965	3120.2
956.158	3101.2
961.347	3070.2
966.529	3035.2
971.707	2980.2
976.879	2928.2
982.046	2894.2
987.208	2902.2
992.364	2909.2
997.515	2905.2
1002.66	2938.2
1007.801	2953.2
1012.936	2996.2
1018.066	3014.2
1023.19	2989.2
1028.309	2982.2
1033.423	3003.2
1038.532	2991.2
1043.636	2978.2
1048.734	2913.2
1053.827	2891.2
1058.915	2849.2
1063.998	2847.2
1069.075	2813.2
1074.147	2831.2
1079.214	2843.2
1084.276	2866.2
1089.333	2871.2
1094.385	2879.2
1099.431	2856.2
1104.472	2850.2
1109.509	2856.2
1114.54	2816.2
1119.565	2779.2
1124.586	2737.2
1129.602	2712.2
1134.613	2674.2
1139.618	2660.2
1144.619	2652.2
1149.614	2660.2
1154.604	2684.2
1159.589	2675.2
1164.57	2690.2
1169.545	2681.2
1174.515	2688.2
1179.48	2661.2
1184.44	2635.2
1189.395	2628.2
1194.345	2596.2
1199.29	2577.2
1204.23	2582.2
1209.165	2580.2
1214.095	2616.2
1219.021	2620.2
1223.941	2623.2
1228.856	2634.2
1233.766	2665.2
1238.672	2640.2
1243.572	2682.2
1248.467	2639.2
1253.358	2591.2
1258.244	2552.2
1263.124	2501.2
1268	2460.2
1272.871	2463.2
1277.737	2434.2
1282.599	2420.2
1287.455	2415.2
1292.306	2450.2
1297.153	2415.2
1301.995	2452.2
1306.832	2469.2
1311.664	2495.2
1316.491	2483.2
1321.314	2462.2
1326.132	2459.2
1330.945	2429.2
1335.753	2398.2
1340.556	2344.2
1345.354	2315.2
1350.148	2289.2
1354.937	2248.2
1359.722	2212.2
1364.501	2159.2
1369.276	2141.2
1374.046	2090.2
1378.811	2074.2
1383.572	2061.2
1388.327	2073.2
1393.079	2068.2
1397.825	2064.2
1402.567	2068.2
1407.304	2058.2
1412.036	2058.2
1416.764	2093.2
1421.487	2062.2
1426.205	2067.2
1430.919	2095.2
1435.628	2106.2
1440.333	2102.2
1445.032	2113.2
1449.727	2136.2
1454.418	2175.2
1459.104	2153.2
1463.785	2131.2
1468.462	2092.2
1473.134	2077.2
1477.802	1988.2
1482.465	1955.2
1487.123	1933.2
1491.777	1908.2
1496.426	1869.2
1501.071	1838.2
1505.711	1837.2
1510.347	1845.2
1514.978	1848.2
1519.604	1840.2
1524.226	1821.2
1528.844	1819.2
1533.457	1812.2
1538.065	1813.2
1542.669	1799.2
1547.269	1814.2
1551.864	1793.2
1556.454	1825.2
1561.041	1843.2
1565.622	1847.2
1570.199	1838.2
1574.772	1862.2
1579.34	1882.2
1583.904	1910.2
1588.464	1944.2
1593.019	1940.2
1597.569	1938.2
1602.115	1923.2
1606.657	1917.2
1611.195	1909.2
1615.728	1917.2
1620.256	1897.2
1624.78	1895.2
1629.3	1918.2
1633.816	1913.2
1638.327	1928.2
1642.834	1917.2
1647.336	1931.2
1651.834	1944.2
1656.328	1934.2
1660.817	1936.2
1665.302	1902.2
1669.783	1878.2
1674.259	1841.2
1678.732	1788.2
1683.199	1733.2
1687.663	1693.2
1692.122	1629.2
1696.577	1553.2
1701.028	1492.2
1705.474	1440.2
1709.917	1395.2
1714.355	1354.2
1718.788	1360.2
1723.218	1361.2
1727.643	1357.2
1732.064	1365.2
1736.481	1350.2
1740.893	1324.2
1745.301	1299.2
1749.705	1282.2
1754.105	1240.2
1758.501	1231.2
1762.893	1215.2
1767.28	1207.2
1771.663	1195.2
1776.042	1174.2
1780.417	1153.2
1784.787	1128.2
1789.154	1126.2
1793.516	1104.2
1797.874	1101.2
1802.228	1079.2
1806.578	1073.2
1810.924	1060.2
1815.266	1046.2
1819.603	1045.2
1823.937	1039.2
1828.266	1039.2
1832.591	1056.2
1836.913	1044.2
1841.23	1067.2
1845.543	1048.2
1849.852	1047.2
1854.156	1037.2
1858.457	1052.2
1862.754	1051.2
1867.047	1053.2
1871.335	1059.2
1875.62	1058.2
1879.9	1062.2
1884.177	1039.2
1888.449	1018.2
1892.718	1016.2
1896.982	1000.2
1901.243	989.2
1905.499	988.2
1909.752	973.2
1914	950.2
1918.245	956.2
1922.485	922.2
1926.722	918.2
1930.954	920.2
1935.183	903.2
1939.408	914.2
1943.628	901.2
1947.845	878.2
1952.058	878.2
1956.267	867.2
1960.472	874.2
1964.673	864.2
1968.87	849.2
1973.063	844.2
1977.252	836.2
1981.438	853.2
1985.619	843.2
1989.797	832.2
1993.971	843.2
1998.14	855.2
2002.306	847.2
2006.469	849.2
2010.627	863.2
2014.781	857.2
2018.932	855.2
2023.078	847.2
2027.221	851.2
2031.36	845.2
2035.495	823.2
2039.627	812.2
2043.754	804.2
2047.878	803.2
2051.998	784.2
2056.114	796.2
2060.226	783.2
2064.334	782.2
2068.439	772.2
2072.54	764.2
2076.637	775.2
2080.73	781.2
2084.82	762.2
2088.906	772.2
2092.988	752.2
2097.066	748.2
2101.14	741.2
2105.211	725.2
2109.278	722.2
2113.342	718.2
2117.401	698.2
2121.457	691.2
2125.509	687.2
2129.558	687.2
2133.602	689.2
2137.643	684.2
2141.681	689.2
2145.714	684.2
2149.744	690.2
2153.77	700.2
2157.793	684.2
2161.812	676.2
2165.827	677.2
2169.838	665.2
2173.846	652.2
2177.851	649.2
2181.851	641.2
2185.848	621.2
2189.841	634.2
2193.831	623.2
2197.817	612.2
2201.799	614.2
2205.778	607.2
2209.753	613.2
2213.725	600.2
2217.693	613.2
2221.657	608.2
2225.618	602.2
2229.575	611.2
2233.529	603.2
2237.479	606.2
2241.425	599.2
2245.368	573.2
2249.307	570.2
2253.243	566.2
2257.175	560.2
2261.104	549.2
2265.029	540.2
2268.95	540.2
2272.868	529.2
2276.783	526.2
2280.694	511.2
2284.601	509.2
2288.505	516.2
2292.405	507.2
2296.302	495.2
2300.195	481.2
2304.085	486.2
2307.971	469.2
2311.854	481.2
2315.734	449.2
2319.609	459.2
2323.482	460.2
2327.351	447.2
2331.216	463.2
2335.078	474.2
2338.937	468.2
2342.792	447.2
2346.643	437.2
2350.492	437.2
2354.336	453.2
2358.178	448.2
2362.015	452.2
2365.85	452.2
2369.681	437.2
2373.508	439.2
2377.333	433.2
2381.153	431.2
2384.971	455.2
2388.785	439.2
2392.595	446.2
2396.402	422.2
2400.206	418.2
2404.007	433.2
2407.804	421.2
2411.597	423.2
2415.388	414.2
2419.174	423.2
2422.958	418.2
2426.738	420.2
2430.515	409.2
2434.289	410.2
2438.059	410.2
2441.825	398.2
2445.589	397.2
2449.349	386.2
2453.106	394.2
2456.859	386.2
2460.61	378.2
2464.356	376.2
2468.1	358.2
2471.84	364.2
2475.577	368.2
2479.311	349.2
2483.041	358.2
2486.768	362.2
2490.492	356.2
2494.213	357.2
2497.93	345.2
2501.644	340.2
2505.355	340.2
2509.062	336.2
2512.766	344.2
2516.467	337.2
2520.165	328.2
2523.859	331.2
2527.551	322.2
2531.239	323.2
2534.923	297.2
2538.605	307.2
2542.283	290.2
2545.958	305.2
2549.63	306.2
2553.299	294.2
2556.964	291.2
2560.626	285.2
2564.285	284.2
2567.941	274.2
2571.594	281.2
2575.243	280.2
2578.89	272.2
2582.533	273.2
2586.173	264.2
2589.809	259.2
2593.443	255.2
2597.073	250.2
2600.701	251.2
2604.325	257.2
2607.946	251.2
2611.564	254.2
2615.178	258.2
2618.79	248.2
2622.398	252.2
2626.004	244.2
2629.606	244.2
2633.205	230.2
2636.801	235.2
2640.394	231.2
2643.983	231.2
2647.57	234.2
2651.153	230.2
2654.734	216.2
2658.311	200.2
2661.885	221.2
2665.456	221.2
2669.025	213.2
2672.589	221.2
2676.151	220.2
2679.71	209.2
2683.266	198.2
2686.819	204.2
2690.368	199.2
2693.915	197.2
2697.458	191.2
2700.999	192.2
2704.536	188.2
2708.071	177.2
2711.602	171.2
2715.13	177.2
2718.656	169.2
2722.178	172.2
2725.697	165.2
2729.214	162.2
2732.727	166.2
2736.237	173.2
2739.744	152.2
2743.249	153.2
2746.75	148.2
2750.248	155.2
2753.743	146.2
2757.236	135.2
2760.725	151.2
2764.211	138.2
2767.695	128.2
2771.175	128.2
2774.652	125.2
2778.127	139.2
2781.598	131.2
2785.067	134.2
2788.532	135.2
2791.995	133.2
2795.455	138.2
2798.911	126.2
2802.365	135.2
2805.816	142.2
2809.264	132.2
2812.709	143.2
2816.151	135.2
2819.59	133.2
2823.026	132.2
2826.46	126.2
2829.89	133.2
2833.318	131.2
2836.742	145.2
2840.164	132.2
2843.583	139.2
2846.999	142.2
2850.412	143.2
2853.822	146.2
2857.229	137.2
2860.634	150.2
2864.035	160.2
2867.434	161.2
2870.83	169.2
2874.223	175.2
2877.613	175.2
2881	180.2
2884.385	183.2
2887.766	180.2
2891.145	181.2
2894.521	182.2
2897.894	186.2
2901.264	193.2
2904.631	189.2
2907.996	185.2
2911.358	195.2
2914.717	194.2
2918.073	200.2
2921.426	204.2
2924.777	220.2
2928.124	212.2
2931.469	216.2
2934.811	220.2
2938.15	229.2
2941.487	231.2
2944.821	240.2
2948.152	232.2
2951.48	233.2
2954.805	234.2
2958.128	228.2
2961.447	224.2
2964.765	222.2
2968.079	225.2
2971.39	225.2
2974.699	238.2
2978.005	226.2
2981.308	233.2
2984.609	228.2
2987.907	217.2
2991.202	236.2
2994.494	230.2
2997.784	237.2
3001.07	241.2
3004.355	244.2
3007.636	244.2
3010.915	247.2
3014.191	249.2
3017.464	254.2
3020.734	244.2
3024.002	246.2
3027.267	266.2
3030.53	277.2
3033.789	270.2
3037.046	285.2
3040.301	283.2
3043.552	303.2
3046.801	299.2
3050.048	309.2
3053.291	327.2
3056.532	324.2
3059.771	340.2
3063.006	353.2
3066.239	370.2
3069.469	376.2
3072.697	377.2
3075.922	387.2
3079.144	412.2
3082.364	408.2
3085.581	425.2
3088.795	426.2
3092.007	437.2
3095.216	445.2
3098.423	455.2
3101.627	483.2
3104.828	476.2
3108.026	482.2
3111.222	499.2
3114.416	515.2
3117.607	528.2
3120.795	524.2
3123.98	527.2
3127.163	557.2
3130.344	582.2
3133.521	571.2
3136.696	598.2
3139.869	599.2
3143.039	612.2
3146.206	615.2
3149.371	639.2
3152.533	641.2
3155.693	648.2
3158.85	652.2
3162.005	656.2
3165.157	661.2
3168.306	658.2
3171.453	650.2
3174.597	665.2
3177.739	669.2
3180.878	677.2
3184.014	692.2
3187.149	678.2
3190.28	686.2
3193.409	677.2
3196.536	682.2
3199.659	687.2
3202.781	695.2
3205.9	694.2
3209.016	697.2
3212.13	685.2
3215.241	682.2
3218.35	685.2
3221.456	666.2
3224.56	656.2
3227.661	655.2
3230.76	652.2
3233.856	642.2
3236.95	619.2
3240.041	619.2
3243.13	602.2
3246.216	613.2
3249.3	583.2
3252.382	593.2
3255.46	582.2
3258.537	578.2
3261.611	574.2
3264.682	568.2
3267.751	564.2
3270.818	559.2
3273.882	545.2
3276.943	545.2
3280.002	553.2
3283.059	554.2
3286.113	538.2
3289.165	539.2
3292.214	530.2
3295.261	515.2
3298.306	511.2
3301.348	502.2
3304.387	507.2
3307.425	496.2
3310.459	500.2
3313.492	490.2
3316.521	482.2
3319.549	484.2
3322.574	483.2
3325.597	465.2
3328.617	486.2
3331.635	470.2
3334.65	468.2
3337.663	465.2
3340.674	457.2
3343.682	465.2
3346.688	459.2
3349.691	464.2
3352.692	462.2
3355.691	456.2
3358.687	444.2
3361.681	450.2
3364.673	436.2
3367.662	438.2
3370.649	422.2
3373.633	426.2
3376.615	410.2
3379.595	407.2
3382.572	409.2
3385.547	396.2
3388.52	388.2
3391.49	396.2
3394.458	389.2
3397.424	373.2
3400.387	366.2
3403.348	368.2
3406.307	355.2
3409.263	355.2
3412.217	351.2
3415.168	348.2
3418.118	345.2
3421.065	323.2
3424.009	331.2
3426.951	327.2
3429.891	315.2
3432.829	301.2
3435.764	298.2
3438.697	290.2
3441.628	280.2
3444.557	272.2
3447.483	259.2
3450.407	244.2
3453.328	241.2
3456.247	236.2
3459.164	223.2
3462.079	215.2
3464.991	200.2
3467.902	199.2
3470.809	195.2
3473.715	175.2
3476.618	179.2
3479.519	170.2
3482.418	160.2
3485.315	155.2
3488.209	144.2
3491.101	137.2
3493.99	133.2
3496.878	125.2
3499.763	112.2
3502.646	111.2
3505.527	111.2
3508.405	105.2
3511.281	93.2
3514.155	84.2
3517.027	79.2
3519.897	60.2
3522.764	62.2
3525.629	54.2
3528.492	44.2
3531.352	41.2
3534.211	32.2
3537.067	26.2
3539.921	23.2
3542.773	13.2
3545.622	8.2
3548.469	3.2
3551.315	9.2
3554.157	-2.8
3556.998	-14.8
3559.837	-9.8
3562.673	-15.8
3565.507	-15.8
3568.339	-28.8
3571.169	-28.8
3573.996	-21.8
3576.822	-36.8
3579.645	-39.8
3582.466	-33.8
3585.285	-39.8
3588.101	-37.8
3590.916	-57.8
3593.728	-61.8
3596.538	-60.8
3599.346	-55.8
3602.152	-57.8
3604.956	-57.8
3607.757	-61.8
3610.556	-69.8
3613.354	-63.8
3616.149	-80.8
3618.942	-84.8
3621.732	-77.8
3624.521	-72.8
3627.307	-80.8
3630.092	-81.8
3632.874	-78.8
3635.654	-86.8
3638.432	-85.8
3641.208	-84.8
3643.982	-93.8
3646.753	-92.8
3649.523	-91.8
3652.29	-95.8
3655.055	-95.8
3657.818	-97.8
3660.579	-96.8
3663.338	-97.8
3666.095	-104.8
3668.849	-105.8
3671.602	-104.8
3674.352	-101.8
3677.101	-105.8
3679.847	-112.8
3682.591	-112.8
3685.333	-112.8
3688.073	-107.8
3690.811	-114.8
3693.547	-117.8
3696.281	-115.8
3699.013	-116.8
3701.742	-118.8
3704.47	-119.8
3707.195	-115.8
3709.919	-118.8
3712.64	-122.8
3715.359	-124.8
3718.076	-122.8
3720.792	-122.8
3723.505	-122.8
3726.216	-123.8
3728.925	-125.8
3731.632	-121.8
3734.336	-134.8
3737.039	-119.8
3739.74	-132.8
3742.439	-132.8
3745.136	-118.8
3747.83	-133.8
3750.523	-128.8
3753.213	-131.8
3755.902	-131.8
3758.589	-132.8
3761.273	-127.8
3763.956	-123.8
3766.636	-125.8
3769.315	-123.8
3771.991	-126.8
3774.665	-134.8
3777.338	-126.8
3780.008	-131.8
3782.677	-131.8
3785.343	-128.8
3788.007	-126.8
3790.67	-128.8
3793.33	-129.8
3795.989	-130.8
3798.645	-129.8
3801.299	-130.8
3803.952	-136.8
3806.602	-128.8
3809.251	-137.8
3811.897	-138.8
3814.542	-132.8
3817.184	-132.8
3819.825	-136.8
3822.463	-131.8
3825.1	-134.8
3827.735	-131.8
3830.367	-136.8
3832.998	-135.8
3835.627	-135.8
3838.253	-133.8
3840.878	-132.8
3843.501	-132.8
3846.122	-138.8
3848.741	-137.8
3851.358	-131.8
3853.973	-138.8
3856.586	-128.8
3859.197	-139.8
3861.806	-132.8
3864.414	-138.8
3867.019	-130.8
3869.622	-133.8
3872.224	-120.8
3874.823	-118.8
3877.421	-105.8
3880.016	-85.8
3882.61	-67.8
3885.202	-64.8
3887.792	-80.8
3890.38	-104.8
3892.966	-118.8
3895.55	-125.8
3898.132	-124.8
3900.713	-134.8
3903.291	-138.8
3905.868	-137.8
3908.442	-133.8
3911.015	-138.8
3913.586	-138.8
3916.155	-140.8
3918.722	-134.8
3921.287	-133.8
3923.85	-132.8
3926.411	-135.8
3928.971	-136.8
3931.528	-142.8
3934.084	-138.8
3936.638	-125.8
3939.19	-140.8
3941.74	-139.8
3944.288	-135.8
3946.834	-137.8
3949.378	-137.8
3951.921	-138.8
3954.462	-142.8
3957	-136.8
3959.537	-137.8
3962.072	-140.8
3964.606	-130.8
3967.137	-137.8
3969.667	-138.8
3972.194	-143.8
3974.72	-136.8
3977.244	-134.8
3979.766	-133.8
3982.286	-134.8
3984.805	-137.8
3987.321	-137.8
3989.836	-133.8
3992.349	-136.8
3994.86	-135.8
3997.369	-136.8
3999.877	-136.8
4002.382	-132.8
4004.886	-142.8
4007.388	-131.8
4009.888	-132.8
4012.386	-139.8
4014.883	-137.8
4017.377	-135.8
4019.87	-130.8
4022.361	-138.8
4024.85	-135.8
4027.338	-138.8
4029.823	-132.8
4032.307	-131.8
4034.789	-138.8
4037.269	-134.8
4039.747	-132.8
4042.224	-133.8
4044.699	-136.8
4047.172	-131.8
4049.643	-129.8
4052.112	-139.8
4054.58	-130.8
4057.046	-133.8
4059.51	-137.8
4061.972	-129.8
4064.432	-136.8
4066.891	-137.8
4069.348	-134.8
4071.803	-141.8
4074.256	-134.8
4076.708	-128.8
4079.158	-138.8
4081.606	-130.8
4084.052	-135.8
4086.497	-138.8
4088.939	-134.8
4091.38	-137.8
4093.819	-132.8
4096.257	-143.8
4098.693	-140.8
4101.127	-138.8
4103.559	-139.8
4105.989	-4.8
4108.418	2.2
4110.845	-4.8
4113.27	-3.8
4115.694	-8.8
4118.115	-10.8
4120.535	-135.8
4122.954	-141.8
4125.37	-134.8
4127.785	-137.8
4130.198	-136.8
4132.609	-140.8
4135.019	-144.8
4137.427	-145.8
4139.833	-139.8
4142.237	-144.8
