Data from 2018-2-8_conc=2_n=9_RamanShift_05.txt Node
Date: Mon Mar 12 14:23:58 IST 2018
User: aro
Spectrometer: QEPB0276
Trigger mode: 0
Integration Time (sec): 3.000000E1
Scans to average: 1
Electric dark correction enabled: true
Nonlinearity correction enabled: false
Boxcar width: 0
XAxis mode: Raman Shifts
Number of Pixels in Spectrum: 1044
>>>>>Begin Spectral Data<<<<<
160.701	7.6
166.742	40.6
172.777	114.6
178.805	393.6
184.826	1063.6
190.841	2305.6
196.849	3878.6
202.85	5100.6
208.845	5619.6
214.833	5606.6
220.815	5498.6
226.789	5516.6
232.758	5496.6
238.719	5501.6
244.674	5446.6
250.623	5395.6
256.565	5340.6
262.5	5246.6
268.429	5152.6
274.351	5137.6
280.267	5051.6
286.176	5028.6
292.079	5015.6
297.975	5001.6
303.865	4983.6
309.748	4956.6
315.625	4957.6
321.495	4946.6
327.359	4917.6
333.217	4903.6
339.068	4935.6
344.912	4934.6
350.751	4934.6
356.583	4935.6
362.408	4937.6
368.227	4943.6
374.04	4971.6
379.847	4956.6
385.647	4980.6
391.44	5009.6
397.228	5013.6
403.009	5095.6
408.784	5099.6
414.553	5102.6
420.315	5132.6
426.071	5102.6
431.821	5087.6
437.565	5102.6
443.302	5060.6
449.033	5072.6
454.758	5053.6
460.477	5032.6
466.189	4999.6
471.896	4990.6
477.596	4943.6
483.29	4909.6
488.978	4926.6
494.66	4910.6
500.335	4867.6
506.005	4752.6
511.668	4612.6
517.325	4509.6
522.977	4406.6
528.622	4362.6
534.261	4283.6
539.894	4252.6
545.521	4204.6
551.141	4148.6
556.756	4169.6
562.365	4148.6
567.968	4097.6
573.565	4094.6
579.155	4035.6
584.74	4035.6
590.319	4013.6
595.892	4009.6
601.459	3991.6
607.02	4023.6
612.575	3966.6
618.124	3927.6
623.667	3900.6
629.204	3885.6
634.735	3822.6
640.261	3830.6
645.781	3799.6
651.294	3768.6
656.802	3769.6
662.304	3745.6
667.8	3760.6
673.29	3761.6
678.775	3756.6
684.254	3718.6
689.726	3719.6
695.193	3700.6
700.655	3693.6
706.11	3674.6
711.56	3647.6
717.004	3640.6
722.442	3595.6
727.874	3592.6
733.301	3551.6
738.722	3544.6
744.137	3533.6
749.547	3548.6
754.951	3559.6
760.349	3537.6
765.741	3534.6
771.128	3561.6
776.509	3590.6
781.885	3567.6
787.254	3593.6
792.618	3585.6
797.977	3577.6
803.33	3552.6
808.677	3508.6
814.019	3505.6
819.355	3477.6
824.686	3434.6
830.011	3428.6
835.33	3430.6
840.644	3426.6
845.952	3420.6
851.255	3430.6
856.552	3396.6
861.844	3404.6
867.13	3369.6
872.41	3367.6
877.686	3335.6
882.955	3320.6
888.219	3283.6
893.478	3248.6
898.731	3189.6
903.979	3159.6
909.221	3140.6
914.458	3134.6
919.69	3123.6
924.916	3122.6
930.136	3138.6
935.351	3138.6
940.561	3128.6
945.766	3108.6
950.965	3120.6
956.158	3097.6
961.347	3068.6
966.529	3049.6
971.707	2982.6
976.879	2956.6
982.046	2909.6
987.208	2903.6
992.364	2911.6
997.515	2907.6
1002.66	2940.6
1007.801	2980.6
1012.936	2988.6
1018.066	2992.6
1023.19	2992.6
1028.309	2998.6
1033.423	2997.6
1038.532	2998.6
1043.636	2955.6
1048.734	2939.6
1053.827	2878.6
1058.915	2853.6
1063.998	2864.6
1069.075	2825.6
1074.147	2819.6
1079.214	2833.6
1084.276	2856.6
1089.333	2863.6
1094.385	2875.6
1099.431	2865.6
1104.472	2869.6
1109.509	2829.6
1114.54	2802.6
1119.565	2789.6
1124.586	2736.6
1129.602	2712.6
1134.613	2692.6
1139.618	2676.6
1144.619	2670.6
1149.614	2659.6
1154.604	2678.6
1159.589	2684.6
1164.57	2707.6
1169.545	2668.6
1174.515	2685.6
1179.48	2668.6
1184.44	2639.6
1189.395	2618.6
1194.345	2616.6
1199.29	2593.6
1204.23	2605.6
1209.165	2615.6
1214.095	2607.6
1219.021	2626.6
1223.941	2651.6
1228.856	2668.6
1233.766	2664.6
1238.672	2674.6
1243.572	2675.6
1248.467	2646.6
1253.358	2611.6
1258.244	2587.6
1263.124	2548.6
1268	2482.6
1272.871	2475.6
1277.737	2441.6
1282.599	2421.6
1287.455	2436.6
1292.306	2417.6
1297.153	2463.6
1301.995	2462.6
1306.832	2473.6
1311.664	2484.6
1316.491	2495.6
1321.314	2479.6
1326.132	2451.6
1330.945	2437.6
1335.753	2394.6
1340.556	2370.6
1345.354	2336.6
1350.148	2303.6
1354.937	2252.6
1359.722	2189.6
1364.501	2192.6
1369.276	2131.6
1374.046	2100.6
1378.811	2075.6
1383.572	2063.6
1388.327	2042.6
1393.079	2073.6
1397.825	2077.6
1402.567	2076.6
1407.304	2092.6
1412.036	2105.6
1416.764	2077.6
1421.487	2088.6
1426.205	2089.6
1430.919	2104.6
1435.628	2097.6
1440.333	2113.6
1445.032	2138.6
1449.727	2152.6
1454.418	2180.6
1459.104	2164.6
1463.785	2141.6
1468.462	2082.6
1473.134	2044.6
1477.802	2013.6
1482.465	1964.6
1487.123	1919.6
1491.777	1911.6
1496.426	1885.6
1501.071	1864.6
1505.711	1850.6
1510.347	1851.6
1514.978	1836.6
1519.604	1857.6
1524.226	1838.6
1528.844	1823.6
1533.457	1815.6
1538.065	1805.6
1542.669	1796.6
1547.269	1783.6
1551.864	1793.6
1556.454	1817.6
1561.041	1845.6
1565.622	1846.6
1570.199	1860.6
1574.772	1881.6
1579.34	1886.6
1583.904	1909.6
1588.464	1956.6
1593.019	1932.6
1597.569	1939.6
1602.115	1938.6
1606.657	1938.6
1611.195	1906.6
1615.728	1923.6
1620.256	1918.6
1624.78	1908.6
1629.3	1928.6
1633.816	1920.6
1638.327	1935.6
1642.834	1940.6
1647.336	1941.6
1651.834	1983.6
1656.328	1964.6
1660.817	1931.6
1665.302	1923.6
1669.783	1904.6
1674.259	1850.6
1678.732	1803.6
1683.199	1744.6
1687.663	1698.6
1692.122	1653.6
1696.577	1581.6
1701.028	1491.6
1705.474	1450.6
1709.917	1409.6
1714.355	1381.6
1718.788	1361.6
1723.218	1353.6
1727.643	1372.6
1732.064	1353.6
1736.481	1352.6
1740.893	1323.6
1745.301	1305.6
1749.705	1274.6
1754.105	1240.6
1758.501	1231.6
1762.893	1223.6
1767.28	1191.6
1771.663	1188.6
1776.042	1185.6
1780.417	1165.6
1784.787	1135.6
1789.154	1140.6
1793.516	1104.6
1797.874	1096.6
1802.228	1079.6
1806.578	1093.6
1810.924	1063.6
1815.266	1056.6
1819.603	1060.6
1823.937	1040.6
1828.266	1063.6
1832.591	1050.6
1836.913	1051.6
1841.23	1054.6
1845.543	1048.6
1849.852	1066.6
1854.156	1044.6
1858.457	1058.6
1862.754	1066.6
1867.047	1061.6
1871.335	1051.6
1875.62	1064.6
1879.9	1067.6
1884.177	1055.6
1888.449	1030.6
1892.718	1027.6
1896.982	1015.6
1901.243	1005.6
1905.499	976.6
1909.752	971.6
1914	949.6
1918.245	952.6
1922.485	931.6
1926.722	932.6
1930.954	934.6
1935.183	911.6
1939.408	898.6
1943.628	913.6
1947.845	895.6
1952.058	881.6
1956.267	875.6
1960.472	876.6
1964.673	865.6
1968.87	858.6
1973.063	853.6
1977.252	849.6
1981.438	852.6
1985.619	854.6
1989.797	839.6
1993.971	840.6
1998.14	848.6
2002.306	850.6
2006.469	856.6
2010.627	849.6
2014.781	870.6
2018.932	872.6
2023.078	869.6
2027.221	855.6
2031.36	852.6
2035.495	836.6
2039.627	827.6
2043.754	814.6
2047.878	799.6
2051.998	798.6
2056.114	804.6
2060.226	808.6
2064.334	797.6
2068.439	785.6
2072.54	790.6
2076.637	788.6
2080.73	764.6
2084.82	775.6
2088.906	764.6
2092.988	763.6
2097.066	750.6
2101.14	742.6
2105.211	738.6
2109.278	733.6
2113.342	714.6
2117.401	711.6
2121.457	704.6
2125.509	691.6
2129.558	695.6
2133.602	716.6
2137.643	699.6
2141.681	693.6
2145.714	690.6
2149.744	694.6
2153.77	700.6
2157.793	702.6
2161.812	683.6
2165.827	687.6
2169.838	673.6
2173.846	661.6
2177.851	648.6
2181.851	644.6
2185.848	640.6
2189.841	634.6
2193.831	632.6
2197.817	626.6
2201.799	623.6
2205.778	615.6
2209.753	609.6
2213.725	620.6
2217.693	615.6
2221.657	622.6
2225.618	606.6
2229.575	616.6
2233.529	602.6
2237.479	599.6
2241.425	585.6
2245.368	575.6
2249.307	577.6
2253.243	564.6
2257.175	558.6
2261.104	554.6
2265.029	543.6
2268.95	550.6
2272.868	524.6
2276.783	545.6
2280.694	521.6
2284.601	526.6
2288.505	514.6
2292.405	504.6
2296.302	499.6
2300.195	493.6
2304.085	488.6
2307.971	490.6
2311.854	483.6
2315.734	470.6
2319.609	465.6
2323.482	471.6
2327.351	464.6
2331.216	468.6
2335.078	477.6
2338.937	450.6
2342.792	450.6
2346.643	447.6
2350.492	453.6
2354.336	448.6
2358.178	451.6
2362.015	443.6
2365.85	457.6
2369.681	445.6
2373.508	462.6
2377.333	465.6
2381.153	453.6
2384.971	456.6
2388.785	451.6
2392.595	452.6
2396.402	438.6
2400.206	436.6
2404.007	434.6
2407.804	441.6
2411.597	436.6
2415.388	425.6
2419.174	430.6
2422.958	421.6
2426.738	426.6
2430.515	414.6
2434.289	414.6
2438.059	424.6
2441.825	418.6
2445.589	411.6
2449.349	395.6
2453.106	382.6
2456.859	390.6
2460.61	397.6
2464.356	382.6
2468.1	377.6
2471.84	361.6
2475.577	373.6
2479.311	360.6
2483.041	371.6
2486.768	365.6
2490.492	359.6
2494.213	372.6
2497.93	362.6
2501.644	351.6
2505.355	352.6
2509.062	338.6
2512.766	351.6
2516.467	342.6
2520.165	336.6
2523.859	325.6
2527.551	329.6
2531.239	318.6
2534.923	314.6
2538.605	307.6
2542.283	311.6
2545.958	310.6
2549.63	305.6
2553.299	296.6
2556.964	301.6
2560.626	298.6
2564.285	287.6
2567.941	281.6
2571.594	288.6
2575.243	281.6
2578.89	276.6
2582.533	277.6
2586.173	275.6
2589.809	260.6
2593.443	261.6
2597.073	261.6
2600.701	259.6
2604.325	247.6
2607.946	251.6
2611.564	248.6
2615.178	254.6
2618.79	242.6
2622.398	258.6
2626.004	239.6
2629.606	236.6
2633.205	240.6
2636.801	247.6
2640.394	241.6
2643.983	229.6
2647.57	236.6
2651.153	225.6
2654.734	228.6
2658.311	219.6
2661.885	225.6
2665.456	223.6
2669.025	226.6
2672.589	215.6
2676.151	220.6
2679.71	222.6
2683.266	212.6
2686.819	205.6
2690.368	213.6
2693.915	207.6
2697.458	194.6
2700.999	196.6
2704.536	199.6
2708.071	188.6
2711.602	180.6
2715.13	184.6
2718.656	182.6
2722.178	186.6
2725.697	175.6
2729.214	167.6
2732.727	172.6
2736.237	179.6
2739.744	169.6
2743.249	168.6
2746.75	165.6
2750.248	157.6
2753.743	147.6
2757.236	145.6
2760.725	146.6
2764.211	142.6
2767.695	138.6
2771.175	134.6
2774.652	132.6
2778.127	131.6
2781.598	130.6
2785.067	134.6
2788.532	139.6
2791.995	135.6
2795.455	140.6
2798.911	143.6
2802.365	151.6
2805.816	149.6
2809.264	141.6
2812.709	143.6
2816.151	142.6
2819.59	143.6
2823.026	147.6
2826.46	138.6
2829.89	147.6
2833.318	140.6
2836.742	146.6
2840.164	147.6
2843.583	149.6
2846.999	149.6
2850.412	145.6
2853.822	151.6
2857.229	148.6
2860.634	160.6
2864.035	160.6
2867.434	161.6
2870.83	163.6
2874.223	176.6
2877.613	179.6
2881	192.6
2884.385	186.6
2887.766	178.6
2891.145	185.6
2894.521	185.6
2897.894	192.6
2901.264	188.6
2904.631	188.6
2907.996	193.6
2911.358	186.6
2914.717	193.6
2918.073	199.6
2921.426	207.6
2924.777	204.6
2928.124	211.6
2931.469	216.6
2934.811	230.6
2938.15	231.6
2941.487	239.6
2944.821	230.6
2948.152	239.6
2951.48	239.6
2954.805	237.6
2958.128	232.6
2961.447	232.6
2964.765	229.6
2968.079	226.6
2971.39	221.6
2974.699	232.6
2978.005	230.6
2981.308	240.6
2984.609	235.6
2987.907	230.6
2991.202	240.6
2994.494	237.6
2997.784	240.6
3001.07	247.6
3004.355	254.6
3007.636	255.6
3010.915	249.6
3014.191	251.6
3017.464	259.6
3020.734	266.6
3024.002	255.6
3027.267	271.6
3030.53	274.6
3033.789	276.6
3037.046	289.6
3040.301	286.6
3043.552	307.6
3046.801	304.6
3050.048	321.6
3053.291	329.6
3056.532	332.6
3059.771	351.6
3063.006	361.6
3066.239	383.6
3069.469	383.6
3072.697	406.6
3075.922	401.6
3079.144	427.6
3082.364	426.6
3085.581	445.6
3088.795	451.6
3092.007	438.6
3095.216	469.6
3098.423	475.6
3101.627	485.6
3104.828	494.6
3108.026	494.6
3111.222	515.6
3114.416	521.6
3117.607	530.6
3120.795	543.6
3123.98	561.6
3127.163	566.6
3130.344	573.6
3133.521	593.6
3136.696	594.6
3139.869	623.6
3143.039	625.6
3146.206	632.6
3149.371	649.6
3152.533	657.6
3155.693	658.6
3158.85	664.6
3162.005	670.6
3165.157	679.6
3168.306	674.6
3171.453	675.6
3174.597	676.6
3177.739	692.6
3180.878	680.6
3184.014	695.6
3187.149	687.6
3190.28	704.6
3193.409	690.6
3196.536	697.6
3199.659	694.6
3202.781	708.6
3205.9	715.6
3209.016	706.6
3212.13	707.6
3215.241	694.6
3218.35	696.6
3221.456	687.6
3224.56	679.6
3227.661	670.6
3230.76	667.6
3233.856	650.6
3236.95	633.6
3240.041	640.6
3243.13	617.6
3246.216	619.6
3249.3	613.6
3252.382	607.6
3255.46	602.6
3258.537	602.6
3261.611	592.6
3264.682	574.6
3267.751	589.6
3270.818	582.6
3273.882	570.6
3276.943	561.6
3280.002	564.6
3283.059	562.6
3286.113	550.6
3289.165	557.6
3292.214	551.6
3295.261	536.6
3298.306	522.6
3301.348	525.6
3304.387	524.6
3307.425	518.6
3310.459	508.6
3313.492	500.6
3316.521	505.6
3319.549	502.6
3322.574	483.6
3325.597	483.6
3328.617	485.6
3331.635	479.6
3334.65	470.6
3337.663	474.6
3340.674	484.6
3343.682	485.6
3346.688	479.6
3349.691	473.6
3352.692	471.6
3355.691	467.6
3358.687	465.6
3361.681	478.6
3364.673	456.6
3367.662	458.6
3370.649	444.6
3373.633	432.6
3376.615	438.6
3379.595	423.6
3382.572	415.6
3385.547	407.6
3388.52	401.6
3391.49	396.6
3394.458	394.6
3397.424	377.6
3400.387	377.6
3403.348	376.6
3406.307	364.6
3409.263	377.6
3412.217	366.6
3415.168	360.6
3418.118	348.6
3421.065	345.6
3424.009	343.6
3426.951	339.6
3429.891	327.6
3432.829	318.6
3435.764	305.6
3438.697	301.6
3441.628	298.6
3444.557	281.6
3447.483	276.6
3450.407	259.6
3453.328	249.6
3456.247	241.6
3459.164	236.6
3462.079	232.6
3464.991	217.6
3467.902	213.6
3470.809	208.6
3473.715	193.6
3476.618	182.6
3479.519	176.6
3482.418	168.6
3485.315	161.6
3488.209	157.6
3491.101	143.6
3493.99	150.6
3496.878	138.6
3499.763	123.6
3502.646	120.6
3505.527	108.6
3508.405	112.6
3511.281	101.6
3514.155	97.6
3517.027	84.6
3519.897	74.6
3522.764	61.6
3525.629	57.6
3528.492	54.6
3531.352	49.6
3534.211	41.6
3537.067	39.6
3539.921	33.6
3542.773	19.6
3545.622	14.6
3548.469	6.6
3551.315	6.6
3554.157	6.6
3556.998	-2.4
3559.837	-6.4
3562.673	-5.4
3565.507	-11.4
3568.339	-16.4
3571.169	-26.4
3573.996	-21.4
3576.822	-27.4
3579.645	-25.4
3582.466	-22.4
3585.285	-37.4
3588.101	-27.4
3590.916	-46.4
3593.728	-52.4
3596.538	-49.4
3599.346	-51.4
3602.152	-54.4
3604.956	-54.4
3607.757	-54.4
3610.556	-65.4
3613.354	-65.4
3616.149	-73.4
3618.942	-73.4
3621.732	-69.4
3624.521	-68.4
3627.307	-71.4
3630.092	-73.4
3632.874	-74.4
3635.654	-76.4
3638.432	-79.4
3641.208	-76.4
3643.982	-88.4
3646.753	-87.4
3649.523	-94.4
3652.29	-92.4
3655.055	-91.4
3657.818	-94.4
3660.579	-95.4
3663.338	-90.4
3666.095	-92.4
3668.849	-98.4
3671.602	-96.4
3674.352	-102.4
3677.101	-104.4
3679.847	-104.4
3682.591	-106.4
3685.333	-99.4
3688.073	-107.4
3690.811	-106.4
3693.547	-116.4
3696.281	-116.4
3699.013	-109.4
3701.742	-115.4
3704.47	-111.4
3707.195	-111.4
3709.919	-112.4
3712.64	-112.4
3715.359	-117.4
3718.076	-115.4
3720.792	-125.4
3723.505	-127.4
3726.216	-118.4
3728.925	-123.4
3731.632	-117.4
3734.336	-125.4
3737.039	-119.4
3739.74	-120.4
3742.439	-127.4
3745.136	-120.4
3747.83	-124.4
3750.523	-124.4
3753.213	-123.4
3755.902	-116.4
3758.589	-129.4
3761.273	-117.4
3763.956	-120.4
3766.636	-130.4
3769.315	-123.4
3771.991	-124.4
3774.665	-126.4
3777.338	-119.4
3780.008	-123.4
3782.677	-127.4
3785.343	-126.4
3788.007	-128.4
3790.67	-127.4
3793.33	-126.4
3795.989	-128.4
3798.645	-120.4
3801.299	-122.4
3803.952	-127.4
3806.602	-125.4
3809.251	-132.4
3811.897	-131.4
3814.542	-135.4
3817.184	-125.4
3819.825	-129.4
3822.463	-124.4
3825.1	-127.4
3827.735	-124.4
3830.367	-127.4
3832.998	-131.4
3835.627	-134.4
3838.253	-132.4
3840.878	-127.4
3843.501	-127.4
3846.122	-129.4
3848.741	-133.4
3851.358	-128.4
3853.973	-138.4
3856.586	-127.4
3859.197	-138.4
3861.806	-125.4
3864.414	-130.4
3867.019	-126.4
3869.622	-127.4
3872.224	-119.4
3874.823	-116.4
3877.421	-113.4
3880.016	-88.4
3882.61	-72.4
3885.202	-69.4
3887.792	-83.4
3890.38	-104.4
3892.966	-127.4
3895.55	-128.4
3898.132	-131.4
3900.713	-127.4
3903.291	-138.4
3905.868	-131.4
3908.442	-123.4
3911.015	-137.4
3913.586	-142.4
3916.155	-133.4
3918.722	-134.4
3921.287	-130.4
3923.85	-131.4
3926.411	-135.4
3928.971	-131.4
3931.528	-136.4
3934.084	-130.4
3936.638	-129.4
3939.19	-141.4
3941.74	-136.4
3944.288	-133.4
3946.834	-126.4
3949.378	-129.4
3951.921	-130.4
3954.462	-142.4
3957	-132.4
3959.537	-131.4
3962.072	-136.4
3964.606	-124.4
3967.137	-129.4
3969.667	-131.4
3972.194	-137.4
3974.72	-133.4
3977.244	-131.4
3979.766	-134.4
3982.286	-134.4
3984.805	-134.4
3987.321	-125.4
3989.836	-123.4
3992.349	-132.4
3994.86	-132.4
3997.369	-129.4
3999.877	-132.4
4002.382	-132.4
4004.886	-131.4
4007.388	-129.4
4009.888	-126.4
4012.386	-134.4
4014.883	-129.4
4017.377	-134.4
4019.87	-135.4
4022.361	-134.4
4024.85	-133.4
4027.338	-130.4
4029.823	-127.4
4032.307	-125.4
4034.789	-129.4
4037.269	-131.4
4039.747	-131.4
4042.224	-129.4
4044.699	-132.4
4047.172	-128.4
4049.643	-126.4
4052.112	-127.4
4054.58	-128.4
4057.046	-131.4
4059.51	-135.4
4061.972	-130.4
4064.432	-135.4
4066.891	-133.4
4069.348	-127.4
4071.803	-133.4
4074.256	-132.4
4076.708	-131.4
4079.158	-133.4
4081.606	-128.4
4084.052	-138.4
4086.497	-130.4
4088.939	-120.4
4091.38	-130.4
4093.819	-133.4
4096.257	-137.4
4098.693	-137.4
4101.127	-138.4
4103.559	-131.4
4105.989	-16.4
4108.418	-21.4
4110.845	-21.4
4113.27	-20.4
4115.694	-20.4
4118.115	-18.4
4120.535	-132.4
4122.954	-134.4
4125.37	-128.4
4127.785	-134.4
4130.198	-129.4
4132.609	-125.4
4135.019	-138.4
4137.427	-137.4
4139.833	-139.4
4142.237	-141.4
