Data from 2018-2-8_conc=2_n=1_RamanShift_01.txt Node
Date: Mon Mar 12 13:54:58 IST 2018
User: aro
Spectrometer: QEPB0276
Trigger mode: 0
Integration Time (sec): 3.000000E1
Scans to average: 1
Electric dark correction enabled: true
Nonlinearity correction enabled: false
Boxcar width: 0
XAxis mode: Raman Shifts
Number of Pixels in Spectrum: 1044
>>>>>Begin Spectral Data<<<<<
160.701	24.6
166.742	46.6
172.777	118.6
178.805	365.6
184.826	963.6
190.841	2049.6
196.849	3379.6
202.85	4407.6
208.845	4791.6
214.833	4795.6
220.815	4735.6
226.789	4692.6
232.758	4759.6
238.719	4700.6
244.674	4716.6
250.623	4649.6
256.565	4612.6
262.5	4557.6
268.429	4482.6
274.351	4438.6
280.267	4444.6
286.176	4417.6
292.079	4370.6
297.975	4347.6
303.865	4328.6
309.748	4361.6
315.625	4322.6
321.495	4333.6
327.359	4308.6
333.217	4332.6
339.068	4355.6
344.912	4347.6
350.751	4347.6
356.583	4350.6
362.408	4379.6
368.227	4395.6
374.04	4385.6
379.847	4457.6
385.647	4440.6
391.44	4462.6
397.228	4472.6
403.009	4515.6
408.784	4526.6
414.553	4535.6
420.315	4555.6
426.071	4552.6
431.821	4567.6
437.565	4565.6
443.302	4521.6
449.033	4528.6
454.758	4480.6
460.477	4492.6
466.189	4466.6
471.896	4416.6
477.596	4371.6
483.29	4364.6
488.978	4414.6
494.66	4349.6
500.335	4310.6
506.005	4187.6
511.668	4000.6
517.325	3887.6
522.977	3782.6
528.622	3688.6
534.261	3622.6
539.894	3588.6
545.521	3548.6
551.141	3526.6
556.756	3504.6
562.365	3488.6
567.968	3458.6
573.565	3438.6
579.155	3439.6
584.74	3406.6
590.319	3374.6
595.892	3381.6
601.459	3365.6
607.02	3353.6
612.575	3347.6
618.124	3318.6
623.667	3267.6
629.204	3260.6
634.735	3215.6
640.261	3189.6
645.781	3172.6
651.294	3138.6
656.802	3155.6
662.304	3140.6
667.8	3118.6
673.29	3144.6
678.775	3137.6
684.254	3100.6
689.726	3098.6
695.193	3090.6
700.655	3084.6
706.11	3045.6
711.56	3026.6
717.004	3023.6
722.442	2994.6
727.874	2994.6
733.301	2967.6
738.722	2951.6
744.137	2960.6
749.547	2952.6
754.951	2943.6
760.349	2947.6
765.741	2959.6
771.128	2982.6
776.509	2981.6
781.885	3001.6
787.254	3043.6
792.618	3025.6
797.977	3019.6
803.33	3004.6
808.677	2957.6
814.019	2919.6
819.355	2912.6
824.686	2887.6
830.011	2873.6
835.33	2879.6
840.644	2874.6
845.952	2881.6
851.255	2847.6
856.552	2834.6
861.844	2839.6
867.13	2792.6
872.41	2793.6
877.686	2773.6
882.955	2735.6
888.219	2702.6
893.478	2693.6
898.731	2630.6
903.979	2636.6
909.221	2599.6
914.458	2579.6
919.69	2591.6
924.916	2603.6
930.136	2596.6
935.351	2590.6
940.561	2595.6
945.766	2598.6
950.965	2569.6
956.158	2546.6
961.347	2536.6
966.529	2489.6
971.707	2465.6
976.879	2431.6
982.046	2407.6
987.208	2425.6
992.364	2407.6
997.515	2411.6
1002.66	2420.6
1007.801	2451.6
1012.936	2481.6
1018.066	2464.6
1023.19	2474.6
1028.309	2465.6
1033.423	2497.6
1038.532	2451.6
1043.636	2439.6
1048.734	2412.6
1053.827	2393.6
1058.915	2353.6
1063.998	2366.6
1069.075	2334.6
1074.147	2344.6
1079.214	2346.6
1084.276	2360.6
1089.333	2368.6
1094.385	2371.6
1099.431	2377.6
1104.472	2359.6
1109.509	2347.6
1114.54	2309.6
1119.565	2295.6
1124.586	2242.6
1129.602	2219.6
1134.613	2218.6
1139.618	2187.6
1144.619	2199.6
1149.614	2183.6
1154.604	2193.6
1159.589	2207.6
1164.57	2225.6
1169.545	2203.6
1174.515	2208.6
1179.48	2223.6
1184.44	2192.6
1189.395	2168.6
1194.345	2145.6
1199.29	2129.6
1204.23	2137.6
1209.165	2134.6
1214.095	2145.6
1219.021	2151.6
1223.941	2150.6
1228.856	2189.6
1233.766	2198.6
1238.672	2200.6
1243.572	2178.6
1248.467	2158.6
1253.358	2140.6
1258.244	2105.6
1263.124	2081.6
1268	2051.6
1272.871	2035.6
1277.737	2001.6
1282.599	1998.6
1287.455	1984.6
1292.306	2005.6
1297.153	2019.6
1301.995	2034.6
1306.832	2032.6
1311.664	2040.6
1316.491	2054.6
1321.314	2034.6
1326.132	2029.6
1330.945	1988.6
1335.753	1965.6
1340.556	1931.6
1345.354	1919.6
1350.148	1883.6
1354.937	1855.6
1359.722	1849.6
1364.501	1814.6
1369.276	1779.6
1374.046	1754.6
1378.811	1749.6
1383.572	1732.6
1388.327	1719.6
1393.079	1728.6
1397.825	1734.6
1402.567	1731.6
1407.304	1738.6
1412.036	1727.6
1416.764	1735.6
1421.487	1718.6
1426.205	1720.6
1430.919	1732.6
1435.628	1717.6
1440.333	1753.6
1445.032	1761.6
1449.727	1779.6
1454.418	1789.6
1459.104	1776.6
1463.785	1742.6
1468.462	1734.6
1473.134	1685.6
1477.802	1653.6
1482.465	1632.6
1487.123	1600.6
1491.777	1568.6
1496.426	1556.6
1501.071	1554.6
1505.711	1541.6
1510.347	1554.6
1514.978	1546.6
1519.604	1548.6
1524.226	1546.6
1528.844	1532.6
1533.457	1522.6
1538.065	1508.6
1542.669	1520.6
1547.269	1514.6
1551.864	1529.6
1556.454	1534.6
1561.041	1560.6
1565.622	1564.6
1570.199	1549.6
1574.772	1559.6
1579.34	1578.6
1583.904	1601.6
1588.464	1624.6
1593.019	1622.6
1597.569	1627.6
1602.115	1607.6
1606.657	1597.6
1611.195	1606.6
1615.728	1594.6
1620.256	1598.6
1624.78	1619.6
1629.3	1615.6
1633.816	1614.6
1638.327	1618.6
1642.834	1633.6
1647.336	1628.6
1651.834	1625.6
1656.328	1620.6
1660.817	1615.6
1665.302	1605.6
1669.783	1563.6
1674.259	1541.6
1678.732	1501.6
1683.199	1474.6
1687.663	1437.6
1692.122	1383.6
1696.577	1318.6
1701.028	1252.6
1705.474	1227.6
1709.917	1184.6
1714.355	1171.6
1718.788	1158.6
1723.218	1150.6
1727.643	1155.6
1732.064	1143.6
1736.481	1136.6
1740.893	1121.6
1745.301	1092.6
1749.705	1056.6
1754.105	1038.6
1758.501	1051.6
1762.893	1024.6
1767.28	1012.6
1771.663	999.6
1776.042	992.6
1780.417	984.6
1784.787	978.6
1789.154	976.6
1793.516	957.6
1797.874	944.6
1802.228	923.6
1806.578	926.6
1810.924	912.6
1815.266	901.6
1819.603	889.6
1823.937	910.6
1828.266	896.6
1832.591	888.6
1836.913	896.6
1841.23	898.6
1845.543	887.6
1849.852	882.6
1854.156	880.6
1858.457	894.6
1862.754	893.6
1867.047	894.6
1871.335	892.6
1875.62	889.6
1879.9	884.6
1884.177	880.6
1888.449	875.6
1892.718	876.6
1896.982	867.6
1901.243	841.6
1905.499	828.6
1909.752	823.6
1914	806.6
1918.245	815.6
1922.485	798.6
1926.722	783.6
1930.954	794.6
1935.183	785.6
1939.408	776.6
1943.628	785.6
1947.845	764.6
1952.058	760.6
1956.267	756.6
1960.472	746.6
1964.673	737.6
1968.87	735.6
1973.063	726.6
1977.252	725.6
1981.438	727.6
1985.619	714.6
1989.797	722.6
1993.971	728.6
1998.14	725.6
2002.306	712.6
2006.469	732.6
2010.627	731.6
2014.781	720.6
2018.932	728.6
2023.078	713.6
2027.221	719.6
2031.36	707.6
2035.495	708.6
2039.627	704.6
2043.754	693.6
2047.878	676.6
2051.998	676.6
2056.114	676.6
2060.226	660.6
2064.334	664.6
2068.439	667.6
2072.54	666.6
2076.637	667.6
2080.73	670.6
2084.82	659.6
2088.906	647.6
2092.988	640.6
2097.066	635.6
2101.14	637.6
2105.211	626.6
2109.278	611.6
2113.342	608.6
2117.401	606.6
2121.457	590.6
2125.509	582.6
2129.558	588.6
2133.602	601.6
2137.643	590.6
2141.681	576.6
2145.714	579.6
2149.744	587.6
2153.77	585.6
2157.793	575.6
2161.812	576.6
2165.827	569.6
2169.838	562.6
2173.846	548.6
2177.851	537.6
2181.851	534.6
2185.848	531.6
2189.841	541.6
2193.831	524.6
2197.817	512.6
2201.799	516.6
2205.778	508.6
2209.753	505.6
2213.725	513.6
2217.693	515.6
2221.657	504.6
2225.618	512.6
2229.575	510.6
2233.529	504.6
2237.479	506.6
2241.425	496.6
2245.368	477.6
2249.307	470.6
2253.243	474.6
2257.175	462.6
2261.104	461.6
2265.029	444.6
2268.95	450.6
2272.868	432.6
2276.783	423.6
2280.694	431.6
2284.601	433.6
2288.505	429.6
2292.405	416.6
2296.302	413.6
2300.195	399.6
2304.085	386.6
2307.971	385.6
2311.854	382.6
2315.734	368.6
2319.609	357.6
2323.482	372.6
2327.351	363.6
2331.216	374.6
2335.078	382.6
2338.937	370.6
2342.792	356.6
2346.643	351.6
2350.492	349.6
2354.336	356.6
2358.178	350.6
2362.015	346.6
2365.85	356.6
2369.681	346.6
2373.508	353.6
2377.333	344.6
2381.153	338.6
2384.971	354.6
2388.785	339.6
2392.595	346.6
2396.402	335.6
2400.206	333.6
2404.007	329.6
2407.804	334.6
2411.597	322.6
2415.388	327.6
2419.174	327.6
2422.958	318.6
2426.738	314.6
2430.515	310.6
2434.289	316.6
2438.059	309.6
2441.825	306.6
2445.589	301.6
2449.349	296.6
2453.106	301.6
2456.859	294.6
2460.61	297.6
2464.356	284.6
2468.1	285.6
2471.84	274.6
2475.577	286.6
2479.311	264.6
2483.041	270.6
2486.768	268.6
2490.492	264.6
2494.213	269.6
2497.93	266.6
2501.644	262.6
2505.355	265.6
2509.062	256.6
2512.766	255.6
2516.467	247.6
2520.165	245.6
2523.859	247.6
2527.551	243.6
2531.239	237.6
2534.923	247.6
2538.605	222.6
2542.283	226.6
2545.958	217.6
2549.63	229.6
2553.299	219.6
2556.964	225.6
2560.626	215.6
2564.285	206.6
2567.941	218.6
2571.594	210.6
2575.243	201.6
2578.89	207.6
2582.533	189.6
2586.173	197.6
2589.809	195.6
2593.443	194.6
2597.073	200.6
2600.701	190.6
2604.325	187.6
2607.946	177.6
2611.564	187.6
2615.178	180.6
2618.79	184.6
2622.398	182.6
2626.004	175.6
2629.606	178.6
2633.205	171.6
2636.801	173.6
2640.394	171.6
2643.983	170.6
2647.57	162.6
2651.153	165.6
2654.734	168.6
2658.311	158.6
2661.885	152.6
2665.456	162.6
2669.025	160.6
2672.589	149.6
2676.151	152.6
2679.71	159.6
2683.266	139.6
2686.819	145.6
2690.368	150.6
2693.915	135.6
2697.458	133.6
2700.999	133.6
2704.536	136.6
2708.071	129.6
2711.602	128.6
2715.13	128.6
2718.656	117.6
2722.178	118.6
2725.697	112.6
2729.214	113.6
2732.727	121.6
2736.237	112.6
2739.744	120.6
2743.249	116.6
2746.75	112.6
2750.248	114.6
2753.743	101.6
2757.236	97.6
2760.725	108.6
2764.211	94.6
2767.695	98.6
2771.175	84.6
2774.652	87.6
2778.127	95.6
2781.598	85.6
2785.067	98.6
2788.532	94.6
2791.995	95.6
2795.455	87.6
2798.911	90.6
2802.365	93.6
2805.816	93.6
2809.264	91.6
2812.709	97.6
2816.151	104.6
2819.59	98.6
2823.026	92.6
2826.46	88.6
2829.89	85.6
2833.318	85.6
2836.742	92.6
2840.164	92.6
2843.583	104.6
2846.999	104.6
2850.412	96.6
2853.822	103.6
2857.229	100.6
2860.634	107.6
2864.035	104.6
2867.434	118.6
2870.83	120.6
2874.223	130.6
2877.613	125.6
2881	137.6
2884.385	138.6
2887.766	128.6
2891.145	127.6
2894.521	138.6
2897.894	137.6
2901.264	134.6
2904.631	137.6
2907.996	140.6
2911.358	145.6
2914.717	147.6
2918.073	142.6
2921.426	151.6
2924.777	166.6
2928.124	159.6
2931.469	160.6
2934.811	165.6
2938.15	171.6
2941.487	181.6
2944.821	175.6
2948.152	182.6
2951.48	175.6
2954.805	196.6
2958.128	177.6
2961.447	177.6
2964.765	171.6
2968.079	167.6
2971.39	173.6
2974.699	185.6
2978.005	171.6
2981.308	173.6
2984.609	174.6
2987.907	174.6
2991.202	184.6
2994.494	183.6
2997.784	186.6
3001.07	187.6
3004.355	206.6
3007.636	206.6
3010.915	196.6
3014.191	203.6
3017.464	211.6
3020.734	201.6
3024.002	209.6
3027.267	211.6
3030.53	213.6
3033.789	225.6
3037.046	227.6
3040.301	227.6
3043.552	241.6
3046.801	248.6
3050.048	262.6
3053.291	261.6
3056.532	279.6
3059.771	291.6
3063.006	295.6
3066.239	312.6
3069.469	313.6
3072.697	324.6
3075.922	335.6
3079.144	334.6
3082.364	356.6
3085.581	365.6
3088.795	365.6
3092.007	368.6
3095.216	373.6
3098.423	394.6
3101.627	397.6
3104.828	403.6
3108.026	410.6
3111.222	435.6
3114.416	432.6
3117.607	446.6
3120.795	442.6
3123.98	447.6
3127.163	465.6
3130.344	480.6
3133.521	489.6
3136.696	511.6
3139.869	511.6
3143.039	518.6
3146.206	523.6
3149.371	541.6
3152.533	542.6
3155.693	546.6
3158.85	551.6
3162.005	565.6
3165.157	561.6
3168.306	562.6
3171.453	560.6
3174.597	563.6
3177.739	573.6
3180.878	574.6
3184.014	578.6
3187.149	581.6
3190.28	591.6
3193.409	587.6
3196.536	597.6
3199.659	587.6
3202.781	595.6
3205.9	602.6
3209.016	606.6
3212.13	598.6
3215.241	608.6
3218.35	585.6
3221.456	573.6
3224.56	571.6
3227.661	569.6
3230.76	573.6
3233.856	550.6
3236.95	549.6
3240.041	530.6
3243.13	527.6
3246.216	521.6
3249.3	517.6
3252.382	512.6
3255.46	504.6
3258.537	504.6
3261.611	501.6
3264.682	481.6
3267.751	493.6
3270.818	487.6
3273.882	488.6
3276.943	476.6
3280.002	484.6
3283.059	465.6
3286.113	470.6
3289.165	462.6
3292.214	462.6
3295.261	457.6
3298.306	451.6
3301.348	446.6
3304.387	428.6
3307.425	430.6
3310.459	438.6
3313.492	419.6
3316.521	416.6
3319.549	424.6
3322.574	406.6
3325.597	415.6
3328.617	416.6
3331.635	407.6
3334.65	405.6
3337.663	387.6
3340.674	409.6
3343.682	404.6
3346.688	399.6
3349.691	396.6
3352.692	392.6
3355.691	389.6
3358.687	388.6
3361.681	391.6
3364.673	385.6
3367.662	378.6
3370.649	369.6
3373.633	367.6
3376.615	354.6
3379.595	357.6
3382.572	341.6
3385.547	341.6
3388.52	349.6
3391.49	336.6
3394.458	329.6
3397.424	314.6
3400.387	303.6
3403.348	304.6
3406.307	303.6
3409.263	293.6
3412.217	294.6
3415.168	297.6
3418.118	291.6
3421.065	285.6
3424.009	283.6
3426.951	272.6
3429.891	271.6
3432.829	258.6
3435.764	258.6
3438.697	245.6
3441.628	246.6
3444.557	222.6
3447.483	217.6
3450.407	214.6
3453.328	200.6
3456.247	201.6
3459.164	189.6
3462.079	173.6
3464.991	171.6
3467.902	170.6
3470.809	159.6
3473.715	148.6
3476.618	148.6
3479.519	136.6
3482.418	135.6
3485.315	123.6
3488.209	115.6
3491.101	117.6
3493.99	116.6
3496.878	103.6
3499.763	95.6
3502.646	93.6
3505.527	82.6
3508.405	79.6
3511.281	66.6
3514.155	64.6
3517.027	62.6
3519.897	50.6
3522.764	47.6
3525.629	41.6
3528.492	33.6
3531.352	26.6
3534.211	19.6
3537.067	10.6
3539.921	18.6
3542.773	11.6
3545.622	1.6
3548.469	-2.4
3551.315	-10.4
3554.157	-12.4
3556.998	-27.4
3559.837	-21.4
3562.673	-22.4
3565.507	-25.4
3568.339	-27.4
3571.169	-38.4
3573.996	-36.4
3576.822	-35.4
3579.645	-40.4
3582.466	-42.4
3585.285	-53.4
3588.101	-38.4
3590.916	-53.4
3593.728	-64.4
3596.538	-59.4
3599.346	-62.4
3602.152	-60.4
3604.956	-63.4
3607.757	-59.4
3610.556	-68.4
3613.354	-65.4
3616.149	-73.4
3618.942	-77.4
3621.732	-76.4
3624.521	-77.4
3627.307	-75.4
3630.092	-81.4
3632.874	-82.4
3635.654	-85.4
3638.432	-85.4
3641.208	-81.4
3643.982	-89.4
3646.753	-96.4
3649.523	-95.4
3652.29	-91.4
3655.055	-96.4
3657.818	-99.4
3660.579	-95.4
3663.338	-90.4
3666.095	-99.4
3668.849	-99.4
3671.602	-106.4
3674.352	-115.4
3677.101	-110.4
3679.847	-107.4
3682.591	-110.4
3685.333	-105.4
3688.073	-108.4
3690.811	-111.4
3693.547	-121.4
3696.281	-116.4
3699.013	-117.4
3701.742	-115.4
3704.47	-117.4
3707.195	-110.4
3709.919	-119.4
3712.64	-117.4
3715.359	-122.4
3718.076	-119.4
3720.792	-120.4
3723.505	-125.4
3726.216	-118.4
3728.925	-124.4
3731.632	-115.4
3734.336	-130.4
3737.039	-122.4
3739.74	-126.4
3742.439	-129.4
3745.136	-124.4
3747.83	-130.4
3750.523	-125.4
3753.213	-130.4
3755.902	-124.4
3758.589	-129.4
3761.273	-125.4
3763.956	-120.4
3766.636	-134.4
3769.315	-120.4
3771.991	-119.4
3774.665	-126.4
3777.338	-118.4
3780.008	-128.4
3782.677	-133.4
3785.343	-125.4
3788.007	-128.4
3790.67	-133.4
3793.33	-122.4
3795.989	-125.4
3798.645	-120.4
3801.299	-123.4
3803.952	-134.4
3806.602	-128.4
3809.251	-134.4
3811.897	-134.4
3814.542	-129.4
3817.184	-127.4
3819.825	-126.4
3822.463	-134.4
3825.1	-129.4
3827.735	-131.4
3830.367	-131.4
3832.998	-133.4
3835.627	-131.4
3838.253	-128.4
3840.878	-127.4
3843.501	-123.4
3846.122	-131.4
3848.741	-139.4
3851.358	-129.4
3853.973	-129.4
3856.586	-125.4
3859.197	-134.4
3861.806	-127.4
3864.414	-134.4
3867.019	-129.4
3869.622	-129.4
3872.224	-120.4
3874.823	-106.4
3877.421	-92.4
3880.016	-69.4
3882.61	-42.4
3885.202	-36.4
3887.792	-60.4
3890.38	-89.4
3892.966	-112.4
3895.55	-124.4
3898.132	-122.4
3900.713	-126.4
3903.291	-129.4
3905.868	-130.4
3908.442	-129.4
3911.015	-135.4
3913.586	-130.4
3916.155	-134.4
3918.722	-132.4
3921.287	-131.4
3923.85	-130.4
3926.411	-134.4
3928.971	-133.4
3931.528	-140.4
3934.084	-129.4
3936.638	-129.4
3939.19	-133.4
3941.74	-137.4
3944.288	-129.4
3946.834	-132.4
3949.378	-131.4
3951.921	-134.4
3954.462	-138.4
3957	-134.4
3959.537	-119.4
3962.072	-131.4
3964.606	-125.4
3967.137	-134.4
3969.667	-136.4
3972.194	-137.4
3974.72	-134.4
3977.244	-131.4
3979.766	-129.4
3982.286	-130.4
3984.805	-131.4
3987.321	-131.4
3989.836	-123.4
3992.349	-132.4
3994.86	-131.4
3997.369	-130.4
3999.877	-129.4
4002.382	-123.4
4004.886	-133.4
4007.388	-134.4
4009.888	-130.4
4012.386	-135.4
4014.883	-126.4
4017.377	-128.4
4019.87	-130.4
4022.361	-137.4
4024.85	-131.4
4027.338	-135.4
4029.823	-126.4
4032.307	-128.4
4034.789	-131.4
4037.269	-134.4
4039.747	-133.4
4042.224	-125.4
4044.699	-134.4
4047.172	-126.4
4049.643	-130.4
4052.112	-133.4
4054.58	-133.4
4057.046	-131.4
4059.51	-135.4
4061.972	-130.4
4064.432	-136.4
4066.891	-131.4
4069.348	-127.4
4071.803	-134.4
4074.256	-128.4
4076.708	-129.4
4079.158	-133.4
4081.606	-125.4
4084.052	-135.4
4086.497	-133.4
4088.939	-128.4
4091.38	-125.4
4093.819	-126.4
4096.257	-134.4
4098.693	-132.4
4101.127	-135.4
4103.559	-134.4
4105.989	16.6
4108.418	14.6
4110.845	11.6
4113.27	11.6
4115.694	6.6
4118.115	4.6
4120.535	-127.4
4122.954	-136.4
4125.37	-132.4
4127.785	-127.4
4130.198	-133.4
4132.609	-132.4
4135.019	-137.4
4137.427	-142.4
4139.833	-137.4
4142.237	-138.4
