Data from 2018-2-8_conc=3_n=6_RamanShift_03.txt Node
Date: Mon Mar 12 14:45:58 IST 2018
User: aro
Spectrometer: QEPB0276
Trigger mode: 0
Integration Time (sec): 3.000000E1
Scans to average: 1
Electric dark correction enabled: true
Nonlinearity correction enabled: false
Boxcar width: 0
XAxis mode: Raman Shifts
Number of Pixels in Spectrum: 1044
>>>>>Begin Spectral Data<<<<<
160.701	8.2
166.742	36.2
172.777	113.2
178.805	355.2
184.826	961.2
190.841	2067.2
196.849	3469.2
202.85	4556.2
208.845	4990.2
214.833	4961.2
220.815	4931.2
226.789	4888.2
232.758	4920.2
238.719	4894.2
244.674	4868.2
250.623	4821.2
256.565	4755.2
262.5	4692.2
268.429	4655.2
274.351	4606.2
280.267	4575.2
286.176	4569.2
292.079	4507.2
297.975	4495.2
303.865	4461.2
309.748	4489.2
315.625	4449.2
321.495	4455.2
327.359	4457.2
333.217	4442.2
339.068	4443.2
344.912	4462.2
350.751	4448.2
356.583	4489.2
362.408	4457.2
368.227	4500.2
374.04	4464.2
379.847	4497.2
385.647	4559.2
391.44	4540.2
397.228	4581.2
403.009	4601.2
408.784	4591.2
414.553	4631.2
420.315	4658.2
426.071	4649.2
431.821	4629.2
437.565	4611.2
443.302	4624.2
449.033	4621.2
454.758	4589.2
460.477	4554.2
466.189	4545.2
471.896	4532.2
477.596	4472.2
483.29	4478.2
488.978	4467.2
494.66	4444.2
500.335	4376.2
506.005	4261.2
511.668	4155.2
517.325	4032.2
522.977	3924.2
528.622	3856.2
534.261	3789.2
539.894	3767.2
545.521	3706.2
551.141	3700.2
556.756	3694.2
562.365	3656.2
567.968	3617.2
573.565	3618.2
579.155	3590.2
584.74	3584.2
590.319	3563.2
595.892	3567.2
601.459	3563.2
607.02	3513.2
612.575	3509.2
618.124	3488.2
623.667	3454.2
629.204	3407.2
634.735	3368.2
640.261	3362.2
645.781	3332.2
651.294	3347.2
656.802	3314.2
662.304	3352.2
667.8	3316.2
673.29	3296.2
678.775	3312.2
684.254	3274.2
689.726	3262.2
695.193	3269.2
700.655	3262.2
706.11	3236.2
711.56	3208.2
717.004	3200.2
722.442	3189.2
727.874	3150.2
733.301	3138.2
738.722	3150.2
744.137	3128.2
749.547	3113.2
754.951	3096.2
760.349	3113.2
765.741	3137.2
771.128	3127.2
776.509	3168.2
781.885	3170.2
787.254	3166.2
792.618	3180.2
797.977	3181.2
803.33	3141.2
808.677	3112.2
814.019	3084.2
819.355	3079.2
824.686	3052.2
830.011	3037.2
835.33	3045.2
840.644	3035.2
845.952	3016.2
851.255	2991.2
856.552	2993.2
861.844	2993.2
867.13	2966.2
872.41	2950.2
877.686	2921.2
882.955	2903.2
888.219	2888.2
893.478	2859.2
898.731	2800.2
903.979	2766.2
909.221	2761.2
914.458	2754.2
919.69	2740.2
924.916	2735.2
930.136	2768.2
935.351	2763.2
940.561	2755.2
945.766	2760.2
950.965	2737.2
956.158	2726.2
961.347	2703.2
966.529	2662.2
971.707	2632.2
976.879	2580.2
982.046	2543.2
987.208	2538.2
992.364	2558.2
997.515	2558.2
1002.66	2592.2
1007.801	2607.2
1012.936	2620.2
1018.066	2621.2
1023.19	2606.2
1028.309	2630.2
1033.423	2641.2
1038.532	2630.2
1043.636	2616.2
1048.734	2583.2
1053.827	2546.2
1058.915	2520.2
1063.998	2495.2
1069.075	2504.2
1074.147	2507.2
1079.214	2507.2
1084.276	2502.2
1089.333	2527.2
1094.385	2523.2
1099.431	2523.2
1104.472	2529.2
1109.509	2512.2
1114.54	2464.2
1119.565	2437.2
1124.586	2392.2
1129.602	2367.2
1134.613	2379.2
1139.618	2339.2
1144.619	2335.2
1149.614	2323.2
1154.604	2369.2
1159.589	2361.2
1164.57	2365.2
1169.545	2358.2
1174.515	2357.2
1179.48	2348.2
1184.44	2342.2
1189.395	2311.2
1194.345	2293.2
1199.29	2263.2
1204.23	2284.2
1209.165	2291.2
1214.095	2308.2
1219.021	2313.2
1223.941	2332.2
1228.856	2327.2
1233.766	2352.2
1238.672	2334.2
1243.572	2341.2
1248.467	2317.2
1253.358	2308.2
1258.244	2252.2
1263.124	2224.2
1268	2202.2
1272.871	2185.2
1277.737	2157.2
1282.599	2136.2
1287.455	2145.2
1292.306	2138.2
1297.153	2141.2
1301.995	2158.2
1306.832	2158.2
1311.664	2188.2
1316.491	2213.2
1321.314	2179.2
1326.132	2167.2
1330.945	2137.2
1335.753	2110.2
1340.556	2072.2
1345.354	2042.2
1350.148	2037.2
1354.937	1992.2
1359.722	1945.2
1364.501	1910.2
1369.276	1872.2
1374.046	1845.2
1378.811	1814.2
1383.572	1809.2
1388.327	1782.2
1393.079	1823.2
1397.825	1804.2
1402.567	1834.2
1407.304	1829.2
1412.036	1828.2
1416.764	1845.2
1421.487	1842.2
1426.205	1840.2
1430.919	1861.2
1435.628	1849.2
1440.333	1856.2
1445.032	1885.2
1449.727	1911.2
1454.418	1941.2
1459.104	1913.2
1463.785	1869.2
1468.462	1842.2
1473.134	1811.2
1477.802	1776.2
1482.465	1743.2
1487.123	1699.2
1491.777	1664.2
1496.426	1670.2
1501.071	1656.2
1505.711	1636.2
1510.347	1641.2
1514.978	1624.2
1519.604	1615.2
1524.226	1621.2
1528.844	1604.2
1533.457	1602.2
1538.065	1609.2
1542.669	1597.2
1547.269	1608.2
1551.864	1598.2
1556.454	1620.2
1561.041	1612.2
1565.622	1657.2
1570.199	1618.2
1574.772	1652.2
1579.34	1671.2
1583.904	1682.2
1588.464	1710.2
1593.019	1714.2
1597.569	1702.2
1602.115	1724.2
1606.657	1714.2
1611.195	1673.2
1615.728	1697.2
1620.256	1686.2
1624.78	1691.2
1629.3	1686.2
1633.816	1706.2
1638.327	1697.2
1642.834	1712.2
1647.336	1718.2
1651.834	1741.2
1656.328	1708.2
1660.817	1729.2
1665.302	1707.2
1669.783	1673.2
1674.259	1635.2
1678.732	1602.2
1683.199	1533.2
1687.663	1503.2
1692.122	1456.2
1696.577	1392.2
1701.028	1341.2
1705.474	1300.2
1709.917	1252.2
1714.355	1228.2
1718.788	1219.2
1723.218	1226.2
1727.643	1218.2
1732.064	1211.2
1736.481	1210.2
1740.893	1180.2
1745.301	1157.2
1749.705	1129.2
1754.105	1124.2
1758.501	1101.2
1762.893	1078.2
1767.28	1067.2
1771.663	1066.2
1776.042	1046.2
1780.417	1026.2
1784.787	1015.2
1789.154	993.2
1793.516	1009.2
1797.874	983.2
1802.228	981.2
1806.578	966.2
1810.924	943.2
1815.266	951.2
1819.603	952.2
1823.937	956.2
1828.266	940.2
1832.591	926.2
1836.913	945.2
1841.23	948.2
1845.543	959.2
1849.852	936.2
1854.156	951.2
1858.457	941.2
1862.754	948.2
1867.047	947.2
1871.335	959.2
1875.62	940.2
1879.9	947.2
1884.177	938.2
1888.449	925.2
1892.718	911.2
1896.982	903.2
1901.243	899.2
1905.499	880.2
1909.752	861.2
1914	856.2
1918.245	850.2
1922.485	826.2
1926.722	836.2
1930.954	823.2
1935.183	830.2
1939.408	809.2
1943.628	828.2
1947.845	810.2
1952.058	795.2
1956.267	796.2
1960.472	789.2
1964.673	771.2
1968.87	764.2
1973.063	777.2
1977.252	757.2
1981.438	772.2
1985.619	756.2
1989.797	749.2
1993.971	762.2
1998.14	768.2
2002.306	764.2
2006.469	769.2
2010.627	770.2
2014.781	775.2
2018.932	768.2
2023.078	757.2
2027.221	755.2
2031.36	752.2
2035.495	754.2
2039.627	735.2
2043.754	716.2
2047.878	723.2
2051.998	701.2
2056.114	706.2
2060.226	700.2
2064.334	694.2
2068.439	708.2
2072.54	706.2
2076.637	713.2
2080.73	703.2
2084.82	687.2
2088.906	676.2
2092.988	690.2
2097.066	684.2
2101.14	661.2
2105.211	661.2
2109.278	639.2
2113.342	641.2
2117.401	648.2
2121.457	628.2
2125.509	616.2
2129.558	624.2
2133.602	624.2
2137.643	628.2
2141.681	626.2
2145.714	623.2
2149.744	616.2
2153.77	618.2
2157.793	617.2
2161.812	615.2
2165.827	613.2
2169.838	608.2
2173.846	595.2
2177.851	589.2
2181.851	577.2
2185.848	577.2
2189.841	561.2
2193.831	569.2
2197.817	559.2
2201.799	554.2
2205.778	555.2
2209.753	555.2
2213.725	551.2
2217.693	541.2
2221.657	554.2
2225.618	549.2
2229.575	539.2
2233.529	536.2
2237.479	539.2
2241.425	536.2
2245.368	514.2
2249.307	516.2
2253.243	504.2
2257.175	508.2
2261.104	499.2
2265.029	484.2
2268.95	484.2
2272.868	475.2
2276.783	467.2
2280.694	468.2
2284.601	460.2
2288.505	458.2
2292.405	456.2
2296.302	438.2
2300.195	437.2
2304.085	436.2
2307.971	427.2
2311.854	415.2
2315.734	414.2
2319.609	402.2
2323.482	412.2
2327.351	417.2
2331.216	426.2
2335.078	430.2
2338.937	424.2
2342.792	400.2
2346.643	379.2
2350.492	391.2
2354.336	391.2
2358.178	386.2
2362.015	402.2
2365.85	405.2
2369.681	403.2
2373.508	401.2
2377.333	399.2
2381.153	393.2
2384.971	392.2
2388.785	391.2
2392.595	397.2
2396.402	385.2
2400.206	390.2
2404.007	394.2
2407.804	376.2
2411.597	380.2
2415.388	377.2
2419.174	375.2
2422.958	362.2
2426.738	379.2
2430.515	374.2
2434.289	381.2
2438.059	366.2
2441.825	355.2
2445.589	362.2
2449.349	350.2
2453.106	346.2
2456.859	342.2
2460.61	340.2
2464.356	332.2
2468.1	331.2
2471.84	331.2
2475.577	335.2
2479.311	320.2
2483.041	316.2
2486.768	312.2
2490.492	316.2
2494.213	324.2
2497.93	316.2
2501.644	311.2
2505.355	309.2
2509.062	303.2
2512.766	296.2
2516.467	293.2
2520.165	294.2
2523.859	294.2
2527.551	289.2
2531.239	276.2
2534.923	270.2
2538.605	279.2
2542.283	271.2
2545.958	270.2
2549.63	279.2
2553.299	272.2
2556.964	274.2
2560.626	260.2
2564.285	250.2
2567.941	254.2
2571.594	246.2
2575.243	247.2
2578.89	239.2
2582.533	243.2
2586.173	230.2
2589.809	230.2
2593.443	232.2
2597.073	232.2
2600.701	226.2
2604.325	222.2
2607.946	223.2
2611.564	221.2
2615.178	224.2
2618.79	228.2
2622.398	216.2
2626.004	208.2
2629.606	216.2
2633.205	216.2
2636.801	211.2
2640.394	208.2
2643.983	216.2
2647.57	215.2
2651.153	207.2
2654.734	204.2
2658.311	190.2
2661.885	197.2
2665.456	196.2
2669.025	196.2
2672.589	197.2
2676.151	189.2
2679.71	183.2
2683.266	180.2
2686.819	183.2
2690.368	184.2
2693.915	178.2
2697.458	186.2
2700.999	169.2
2704.536	163.2
2708.071	168.2
2711.602	165.2
2715.13	162.2
2718.656	150.2
2722.178	160.2
2725.697	149.2
2729.214	143.2
2732.727	145.2
2736.237	154.2
2739.744	143.2
2743.249	146.2
2746.75	142.2
2750.248	142.2
2753.743	136.2
2757.236	130.2
2760.725	129.2
2764.211	114.2
2767.695	127.2
2771.175	118.2
2774.652	123.2
2778.127	122.2
2781.598	122.2
2785.067	121.2
2788.532	118.2
2791.995	120.2
2795.455	120.2
2798.911	124.2
2802.365	122.2
2805.816	136.2
2809.264	120.2
2812.709	125.2
2816.151	122.2
2819.59	122.2
2823.026	125.2
2826.46	122.2
2829.89	121.2
2833.318	125.2
2836.742	129.2
2840.164	122.2
2843.583	122.2
2846.999	124.2
2850.412	127.2
2853.822	129.2
2857.229	130.2
2860.634	143.2
2864.035	139.2
2867.434	145.2
2870.83	145.2
2874.223	158.2
2877.613	147.2
2881	167.2
2884.385	170.2
2887.766	156.2
2891.145	157.2
2894.521	150.2
2897.894	163.2
2901.264	160.2
2904.631	161.2
2907.996	166.2
2911.358	162.2
2914.717	164.2
2918.073	173.2
2921.426	178.2
2924.777	178.2
2928.124	189.2
2931.469	192.2
2934.811	192.2
2938.15	199.2
2941.487	206.2
2944.821	200.2
2948.152	191.2
2951.48	206.2
2954.805	203.2
2958.128	195.2
2961.447	192.2
2964.765	198.2
2968.079	199.2
2971.39	197.2
2974.699	195.2
2978.005	198.2
2981.308	195.2
2984.609	206.2
2987.907	196.2
2991.202	206.2
2994.494	208.2
2997.784	210.2
3001.07	220.2
3004.355	213.2
3007.636	218.2
3010.915	217.2
3014.191	219.2
3017.464	217.2
3020.734	227.2
3024.002	222.2
3027.267	235.2
3030.53	238.2
3033.789	239.2
3037.046	248.2
3040.301	244.2
3043.552	264.2
3046.801	271.2
3050.048	276.2
3053.291	290.2
3056.532	292.2
3059.771	314.2
3063.006	313.2
3066.239	318.2
3069.469	334.2
3072.697	341.2
3075.922	351.2
3079.144	358.2
3082.364	382.2
3085.581	385.2
3088.795	383.2
3092.007	396.2
3095.216	405.2
3098.423	411.2
3101.627	418.2
3104.828	424.2
3108.026	438.2
3111.222	455.2
3114.416	446.2
3117.607	471.2
3120.795	464.2
3123.98	470.2
3127.163	495.2
3130.344	514.2
3133.521	527.2
3136.696	533.2
3139.869	535.2
3143.039	540.2
3146.206	547.2
3149.371	564.2
3152.533	573.2
3155.693	589.2
3158.85	579.2
3162.005	590.2
3165.157	589.2
3168.306	587.2
3171.453	577.2
3174.597	580.2
3177.739	600.2
3180.878	610.2
3184.014	601.2
3187.149	601.2
3190.28	603.2
3193.409	593.2
3196.536	617.2
3199.659	616.2
3202.781	615.2
3205.9	619.2
3209.016	621.2
3212.13	616.2
3215.241	607.2
3218.35	609.2
3221.456	599.2
3224.56	585.2
3227.661	587.2
3230.76	579.2
3233.856	580.2
3236.95	552.2
3240.041	540.2
3243.13	532.2
3246.216	535.2
3249.3	526.2
3252.382	531.2
3255.46	518.2
3258.537	511.2
3261.611	518.2
3264.682	502.2
3267.751	508.2
3270.818	500.2
3273.882	489.2
3276.943	477.2
3280.002	490.2
3283.059	485.2
3286.113	483.2
3289.165	476.2
3292.214	465.2
3295.261	468.2
3298.306	453.2
3301.348	460.2
3304.387	459.2
3307.425	444.2
3310.459	440.2
3313.492	432.2
3316.521	423.2
3319.549	425.2
3322.574	424.2
3325.597	422.2
3328.617	430.2
3331.635	410.2
3334.65	420.2
3337.663	406.2
3340.674	414.2
3343.682	407.2
3346.688	412.2
3349.691	423.2
3352.692	408.2
3355.691	405.2
3358.687	398.2
3361.681	397.2
3364.673	402.2
3367.662	388.2
3370.649	382.2
3373.633	386.2
3376.615	363.2
3379.595	362.2
3382.572	363.2
3385.547	352.2
3388.52	353.2
3391.49	347.2
3394.458	340.2
3397.424	333.2
3400.387	327.2
3403.348	327.2
3406.307	315.2
3409.263	310.2
3412.217	307.2
3415.168	307.2
3418.118	311.2
3421.065	291.2
3424.009	283.2
3426.951	280.2
3429.891	282.2
3432.829	269.2
3435.764	266.2
3438.697	263.2
3441.628	256.2
3444.557	242.2
3447.483	231.2
3450.407	226.2
3453.328	214.2
3456.247	204.2
3459.164	197.2
3462.079	190.2
3464.991	182.2
3467.902	184.2
3470.809	178.2
3473.715	155.2
3476.618	154.2
3479.519	141.2
3482.418	132.2
3485.315	134.2
3488.209	129.2
3491.101	122.2
3493.99	126.2
3496.878	113.2
3499.763	103.2
3502.646	87.2
3505.527	89.2
3508.405	92.2
3511.281	79.2
3514.155	77.2
3517.027	73.2
3519.897	62.2
3522.764	60.2
3525.629	42.2
3528.492	40.2
3531.352	32.2
3534.211	30.2
3537.067	27.2
3539.921	22.2
3542.773	21.2
3545.622	11.2
3548.469	1.2
3551.315	7.2
3554.157	0.2
3556.998	-5.8
3559.837	-8.8
3562.673	-11.8
3565.507	-9.8
3568.339	-16.8
3571.169	-29.8
3573.996	-31.8
3576.822	-23.8
3579.645	-26.8
3582.466	-23.8
3585.285	-34.8
3588.101	-26.8
3590.916	-41.8
3593.728	-56.8
3596.538	-45.8
3599.346	-54.8
3602.152	-53.8
3604.956	-55.8
3607.757	-54.8
3610.556	-56.8
3613.354	-55.8
3616.149	-71.8
3618.942	-75.8
3621.732	-66.8
3624.521	-66.8
3627.307	-71.8
3630.092	-68.8
3632.874	-72.8
3635.654	-76.8
3638.432	-76.8
3641.208	-74.8
3643.982	-85.8
3646.753	-83.8
3649.523	-81.8
3652.29	-74.8
3655.055	-82.8
3657.818	-80.8
3660.579	-85.8
3663.338	-88.8
3666.095	-87.8
3668.849	-92.8
3671.602	-97.8
3674.352	-93.8
3677.101	-98.8
3679.847	-97.8
3682.591	-103.8
3685.333	-97.8
3688.073	-96.8
3690.811	-101.8
3693.547	-110.8
3696.281	-102.8
3699.013	-101.8
3701.742	-106.8
3704.47	-104.8
3707.195	-98.8
3709.919	-101.8
3712.64	-111.8
3715.359	-115.8
3718.076	-104.8
3720.792	-108.8
3723.505	-111.8
3726.216	-108.8
3728.925	-109.8
3731.632	-109.8
3734.336	-123.8
3737.039	-109.8
3739.74	-117.8
3742.439	-116.8
3745.136	-107.8
3747.83	-113.8
3750.523	-114.8
3753.213	-119.8
3755.902	-115.8
3758.589	-124.8
3761.273	-109.8
3763.956	-105.8
3766.636	-116.8
3769.315	-111.8
3771.991	-109.8
3774.665	-121.8
3777.338	-108.8
3780.008	-117.8
3782.677	-119.8
3785.343	-113.8
3788.007	-118.8
3790.67	-116.8
3793.33	-116.8
3795.989	-117.8
3798.645	-112.8
3801.299	-119.8
3803.952	-119.8
3806.602	-115.8
3809.251	-122.8
3811.897	-118.8
3814.542	-122.8
3817.184	-111.8
3819.825	-119.8
3822.463	-121.8
3825.1	-121.8
3827.735	-117.8
3830.367	-116.8
3832.998	-122.8
3835.627	-119.8
3838.253	-117.8
3840.878	-118.8
3843.501	-116.8
3846.122	-118.8
3848.741	-123.8
3851.358	-114.8
3853.973	-124.8
3856.586	-120.8
3859.197	-126.8
3861.806	-119.8
3864.414	-120.8
3867.019	-112.8
3869.622	-119.8
3872.224	-104.8
3874.823	-103.8
3877.421	-93.8
3880.016	-78.8
3882.61	-55.8
3885.202	-60.8
3887.792	-70.8
3890.38	-92.8
3892.966	-111.8
3895.55	-112.8
3898.132	-113.8
3900.713	-119.8
3903.291	-123.8
3905.868	-123.8
3908.442	-115.8
3911.015	-120.8
3913.586	-118.8
3916.155	-119.8
3918.722	-127.8
3921.287	-120.8
3923.85	-124.8
3926.411	-121.8
3928.971	-122.8
3931.528	-122.8
3934.084	-121.8
3936.638	-118.8
3939.19	-128.8
3941.74	-121.8
3944.288	-123.8
3946.834	-118.8
3949.378	-119.8
3951.921	-117.8
3954.462	-128.8
3957	-123.8
3959.537	-121.8
3962.072	-126.8
3964.606	-117.8
3967.137	-120.8
3969.667	-121.8
3972.194	-121.8
3974.72	-120.8
3977.244	-122.8
3979.766	-124.8
3982.286	-121.8
3984.805	-120.8
3987.321	-116.8
3989.836	-114.8
3992.349	-120.8
3994.86	-118.8
3997.369	-118.8
3999.877	-124.8
4002.382	-117.8
4004.886	-121.8
4007.388	-110.8
4009.888	-114.8
4012.386	-118.8
4014.883	-118.8
4017.377	-124.8
4019.87	-123.8
4022.361	-123.8
4024.85	-122.8
4027.338	-118.8
4029.823	-120.8
4032.307	-118.8
4034.789	-125.8
4037.269	-121.8
4039.747	-118.8
4042.224	-118.8
4044.699	-120.8
4047.172	-116.8
4049.643	-116.8
4052.112	-120.8
4054.58	-121.8
4057.046	-118.8
4059.51	-124.8
4061.972	-115.8
4064.432	-115.8
4066.891	-121.8
4069.348	-116.8
4071.803	-118.8
4074.256	-118.8
4076.708	-120.8
4079.158	-122.8
4081.606	-113.8
4084.052	-115.8
4086.497	-122.8
4088.939	-113.8
4091.38	-118.8
4093.819	-117.8
4096.257	-126.8
4098.693	-123.8
4101.127	-127.8
4103.559	-124.8
4105.989	-2.8
4108.418	-1.8
4110.845	-2.8
4113.27	-2.8
4115.694	-4.8
4118.115	-7.8
4120.535	-121.8
4122.954	-124.8
4125.37	-114.8
4127.785	-118.8
4130.198	-120.8
4132.609	-116.8
4135.019	-129.8
4137.427	-128.8
4139.833	-125.8
4142.237	-128.8
