Data from 2018-2-8_conc=3_n=3_RamanShift_04.txt Node
Date: Mon Mar 12 14:36:28 IST 2018
User: aro
Spectrometer: QEPB0276
Trigger mode: 0
Integration Time (sec): 3.000000E1
Scans to average: 1
Electric dark correction enabled: true
Nonlinearity correction enabled: false
Boxcar width: 0
XAxis mode: Raman Shifts
Number of Pixels in Spectrum: 1044
>>>>>Begin Spectral Data<<<<<
160.701	13.6
166.742	49.6
172.777	131.6
178.805	429.6
184.826	1165.6
190.841	2520.6
196.849	4213.6
202.85	5530.6
208.845	6039.6
214.833	6088.6
220.815	5963.6
226.789	5931.6
232.758	5971.6
238.719	5954.6
244.674	5917.6
250.623	5831.6
256.565	5753.6
262.5	5668.6
268.429	5614.6
274.351	5541.6
280.267	5496.6
286.176	5482.6
292.079	5453.6
297.975	5396.6
303.865	5370.6
309.748	5341.6
315.625	5337.6
321.495	5347.6
327.359	5337.6
333.217	5331.6
339.068	5351.6
344.912	5345.6
350.751	5326.6
356.583	5321.6
362.408	5359.6
368.227	5370.6
374.04	5373.6
379.847	5379.6
385.647	5397.6
391.44	5440.6
397.228	5463.6
403.009	5492.6
408.784	5503.6
414.553	5541.6
420.315	5541.6
426.071	5535.6
431.821	5543.6
437.565	5517.6
443.302	5484.6
449.033	5495.6
454.758	5479.6
460.477	5442.6
466.189	5417.6
471.896	5396.6
477.596	5366.6
483.29	5336.6
488.978	5341.6
494.66	5316.6
500.335	5224.6
506.005	5153.6
511.668	5016.6
517.325	4902.6
522.977	4754.6
528.622	4700.6
534.261	4623.6
539.894	4561.6
545.521	4536.6
551.141	4484.6
556.756	4478.6
562.365	4462.6
567.968	4425.6
573.565	4403.6
579.155	4367.6
584.74	4368.6
590.319	4362.6
595.892	4328.6
601.459	4324.6
607.02	4299.6
612.575	4279.6
618.124	4231.6
623.667	4206.6
629.204	4160.6
634.735	4152.6
640.261	4094.6
645.781	4086.6
651.294	4087.6
656.802	4084.6
662.304	4059.6
667.8	4045.6
673.29	3998.6
678.775	4025.6
684.254	4033.6
689.726	4005.6
695.193	4007.6
700.655	3979.6
706.11	3933.6
711.56	3904.6
717.004	3875.6
722.442	3877.6
727.874	3854.6
733.301	3822.6
738.722	3824.6
744.137	3812.6
749.547	3816.6
754.951	3809.6
760.349	3824.6
765.741	3806.6
771.128	3830.6
776.509	3832.6
781.885	3879.6
787.254	3862.6
792.618	3866.6
797.977	3825.6
803.33	3811.6
808.677	3807.6
814.019	3779.6
819.355	3742.6
824.686	3717.6
830.011	3701.6
835.33	3706.6
840.644	3698.6
845.952	3660.6
851.255	3652.6
856.552	3689.6
861.844	3635.6
867.13	3649.6
872.41	3590.6
877.686	3605.6
882.955	3547.6
888.219	3541.6
893.478	3500.6
898.731	3432.6
903.979	3383.6
909.221	3374.6
914.458	3360.6
919.69	3336.6
924.916	3368.6
930.136	3394.6
935.351	3385.6
940.561	3372.6
945.766	3358.6
950.965	3366.6
956.158	3326.6
961.347	3275.6
966.529	3263.6
971.707	3194.6
976.879	3157.6
982.046	3155.6
987.208	3132.6
992.364	3136.6
997.515	3141.6
1002.66	3154.6
1007.801	3178.6
1012.936	3221.6
1018.066	3208.6
1023.19	3209.6
1028.309	3220.6
1033.423	3217.6
1038.532	3204.6
1043.636	3195.6
1048.734	3146.6
1053.827	3096.6
1058.915	3072.6
1063.998	3019.6
1069.075	3038.6
1074.147	3028.6
1079.214	3053.6
1084.276	3037.6
1089.333	3083.6
1094.385	3073.6
1099.431	3085.6
1104.472	3085.6
1109.509	3049.6
1114.54	3021.6
1119.565	2976.6
1124.586	2942.6
1129.602	2876.6
1134.613	2898.6
1139.618	2851.6
1144.619	2878.6
1149.614	2862.6
1154.604	2863.6
1159.589	2876.6
1164.57	2861.6
1169.545	2886.6
1174.515	2885.6
1179.48	2870.6
1184.44	2861.6
1189.395	2801.6
1194.345	2799.6
1199.29	2791.6
1204.23	2778.6
1209.165	2776.6
1214.095	2814.6
1219.021	2810.6
1223.941	2813.6
1228.856	2834.6
1233.766	2845.6
1238.672	2859.6
1243.572	2855.6
1248.467	2814.6
1253.358	2802.6
1258.244	2754.6
1263.124	2708.6
1268	2671.6
1272.871	2641.6
1277.737	2610.6
1282.599	2597.6
1287.455	2599.6
1292.306	2601.6
1297.153	2619.6
1301.995	2634.6
1306.832	2629.6
1311.664	2645.6
1316.491	2667.6
1321.314	2652.6
1326.132	2636.6
1330.945	2611.6
1335.753	2592.6
1340.556	2529.6
1345.354	2481.6
1350.148	2460.6
1354.937	2429.6
1359.722	2378.6
1364.501	2341.6
1369.276	2295.6
1374.046	2238.6
1378.811	2232.6
1383.572	2201.6
1388.327	2234.6
1393.079	2212.6
1397.825	2228.6
1402.567	2213.6
1407.304	2204.6
1412.036	2237.6
1416.764	2238.6
1421.487	2244.6
1426.205	2263.6
1430.919	2223.6
1435.628	2276.6
1440.333	2265.6
1445.032	2273.6
1449.727	2308.6
1454.418	2313.6
1459.104	2308.6
1463.785	2289.6
1468.462	2277.6
1473.134	2197.6
1477.802	2156.6
1482.465	2112.6
1487.123	2061.6
1491.777	2016.6
1496.426	2017.6
1501.071	1989.6
1505.711	1974.6
1510.347	1971.6
1514.978	1985.6
1519.604	1979.6
1524.226	1978.6
1528.844	1942.6
1533.457	1925.6
1538.065	1939.6
1542.669	1946.6
1547.269	1931.6
1551.864	1939.6
1556.454	1957.6
1561.041	1963.6
1565.622	1972.6
1570.199	1993.6
1574.772	2009.6
1579.34	2035.6
1583.904	2065.6
1588.464	2088.6
1593.019	2096.6
1597.569	2090.6
1602.115	2090.6
1606.657	2080.6
1611.195	2047.6
1615.728	2054.6
1620.256	2043.6
1624.78	2060.6
1629.3	2051.6
1633.816	2055.6
1638.327	2074.6
1642.834	2052.6
1647.336	2081.6
1651.834	2104.6
1656.328	2094.6
1660.817	2091.6
1665.302	2077.6
1669.783	2028.6
1674.259	1966.6
1678.732	1927.6
1683.199	1888.6
1687.663	1824.6
1692.122	1748.6
1696.577	1691.6
1701.028	1619.6
1705.474	1558.6
1709.917	1508.6
1714.355	1473.6
1718.788	1474.6
1723.218	1463.6
1727.643	1470.6
1732.064	1460.6
1736.481	1449.6
1740.893	1416.6
1745.301	1387.6
1749.705	1361.6
1754.105	1346.6
1758.501	1321.6
1762.893	1297.6
1767.28	1279.6
1771.663	1273.6
1776.042	1255.6
1780.417	1247.6
1784.787	1217.6
1789.154	1223.6
1793.516	1220.6
1797.874	1197.6
1802.228	1165.6
1806.578	1151.6
1810.924	1147.6
1815.266	1148.6
1819.603	1137.6
1823.937	1132.6
1828.266	1130.6
1832.591	1140.6
1836.913	1142.6
1841.23	1140.6
1845.543	1142.6
1849.852	1127.6
1854.156	1130.6
1858.457	1134.6
1862.754	1126.6
1867.047	1138.6
1871.335	1140.6
1875.62	1137.6
1879.9	1125.6
1884.177	1120.6
1888.449	1117.6
1892.718	1102.6
1896.982	1080.6
1901.243	1075.6
1905.499	1067.6
1909.752	1046.6
1914	1019.6
1918.245	1028.6
1922.485	996.6
1926.722	992.6
1930.954	992.6
1935.183	991.6
1939.408	987.6
1943.628	980.6
1947.845	957.6
1952.058	945.6
1956.267	943.6
1960.472	939.6
1964.673	924.6
1968.87	932.6
1973.063	917.6
1977.252	895.6
1981.438	916.6
1985.619	912.6
1989.797	900.6
1993.971	928.6
1998.14	926.6
2002.306	902.6
2006.469	924.6
2010.627	932.6
2014.781	934.6
2018.932	927.6
2023.078	922.6
2027.221	898.6
2031.36	891.6
2035.495	893.6
2039.627	887.6
2043.754	861.6
2047.878	861.6
2051.998	865.6
2056.114	857.6
2060.226	843.6
2064.334	848.6
2068.439	840.6
2072.54	846.6
2076.637	844.6
2080.73	834.6
2084.82	840.6
2088.906	825.6
2092.988	814.6
2097.066	812.6
2101.14	780.6
2105.211	781.6
2109.278	778.6
2113.342	764.6
2117.401	749.6
2121.457	747.6
2125.509	748.6
2129.558	745.6
2133.602	753.6
2137.643	748.6
2141.681	747.6
2145.714	736.6
2149.744	750.6
2153.77	737.6
2157.793	742.6
2161.812	732.6
2165.827	735.6
2169.838	714.6
2173.846	704.6
2177.851	705.6
2181.851	681.6
2185.848	669.6
2189.841	672.6
2193.831	673.6
2197.817	662.6
2201.799	661.6
2205.778	650.6
2209.753	657.6
2213.725	657.6
2217.693	662.6
2221.657	649.6
2225.618	648.6
2229.575	658.6
2233.529	649.6
2237.479	655.6
2241.425	643.6
2245.368	614.6
2249.307	605.6
2253.243	598.6
2257.175	598.6
2261.104	594.6
2265.029	571.6
2268.95	575.6
2272.868	567.6
2276.783	546.6
2280.694	547.6
2284.601	554.6
2288.505	534.6
2292.405	546.6
2296.302	529.6
2300.195	531.6
2304.085	516.6
2307.971	515.6
2311.854	501.6
2315.734	487.6
2319.609	485.6
2323.482	487.6
2327.351	485.6
2331.216	498.6
2335.078	496.6
2338.937	489.6
2342.792	464.6
2346.643	457.6
2350.492	467.6
2354.336	478.6
2358.178	467.6
2362.015	466.6
2365.85	475.6
2369.681	471.6
2373.508	468.6
2377.333	467.6
2381.153	463.6
2384.971	477.6
2388.785	469.6
2392.595	452.6
2396.402	442.6
2400.206	446.6
2404.007	454.6
2407.804	452.6
2411.597	439.6
2415.388	449.6
2419.174	446.6
2422.958	435.6
2426.738	439.6
2430.515	445.6
2434.289	440.6
2438.059	436.6
2441.825	420.6
2445.589	420.6
2449.349	407.6
2453.106	398.6
2456.859	408.6
2460.61	406.6
2464.356	397.6
2468.1	388.6
2471.84	384.6
2475.577	396.6
2479.311	367.6
2483.041	366.6
2486.768	366.6
2490.492	369.6
2494.213	369.6
2497.93	362.6
2501.644	367.6
2505.355	351.6
2509.062	349.6
2512.766	356.6
2516.467	340.6
2520.165	347.6
2523.859	342.6
2527.551	331.6
2531.239	334.6
2534.923	309.6
2538.605	322.6
2542.283	309.6
2545.958	316.6
2549.63	301.6
2553.299	313.6
2556.964	304.6
2560.626	302.6
2564.285	291.6
2567.941	289.6
2571.594	294.6
2575.243	294.6
2578.89	293.6
2582.533	279.6
2586.173	274.6
2589.809	260.6
2593.443	268.6
2597.073	259.6
2600.701	264.6
2604.325	253.6
2607.946	266.6
2611.564	256.6
2615.178	262.6
2618.79	266.6
2622.398	252.6
2626.004	242.6
2629.606	240.6
2633.205	243.6
2636.801	252.6
2640.394	239.6
2643.983	237.6
2647.57	230.6
2651.153	233.6
2654.734	236.6
2658.311	227.6
2661.885	219.6
2665.456	223.6
2669.025	231.6
2672.589	219.6
2676.151	230.6
2679.71	215.6
2683.266	213.6
2686.819	216.6
2690.368	199.6
2693.915	205.6
2697.458	199.6
2700.999	195.6
2704.536	200.6
2708.071	189.6
2711.602	185.6
2715.13	180.6
2718.656	175.6
2722.178	179.6
2725.697	168.6
2729.214	171.6
2732.727	174.6
2736.237	178.6
2739.744	168.6
2743.249	171.6
2746.75	164.6
2750.248	155.6
2753.743	156.6
2757.236	142.6
2760.725	143.6
2764.211	138.6
2767.695	141.6
2771.175	140.6
2774.652	136.6
2778.127	135.6
2781.598	121.6
2785.067	138.6
2788.532	133.6
2791.995	144.6
2795.455	137.6
2798.911	144.6
2802.365	140.6
2805.816	144.6
2809.264	145.6
2812.709	149.6
2816.151	144.6
2819.59	136.6
2823.026	145.6
2826.46	134.6
2829.89	142.6
2833.318	138.6
2836.742	149.6
2840.164	137.6
2843.583	147.6
2846.999	138.6
2850.412	146.6
2853.822	146.6
2857.229	146.6
2860.634	149.6
2864.035	158.6
2867.434	157.6
2870.83	169.6
2874.223	175.6
2877.613	183.6
2881	192.6
2884.385	181.6
2887.766	184.6
2891.145	181.6
2894.521	189.6
2897.894	189.6
2901.264	185.6
2904.631	190.6
2907.996	194.6
2911.358	197.6
2914.717	203.6
2918.073	206.6
2921.426	206.6
2924.777	220.6
2928.124	218.6
2931.469	229.6
2934.811	231.6
2938.15	229.6
2941.487	240.6
2944.821	239.6
2948.152	249.6
2951.48	242.6
2954.805	245.6
2958.128	235.6
2961.447	236.6
2964.765	248.6
2968.079	235.6
2971.39	235.6
2974.699	243.6
2978.005	239.6
2981.308	248.6
2984.609	244.6
2987.907	247.6
2991.202	258.6
2994.494	247.6
2997.784	254.6
3001.07	254.6
3004.355	266.6
3007.636	268.6
3010.915	254.6
3014.191	265.6
3017.464	280.6
3020.734	274.6
3024.002	278.6
3027.267	285.6
3030.53	289.6
3033.789	291.6
3037.046	305.6
3040.301	313.6
3043.552	333.6
3046.801	334.6
3050.048	337.6
3053.291	347.6
3056.532	356.6
3059.771	373.6
3063.006	382.6
3066.239	398.6
3069.469	414.6
3072.697	413.6
3075.922	441.6
3079.144	454.6
3082.364	458.6
3085.581	476.6
3088.795	473.6
3092.007	486.6
3095.216	498.6
3098.423	503.6
3101.627	525.6
3104.828	521.6
3108.026	532.6
3111.222	541.6
3114.416	558.6
3117.607	568.6
3120.795	584.6
3123.98	593.6
3127.163	614.6
3130.344	639.6
3133.521	637.6
3136.696	655.6
3139.869	666.6
3143.039	662.6
3146.206	677.6
3149.371	694.6
3152.533	706.6
3155.693	706.6
3158.85	715.6
3162.005	715.6
3165.157	707.6
3168.306	717.6
3171.453	727.6
3174.597	735.6
3177.739	742.6
3180.878	743.6
3184.014	753.6
3187.149	758.6
3190.28	754.6
3193.409	753.6
3196.536	760.6
3199.659	767.6
3202.781	769.6
3205.9	771.6
3209.016	771.6
3212.13	780.6
3215.241	763.6
3218.35	755.6
3221.456	741.6
3224.56	736.6
3227.661	732.6
3230.76	720.6
3233.856	707.6
3236.95	694.6
3240.041	680.6
3243.13	675.6
3246.216	675.6
3249.3	668.6
3252.382	659.6
3255.46	662.6
3258.537	640.6
3261.611	631.6
3264.682	633.6
3267.751	629.6
3270.818	613.6
3273.882	634.6
3276.943	606.6
3280.002	612.6
3283.059	610.6
3286.113	605.6
3289.165	601.6
3292.214	596.6
3295.261	580.6
3298.306	579.6
3301.348	566.6
3304.387	569.6
3307.425	563.6
3310.459	564.6
3313.492	545.6
3316.521	533.6
3319.549	537.6
3322.574	530.6
3325.597	516.6
3328.617	531.6
3331.635	526.6
3334.65	523.6
3337.663	519.6
3340.674	517.6
3343.682	521.6
3346.688	507.6
3349.691	514.6
3352.692	525.6
3355.691	515.6
3358.687	510.6
3361.681	503.6
3364.673	504.6
3367.662	482.6
3370.649	477.6
3373.633	475.6
3376.615	459.6
3379.595	451.6
3382.572	455.6
3385.547	446.6
3388.52	432.6
3391.49	425.6
3394.458	429.6
3397.424	416.6
3400.387	416.6
3403.348	406.6
3406.307	396.6
3409.263	388.6
3412.217	385.6
3415.168	387.6
3418.118	394.6
3421.065	377.6
3424.009	376.6
3426.951	368.6
3429.891	357.6
3432.829	341.6
3435.764	336.6
3438.697	329.6
3441.628	321.6
3444.557	312.6
3447.483	297.6
3450.407	292.6
3453.328	260.6
3456.247	266.6
3459.164	250.6
3462.079	236.6
3464.991	231.6
3467.902	223.6
3470.809	220.6
3473.715	195.6
3476.618	202.6
3479.519	188.6
3482.418	187.6
3485.315	173.6
3488.209	168.6
3491.101	160.6
3493.99	162.6
3496.878	144.6
3499.763	132.6
3502.646	124.6
3505.527	122.6
3508.405	124.6
3511.281	102.6
3514.155	102.6
3517.027	93.6
3519.897	79.6
3522.764	75.6
3525.629	60.6
3528.492	52.6
3531.352	47.6
3534.211	43.6
3537.067	30.6
3539.921	30.6
3542.773	27.6
3545.622	10.6
3548.469	8.6
3551.315	7.6
3554.157	0.6
3556.998	-8.4
3559.837	-5.4
3562.673	-16.4
3565.507	-17.4
3568.339	-23.4
3571.169	-34.4
3573.996	-30.4
3576.822	-28.4
3579.645	-31.4
3582.466	-35.4
3585.285	-40.4
3588.101	-37.4
3590.916	-50.4
3593.728	-58.4
3596.538	-59.4
3599.346	-61.4
3602.152	-60.4
3604.956	-61.4
3607.757	-64.4
3610.556	-72.4
3613.354	-66.4
3616.149	-85.4
3618.942	-85.4
3621.732	-85.4
3624.521	-78.4
3627.307	-82.4
3630.092	-85.4
3632.874	-86.4
3635.654	-93.4
3638.432	-96.4
3641.208	-94.4
3643.982	-106.4
3646.753	-100.4
3649.523	-103.4
3652.29	-102.4
3655.055	-100.4
3657.818	-107.4
3660.579	-100.4
3663.338	-106.4
3666.095	-104.4
3668.849	-112.4
3671.602	-115.4
3674.352	-113.4
3677.101	-119.4
3679.847	-117.4
3682.591	-125.4
3685.333	-116.4
3688.073	-120.4
3690.811	-119.4
3693.547	-127.4
3696.281	-126.4
3699.013	-123.4
3701.742	-133.4
3704.47	-125.4
3707.195	-122.4
3709.919	-126.4
3712.64	-129.4
3715.359	-134.4
3718.076	-133.4
3720.792	-135.4
3723.505	-133.4
3726.216	-132.4
3728.925	-135.4
3731.632	-134.4
3734.336	-143.4
3737.039	-136.4
3739.74	-137.4
3742.439	-143.4
3745.136	-137.4
3747.83	-147.4
3750.523	-136.4
3753.213	-146.4
3755.902	-138.4
3758.589	-144.4
3761.273	-135.4
3763.956	-135.4
3766.636	-138.4
3769.315	-134.4
3771.991	-136.4
3774.665	-143.4
3777.338	-133.4
3780.008	-139.4
3782.677	-143.4
3785.343	-146.4
3788.007	-149.4
3790.67	-144.4
3793.33	-143.4
3795.989	-136.4
3798.645	-137.4
3801.299	-141.4
3803.952	-148.4
3806.602	-139.4
3809.251	-147.4
3811.897	-146.4
3814.542	-145.4
3817.184	-137.4
3819.825	-142.4
3822.463	-141.4
3825.1	-148.4
3827.735	-144.4
3830.367	-145.4
3832.998	-152.4
3835.627	-149.4
3838.253	-139.4
3840.878	-142.4
3843.501	-133.4
3846.122	-142.4
3848.741	-147.4
3851.358	-139.4
3853.973	-151.4
3856.586	-147.4
3859.197	-148.4
3861.806	-144.4
3864.414	-148.4
3867.019	-142.4
3869.622	-142.4
3872.224	-133.4
3874.823	-129.4
3877.421	-118.4
3880.016	-92.4
3882.61	-74.4
3885.202	-73.4
3887.792	-90.4
3890.38	-109.4
3892.966	-135.4
3895.55	-139.4
3898.132	-146.4
3900.713	-144.4
3903.291	-150.4
3905.868	-149.4
3908.442	-139.4
3911.015	-152.4
3913.586	-149.4
3916.155	-149.4
3918.722	-150.4
3921.287	-147.4
3923.85	-149.4
3926.411	-152.4
3928.971	-144.4
3931.528	-146.4
3934.084	-149.4
3936.638	-144.4
3939.19	-150.4
3941.74	-153.4
3944.288	-152.4
3946.834	-144.4
3949.378	-145.4
3951.921	-147.4
3954.462	-158.4
3957	-146.4
3959.537	-143.4
3962.072	-150.4
3964.606	-141.4
3967.137	-147.4
3969.667	-149.4
3972.194	-148.4
3974.72	-145.4
3977.244	-147.4
3979.766	-149.4
3982.286	-143.4
3984.805	-152.4
3987.321	-148.4
3989.836	-140.4
3992.349	-147.4
3994.86	-147.4
3997.369	-148.4
3999.877	-147.4
4002.382	-142.4
4004.886	-150.4
4007.388	-148.4
4009.888	-144.4
4012.386	-148.4
4014.883	-145.4
4017.377	-144.4
4019.87	-147.4
4022.361	-149.4
4024.85	-146.4
4027.338	-149.4
4029.823	-146.4
4032.307	-140.4
4034.789	-148.4
4037.269	-144.4
4039.747	-146.4
4042.224	-138.4
4044.699	-151.4
4047.172	-145.4
4049.643	-143.4
4052.112	-143.4
4054.58	-144.4
4057.046	-149.4
4059.51	-147.4
4061.972	-147.4
4064.432	-146.4
4066.891	-145.4
4069.348	-143.4
4071.803	-152.4
4074.256	-147.4
4076.708	-141.4
4079.158	-144.4
4081.606	-138.4
4084.052	-146.4
4086.497	-144.4
4088.939	-141.4
4091.38	-141.4
4093.819	-147.4
4096.257	-154.4
4098.693	-150.4
4101.127	-154.4
4103.559	-152.4
4105.989	-5.4
4108.418	-8.4
4110.845	-11.4
4113.27	-10.4
4115.694	-16.4
4118.115	-9.4
4120.535	-149.4
4122.954	-147.4
4125.37	-142.4
4127.785	-146.4
4130.198	-145.4
4132.609	-143.4
4135.019	-154.4
4137.427	-158.4
4139.833	-156.4
4142.237	-155.4
