Data from 2018-2-8_conc=0_n=3_RamanShift_06.txt Node
Date: Mon Mar 12 13:27:59 IST 2018
User: aro
Spectrometer: QEPB0276
Trigger mode: 0
Integration Time (sec): 3.000000E1
Scans to average: 1
Electric dark correction enabled: true
Nonlinearity correction enabled: false
Boxcar width: 0
XAxis mode: Raman Shifts
Number of Pixels in Spectrum: 1044
>>>>>Begin Spectral Data<<<<<
160.701	16.6
166.742	40.6
172.777	114.6
178.805	348.6
184.826	960.6
190.841	2044.6
196.849	3430.6
202.85	4488.6
208.845	4881.6
214.833	4883.6
220.815	4801.6
226.789	4788.6
232.758	4803.6
238.719	4763.6
244.674	4733.6
250.623	4683.6
256.565	4586.6
262.5	4522.6
268.429	4456.6
274.351	4425.6
280.267	4380.6
286.176	4340.6
292.079	4335.6
297.975	4288.6
303.865	4290.6
309.748	4277.6
315.625	4243.6
321.495	4237.6
327.359	4236.6
333.217	4199.6
339.068	4262.6
344.912	4260.6
350.751	4238.6
356.583	4277.6
362.408	4256.6
368.227	4264.6
374.04	4309.6
379.847	4318.6
385.647	4349.6
391.44	4341.6
397.228	4367.6
403.009	4352.6
408.784	4407.6
414.553	4401.6
420.315	4413.6
426.071	4458.6
431.821	4415.6
437.565	4446.6
443.302	4424.6
449.033	4379.6
454.758	4391.6
460.477	4355.6
466.189	4334.6
471.896	4314.6
477.596	4283.6
483.29	4246.6
488.978	4252.6
494.66	4237.6
500.335	4171.6
506.005	4079.6
511.668	3931.6
517.325	3814.6
522.977	3741.6
528.622	3665.6
534.261	3568.6
539.894	3539.6
545.521	3497.6
551.141	3512.6
556.756	3465.6
562.365	3433.6
567.968	3447.6
573.565	3398.6
579.155	3373.6
584.74	3362.6
590.319	3354.6
595.892	3336.6
601.459	3335.6
607.02	3347.6
612.575	3314.6
618.124	3271.6
623.667	3249.6
629.204	3217.6
634.735	3169.6
640.261	3132.6
645.781	3143.6
651.294	3147.6
656.802	3137.6
662.304	3136.6
667.8	3104.6
673.29	3120.6
678.775	3121.6
684.254	3075.6
689.726	3085.6
695.193	3057.6
700.655	3046.6
706.11	3031.6
711.56	3019.6
717.004	3011.6
722.442	2979.6
727.874	2978.6
733.301	2969.6
738.722	2951.6
744.137	2949.6
749.547	2935.6
754.951	2964.6
760.349	2930.6
765.741	2939.6
771.128	2938.6
776.509	2990.6
781.885	3000.6
787.254	3004.6
792.618	3006.6
797.977	2982.6
803.33	2973.6
808.677	2934.6
814.019	2931.6
819.355	2918.6
824.686	2863.6
830.011	2861.6
835.33	2864.6
840.644	2848.6
845.952	2845.6
851.255	2847.6
856.552	2832.6
861.844	2818.6
867.13	2816.6
872.41	2803.6
877.686	2818.6
882.955	2794.6
888.219	2751.6
893.478	2712.6
898.731	2685.6
903.979	2635.6
909.221	2635.6
914.458	2588.6
919.69	2591.6
924.916	2606.6
930.136	2603.6
935.351	2600.6
940.561	2603.6
945.766	2578.6
950.965	2600.6
956.158	2569.6
961.347	2521.6
966.529	2490.6
971.707	2452.6
976.879	2458.6
982.046	2405.6
987.208	2402.6
992.364	2413.6
997.515	2444.6
1002.66	2458.6
1007.801	2467.6
1012.936	2477.6
1018.066	2492.6
1023.19	2480.6
1028.309	2492.6
1033.423	2475.6
1038.532	2482.6
1043.636	2477.6
1048.734	2455.6
1053.827	2448.6
1058.915	2392.6
1063.998	2367.6
1069.075	2338.6
1074.147	2350.6
1079.214	2375.6
1084.276	2382.6
1089.333	2393.6
1094.385	2410.6
1099.431	2393.6
1104.472	2394.6
1109.509	2384.6
1114.54	2341.6
1119.565	2309.6
1124.586	2273.6
1129.602	2227.6
1134.613	2236.6
1139.618	2218.6
1144.619	2239.6
1149.614	2212.6
1154.604	2230.6
1159.589	2228.6
1164.57	2235.6
1169.545	2256.6
1174.515	2241.6
1179.48	2232.6
1184.44	2200.6
1189.395	2192.6
1194.345	2177.6
1199.29	2159.6
1204.23	2164.6
1209.165	2179.6
1214.095	2176.6
1219.021	2203.6
1223.941	2208.6
1228.856	2228.6
1233.766	2220.6
1238.672	2221.6
1243.572	2220.6
1248.467	2224.6
1253.358	2191.6
1258.244	2154.6
1263.124	2126.6
1268	2087.6
1272.871	2075.6
1277.737	2055.6
1282.599	2046.6
1287.455	2043.6
1292.306	2038.6
1297.153	2051.6
1301.995	2075.6
1306.832	2067.6
1311.664	2077.6
1316.491	2084.6
1321.314	2101.6
1326.132	2087.6
1330.945	2041.6
1335.753	2015.6
1340.556	1983.6
1345.354	1958.6
1350.148	1907.6
1354.937	1904.6
1359.722	1858.6
1364.501	1813.6
1369.276	1787.6
1374.046	1742.6
1378.811	1730.6
1383.572	1725.6
1388.327	1746.6
1393.079	1723.6
1397.825	1733.6
1402.567	1746.6
1407.304	1760.6
1412.036	1753.6
1416.764	1761.6
1421.487	1780.6
1426.205	1766.6
1430.919	1772.6
1435.628	1775.6
1440.333	1796.6
1445.032	1802.6
1449.727	1823.6
1454.418	1844.6
1459.104	1836.6
1463.785	1802.6
1468.462	1770.6
1473.134	1745.6
1477.802	1687.6
1482.465	1665.6
1487.123	1627.6
1491.777	1604.6
1496.426	1582.6
1501.071	1555.6
1505.711	1570.6
1510.347	1553.6
1514.978	1549.6
1519.604	1560.6
1524.226	1545.6
1528.844	1524.6
1533.457	1506.6
1538.065	1508.6
1542.669	1534.6
1547.269	1514.6
1551.864	1513.6
1556.454	1540.6
1561.041	1549.6
1565.622	1570.6
1570.199	1568.6
1574.772	1574.6
1579.34	1594.6
1583.904	1616.6
1588.464	1633.6
1593.019	1609.6
1597.569	1634.6
1602.115	1649.6
1606.657	1631.6
1611.195	1632.6
1615.728	1624.6
1620.256	1624.6
1624.78	1631.6
1629.3	1627.6
1633.816	1634.6
1638.327	1632.6
1642.834	1643.6
1647.336	1654.6
1651.834	1650.6
1656.328	1653.6
1660.817	1645.6
1665.302	1616.6
1669.783	1587.6
1674.259	1552.6
1678.732	1509.6
1683.199	1485.6
1687.663	1421.6
1692.122	1383.6
1696.577	1334.6
1701.028	1249.6
1705.474	1222.6
1709.917	1179.6
1714.355	1151.6
1718.788	1139.6
1723.218	1158.6
1727.643	1136.6
1732.064	1151.6
1736.481	1138.6
1740.893	1107.6
1745.301	1087.6
1749.705	1061.6
1754.105	1039.6
1758.501	1036.6
1762.893	1022.6
1767.28	1008.6
1771.663	1004.6
1776.042	968.6
1780.417	966.6
1784.787	963.6
1789.154	950.6
1793.516	939.6
1797.874	923.6
1802.228	900.6
1806.578	892.6
1810.924	882.6
1815.266	879.6
1819.603	890.6
1823.937	874.6
1828.266	878.6
1832.591	880.6
1836.913	885.6
1841.23	883.6
1845.543	882.6
1849.852	887.6
1854.156	887.6
1858.457	891.6
1862.754	888.6
1867.047	894.6
1871.335	891.6
1875.62	887.6
1879.9	870.6
1884.177	878.6
1888.449	872.6
1892.718	865.6
1896.982	842.6
1901.243	816.6
1905.499	827.6
1909.752	817.6
1914	807.6
1918.245	808.6
1922.485	781.6
1926.722	780.6
1930.954	775.6
1935.183	766.6
1939.408	758.6
1943.628	755.6
1947.845	745.6
1952.058	747.6
1956.267	732.6
1960.472	728.6
1964.673	715.6
1968.87	721.6
1973.063	713.6
1977.252	701.6
1981.438	713.6
1985.619	701.6
1989.797	707.6
1993.971	717.6
1998.14	721.6
2002.306	718.6
2006.469	714.6
2010.627	717.6
2014.781	730.6
2018.932	721.6
2023.078	724.6
2027.221	721.6
2031.36	700.6
2035.495	698.6
2039.627	678.6
2043.754	666.6
2047.878	666.6
2051.998	668.6
2056.114	664.6
2060.226	672.6
2064.334	657.6
2068.439	664.6
2072.54	656.6
2076.637	663.6
2080.73	642.6
2084.82	642.6
2088.906	648.6
2092.988	638.6
2097.066	628.6
2101.14	620.6
2105.211	616.6
2109.278	599.6
2113.342	599.6
2117.401	595.6
2121.457	593.6
2125.509	581.6
2129.558	577.6
2133.602	588.6
2137.643	582.6
2141.681	570.6
2145.714	577.6
2149.744	583.6
2153.77	579.6
2157.793	586.6
2161.812	583.6
2165.827	577.6
2169.838	563.6
2173.846	555.6
2177.851	555.6
2181.851	534.6
2185.848	531.6
2189.841	540.6
2193.831	540.6
2197.817	523.6
2201.799	519.6
2205.778	526.6
2209.753	517.6
2213.725	514.6
2217.693	523.6
2221.657	520.6
2225.618	524.6
2229.575	515.6
2233.529	513.6
2237.479	510.6
2241.425	496.6
2245.368	486.6
2249.307	496.6
2253.243	468.6
2257.175	471.6
2261.104	471.6
2265.029	457.6
2268.95	460.6
2272.868	449.6
2276.783	443.6
2280.694	437.6
2284.601	430.6
2288.505	426.6
2292.405	428.6
2296.302	424.6
2300.195	416.6
2304.085	419.6
2307.971	394.6
2311.854	408.6
2315.734	387.6
2319.609	392.6
2323.482	391.6
2327.351	390.6
2331.216	391.6
2335.078	406.6
2338.937	385.6
2342.792	386.6
2346.643	369.6
2350.492	378.6
2354.336	380.6
2358.178	374.6
2362.015	386.6
2365.85	376.6
2369.681	373.6
2373.508	373.6
2377.333	377.6
2381.153	387.6
2384.971	393.6
2388.785	384.6
2392.595	374.6
2396.402	367.6
2400.206	370.6
2404.007	376.6
2407.804	373.6
2411.597	358.6
2415.388	361.6
2419.174	369.6
2422.958	357.6
2426.738	361.6
2430.515	353.6
2434.289	361.6
2438.059	338.6
2441.825	341.6
2445.589	347.6
2449.349	338.6
2453.106	339.6
2456.859	336.6
2460.61	326.6
2464.356	314.6
2468.1	316.6
2471.84	302.6
2475.577	318.6
2479.311	300.6
2483.041	301.6
2486.768	298.6
2490.492	302.6
2494.213	311.6
2497.93	301.6
2501.644	296.6
2505.355	284.6
2509.062	291.6
2512.766	288.6
2516.467	288.6
2520.165	277.6
2523.859	276.6
2527.551	267.6
2531.239	265.6
2534.923	253.6
2538.605	261.6
2542.283	257.6
2545.958	258.6
2549.63	263.6
2553.299	260.6
2556.964	252.6
2560.626	245.6
2564.285	239.6
2567.941	239.6
2571.594	240.6
2575.243	237.6
2578.89	238.6
2582.533	225.6
2586.173	215.6
2589.809	216.6
2593.443	236.6
2597.073	219.6
2600.701	212.6
2604.325	212.6
2607.946	204.6
2611.564	217.6
2615.178	212.6
2618.79	215.6
2622.398	208.6
2626.004	204.6
2629.606	198.6
2633.205	200.6
2636.801	214.6
2640.394	204.6
2643.983	196.6
2647.57	195.6
2651.153	195.6
2654.734	184.6
2658.311	196.6
2661.885	190.6
2665.456	187.6
2669.025	187.6
2672.589	181.6
2676.151	185.6
2679.71	184.6
2683.266	176.6
2686.819	175.6
2690.368	177.6
2693.915	175.6
2697.458	164.6
2700.999	168.6
2704.536	159.6
2708.071	158.6
2711.602	140.6
2715.13	155.6
2718.656	140.6
2722.178	150.6
2725.697	141.6
2729.214	140.6
2732.727	146.6
2736.237	152.6
2739.744	149.6
2743.249	133.6
2746.75	133.6
2750.248	129.6
2753.743	119.6
2757.236	124.6
2760.725	119.6
2764.211	115.6
2767.695	114.6
2771.175	114.6
2774.652	114.6
2778.127	106.6
2781.598	107.6
2785.067	103.6
2788.532	108.6
2791.995	115.6
2795.455	115.6
2798.911	111.6
2802.365	114.6
2805.816	119.6
2809.264	117.6
2812.709	115.6
2816.151	118.6
2819.59	134.6
2823.026	125.6
2826.46	120.6
2829.89	120.6
2833.318	115.6
2836.742	123.6
2840.164	118.6
2843.583	118.6
2846.999	125.6
2850.412	121.6
2853.822	131.6
2857.229	127.6
2860.634	137.6
2864.035	133.6
2867.434	141.6
2870.83	152.6
2874.223	158.6
2877.613	153.6
2881	177.6
2884.385	156.6
2887.766	160.6
2891.145	151.6
2894.521	157.6
2897.894	172.6
2901.264	171.6
2904.631	164.6
2907.996	174.6
2911.358	167.6
2914.717	173.6
2918.073	178.6
2921.426	180.6
2924.777	189.6
2928.124	192.6
2931.469	196.6
2934.811	204.6
2938.15	216.6
2941.487	223.6
2944.821	215.6
2948.152	207.6
2951.48	206.6
2954.805	214.6
2958.128	197.6
2961.447	201.6
2964.765	192.6
2968.079	194.6
2971.39	201.6
2974.699	214.6
2978.005	204.6
2981.308	209.6
2984.609	200.6
2987.907	197.6
2991.202	213.6
2994.494	211.6
2997.784	212.6
3001.07	205.6
3004.355	213.6
3007.636	218.6
3010.915	211.6
3014.191	218.6
3017.464	216.6
3020.734	221.6
3024.002	223.6
3027.267	235.6
3030.53	240.6
3033.789	240.6
3037.046	244.6
3040.301	246.6
3043.552	257.6
3046.801	270.6
3050.048	278.6
3053.291	281.6
3056.532	289.6
3059.771	299.6
3063.006	311.6
3066.239	325.6
3069.469	325.6
3072.697	341.6
3075.922	366.6
3079.144	354.6
3082.364	370.6
3085.581	392.6
3088.795	380.6
3092.007	392.6
3095.216	391.6
3098.423	401.6
3101.627	415.6
3104.828	427.6
3108.026	437.6
3111.222	454.6
3114.416	458.6
3117.607	464.6
3120.795	478.6
3123.98	477.6
3127.163	496.6
3130.344	511.6
3133.521	519.6
3136.696	536.6
3139.869	547.6
3143.039	548.6
3146.206	548.6
3149.371	555.6
3152.533	572.6
3155.693	565.6
3158.85	573.6
3162.005	579.6
3165.157	585.6
3168.306	579.6
3171.453	589.6
3174.597	590.6
3177.739	599.6
3180.878	591.6
3184.014	601.6
3187.149	603.6
3190.28	616.6
3193.409	611.6
3196.536	603.6
3199.659	619.6
3202.781	621.6
3205.9	625.6
3209.016	628.6
3212.13	612.6
3215.241	623.6
3218.35	607.6
3221.456	595.6
3224.56	597.6
3227.661	575.6
3230.76	580.6
3233.856	569.6
3236.95	557.6
3240.041	537.6
3243.13	528.6
3246.216	531.6
3249.3	522.6
3252.382	525.6
3255.46	503.6
3258.537	513.6
3261.611	512.6
3264.682	486.6
3267.751	498.6
3270.818	495.6
3273.882	485.6
3276.943	474.6
3280.002	481.6
3283.059	479.6
3286.113	469.6
3289.165	486.6
3292.214	466.6
3295.261	454.6
3298.306	455.6
3301.348	449.6
3304.387	456.6
3307.425	441.6
3310.459	432.6
3313.492	433.6
3316.521	438.6
3319.549	424.6
3322.574	431.6
3325.597	419.6
3328.617	407.6
3331.635	417.6
3334.65	414.6
3337.663	419.6
3340.674	414.6
3343.682	411.6
3346.688	412.6
3349.691	410.6
3352.692	412.6
3355.691	414.6
3358.687	402.6
3361.681	399.6
3364.673	386.6
3367.662	387.6
3370.649	382.6
3373.633	370.6
3376.615	371.6
3379.595	358.6
3382.572	358.6
3385.547	349.6
3388.52	339.6
3391.49	336.6
3394.458	337.6
3397.424	318.6
3400.387	326.6
3403.348	322.6
3406.307	311.6
3409.263	305.6
3412.217	303.6
3415.168	303.6
3418.118	308.6
3421.065	292.6
3424.009	290.6
3426.951	286.6
3429.891	269.6
3432.829	263.6
3435.764	261.6
3438.697	260.6
3441.628	246.6
3444.557	239.6
3447.483	229.6
3450.407	213.6
3453.328	206.6
3456.247	204.6
3459.164	203.6
3462.079	183.6
3464.991	182.6
3467.902	181.6
3470.809	170.6
3473.715	156.6
3476.618	139.6
3479.519	137.6
3482.418	130.6
3485.315	135.6
3488.209	127.6
3491.101	114.6
3493.99	118.6
3496.878	107.6
3499.763	99.6
3502.646	90.6
3505.527	84.6
3508.405	86.6
3511.281	77.6
3514.155	75.6
3517.027	64.6
3519.897	53.6
3522.764	47.6
3525.629	37.6
3528.492	31.6
3531.352	27.6
3534.211	29.6
3537.067	18.6
3539.921	21.6
3542.773	7.6
3545.622	4.6
3548.469	3.6
3551.315	-3.4
3554.157	-6.4
3556.998	-15.4
3559.837	-9.4
3562.673	-13.4
3565.507	-10.4
3568.339	-32.4
3571.169	-45.4
3573.996	-31.4
3576.822	-35.4
3579.645	-33.4
3582.466	-35.4
3585.285	-47.4
3588.101	-35.4
3590.916	-52.4
3593.728	-59.4
3596.538	-55.4
3599.346	-55.4
3602.152	-56.4
3604.956	-57.4
3607.757	-54.4
3610.556	-66.4
3613.354	-71.4
3616.149	-68.4
3618.942	-78.4
3621.732	-70.4
3624.521	-72.4
3627.307	-72.4
3630.092	-71.4
3632.874	-71.4
3635.654	-84.4
3638.432	-78.4
3641.208	-81.4
3643.982	-85.4
3646.753	-85.4
3649.523	-85.4
3652.29	-85.4
3655.055	-88.4
3657.818	-87.4
3660.579	-96.4
3663.338	-91.4
3666.095	-99.4
3668.849	-99.4
3671.602	-94.4
3674.352	-97.4
3677.101	-101.4
3679.847	-97.4
3682.591	-111.4
3685.333	-104.4
3688.073	-98.4
3690.811	-105.4
3693.547	-106.4
3696.281	-108.4
3699.013	-108.4
3701.742	-108.4
3704.47	-112.4
3707.195	-109.4
3709.919	-109.4
3712.64	-104.4
3715.359	-111.4
3718.076	-104.4
3720.792	-115.4
3723.505	-119.4
3726.216	-114.4
3728.925	-114.4
3731.632	-113.4
3734.336	-119.4
3737.039	-114.4
3739.74	-121.4
3742.439	-122.4
3745.136	-112.4
3747.83	-121.4
3750.523	-116.4
3753.213	-136.4
3755.902	-117.4
3758.589	-121.4
3761.273	-115.4
3763.956	-114.4
3766.636	-118.4
3769.315	-117.4
3771.991	-113.4
3774.665	-124.4
3777.338	-115.4
3780.008	-118.4
3782.677	-118.4
3785.343	-116.4
3788.007	-121.4
3790.67	-121.4
3793.33	-118.4
3795.989	-123.4
3798.645	-116.4
3801.299	-120.4
3803.952	-128.4
3806.602	-116.4
3809.251	-128.4
3811.897	-127.4
3814.542	-123.4
3817.184	-117.4
3819.825	-123.4
3822.463	-123.4
3825.1	-121.4
3827.735	-117.4
3830.367	-118.4
3832.998	-128.4
3835.627	-125.4
3838.253	-125.4
3840.878	-127.4
3843.501	-119.4
3846.122	-120.4
3848.741	-124.4
3851.358	-120.4
3853.973	-127.4
3856.586	-127.4
3859.197	-125.4
3861.806	-120.4
3864.414	-126.4
3867.019	-119.4
3869.622	-119.4
3872.224	-113.4
3874.823	-106.4
3877.421	-92.4
3880.016	-70.4
3882.61	-48.4
3885.202	-51.4
3887.792	-61.4
3890.38	-91.4
3892.966	-111.4
3895.55	-118.4
3898.132	-119.4
3900.713	-125.4
3903.291	-123.4
3905.868	-123.4
3908.442	-121.4
3911.015	-130.4
3913.586	-125.4
3916.155	-131.4
3918.722	-121.4
3921.287	-124.4
3923.85	-127.4
3926.411	-124.4
3928.971	-127.4
3931.528	-129.4
3934.084	-126.4
3936.638	-121.4
3939.19	-124.4
3941.74	-127.4
3944.288	-129.4
3946.834	-123.4
3949.378	-125.4
3951.921	-125.4
3954.462	-133.4
3957	-129.4
3959.537	-123.4
3962.072	-128.4
3964.606	-121.4
3967.137	-120.4
3969.667	-126.4
3972.194	-126.4
3974.72	-129.4
3977.244	-132.4
3979.766	-128.4
3982.286	-121.4
3984.805	-126.4
3987.321	-120.4
3989.836	-120.4
3992.349	-126.4
3994.86	-129.4
3997.369	-127.4
3999.877	-128.4
4002.382	-118.4
4004.886	-125.4
4007.388	-123.4
4009.888	-119.4
4012.386	-123.4
4014.883	-125.4
4017.377	-130.4
4019.87	-122.4
4022.361	-121.4
4024.85	-127.4
4027.338	-122.4
4029.823	-123.4
4032.307	-123.4
4034.789	-126.4
4037.269	-126.4
4039.747	-123.4
4042.224	-119.4
4044.699	-124.4
4047.172	-118.4
4049.643	-117.4
4052.112	-129.4
4054.58	-127.4
4057.046	-121.4
4059.51	-130.4
4061.972	-124.4
4064.432	-123.4
4066.891	-125.4
4069.348	-118.4
4071.803	-124.4
4074.256	-121.4
4076.708	-122.4
4079.158	-122.4
4081.606	-115.4
4084.052	-127.4
4086.497	-122.4
4088.939	-114.4
4091.38	-120.4
4093.819	-120.4
4096.257	-132.4
4098.693	-127.4
4101.127	-131.4
4103.559	-126.4
4105.989	4.6
4108.418	-1.4
4110.845	-2.4
4113.27	-4.4
4115.694	-12.4
4118.115	-9.4
4120.535	-126.4
4122.954	-126.4
4125.37	-126.4
4127.785	-125.4
4130.198	-127.4
4132.609	-125.4
4135.019	-130.4
4137.427	-129.4
4139.833	-130.4
4142.237	-130.4
