Data from 2018-2-8_conc=4_n=5_RamanShift_01.txt Node
Date: Mon Mar 12 15:18:58 IST 2018
User: aro
Spectrometer: QEPB0276
Trigger mode: 0
Integration Time (sec): 3.000000E1
Scans to average: 1
Electric dark correction enabled: true
Nonlinearity correction enabled: false
Boxcar width: 0
XAxis mode: Raman Shifts
Number of Pixels in Spectrum: 1044
>>>>>Begin Spectral Data<<<<<
160.701	19.2
166.742	45.2
172.777	120.2
178.805	358.2
184.826	942.2
190.841	2015.2
196.849	3307.2
202.85	4348.2
208.845	4736.2
214.833	4724.2
220.815	4650.2
226.789	4652.2
232.758	4644.2
238.719	4622.2
244.674	4595.2
250.623	4523.2
256.565	4490.2
262.5	4410.2
268.429	4354.2
274.351	4312.2
280.267	4283.2
286.176	4263.2
292.079	4227.2
297.975	4236.2
303.865	4213.2
309.748	4214.2
315.625	4190.2
321.495	4194.2
327.359	4205.2
333.217	4182.2
339.068	4204.2
344.912	4188.2
350.751	4199.2
356.583	4237.2
362.408	4209.2
368.227	4234.2
374.04	4268.2
379.847	4288.2
385.647	4303.2
391.44	4290.2
397.228	4314.2
403.009	4376.2
408.784	4384.2
414.553	4357.2
420.315	4413.2
426.071	4433.2
431.821	4407.2
437.565	4399.2
443.302	4381.2
449.033	4351.2
454.758	4361.2
460.477	4342.2
466.189	4335.2
471.896	4283.2
477.596	4251.2
483.29	4234.2
488.978	4232.2
494.66	4220.2
500.335	4123.2
506.005	4024.2
511.668	3878.2
517.325	3730.2
522.977	3653.2
528.622	3554.2
534.261	3513.2
539.894	3431.2
545.521	3456.2
551.141	3401.2
556.756	3370.2
562.365	3332.2
567.968	3320.2
573.565	3278.2
579.155	3293.2
584.74	3254.2
590.319	3255.2
595.892	3241.2
601.459	3214.2
607.02	3219.2
612.575	3202.2
618.124	3198.2
623.667	3138.2
629.204	3126.2
634.735	3078.2
640.261	3074.2
645.781	3039.2
651.294	3038.2
656.802	3035.2
662.304	3007.2
667.8	3007.2
673.29	2991.2
678.775	2987.2
684.254	2974.2
689.726	2981.2
695.193	2976.2
700.655	2945.2
706.11	2908.2
711.56	2922.2
717.004	2878.2
722.442	2888.2
727.874	2870.2
733.301	2856.2
738.722	2841.2
744.137	2842.2
749.547	2826.2
754.951	2853.2
760.349	2831.2
765.741	2846.2
771.128	2851.2
776.509	2880.2
781.885	2904.2
787.254	2894.2
792.618	2923.2
797.977	2904.2
803.33	2865.2
808.677	2847.2
814.019	2822.2
819.355	2807.2
824.686	2818.2
830.011	2776.2
835.33	2801.2
840.644	2747.2
845.952	2766.2
851.255	2738.2
856.552	2738.2
861.844	2714.2
867.13	2683.2
872.41	2690.2
877.686	2678.2
882.955	2648.2
888.219	2622.2
893.478	2594.2
898.731	2543.2
903.979	2519.2
909.221	2495.2
914.458	2474.2
919.69	2487.2
924.916	2480.2
930.136	2517.2
935.351	2473.2
940.561	2489.2
945.766	2477.2
950.965	2461.2
956.158	2431.2
961.347	2427.2
966.529	2392.2
971.707	2376.2
976.879	2310.2
982.046	2314.2
987.208	2299.2
992.364	2301.2
997.515	2319.2
1002.66	2350.2
1007.801	2351.2
1012.936	2373.2
1018.066	2374.2
1023.19	2370.2
1028.309	2367.2
1033.423	2378.2
1038.532	2365.2
1043.636	2345.2
1048.734	2316.2
1053.827	2309.2
1058.915	2287.2
1063.998	2264.2
1069.075	2260.2
1074.147	2246.2
1079.214	2265.2
1084.276	2280.2
1089.333	2277.2
1094.385	2295.2
1099.431	2295.2
1104.472	2266.2
1109.509	2240.2
1114.54	2226.2
1119.565	2217.2
1124.586	2169.2
1129.602	2163.2
1134.613	2125.2
1139.618	2120.2
1144.619	2110.2
1149.614	2109.2
1154.604	2104.2
1159.589	2123.2
1164.57	2129.2
1169.545	2132.2
1174.515	2153.2
1179.48	2107.2
1184.44	2098.2
1189.395	2083.2
1194.345	2070.2
1199.29	2060.2
1204.23	2063.2
1209.165	2052.2
1214.095	2085.2
1219.021	2075.2
1223.941	2098.2
1228.856	2092.2
1233.766	2114.2
1238.672	2137.2
1243.572	2112.2
1248.467	2097.2
1253.358	2072.2
1258.244	2028.2
1263.124	2010.2
1268	1958.2
1272.871	1974.2
1277.737	1917.2
1282.599	1924.2
1287.455	1925.2
1292.306	1932.2
1297.153	1927.2
1301.995	1949.2
1306.832	1959.2
1311.664	1958.2
1316.491	1967.2
1321.314	1963.2
1326.132	1964.2
1330.945	1929.2
1335.753	1907.2
1340.556	1899.2
1345.354	1846.2
1350.148	1823.2
1354.937	1829.2
1359.722	1775.2
1364.501	1772.2
1369.276	1734.2
1374.046	1712.2
1378.811	1674.2
1383.572	1664.2
1388.327	1658.2
1393.079	1645.2
1397.825	1660.2
1402.567	1648.2
1407.304	1664.2
1412.036	1664.2
1416.764	1663.2
1421.487	1664.2
1426.205	1668.2
1430.919	1674.2
1435.628	1686.2
1440.333	1690.2
1445.032	1680.2
1449.727	1731.2
1454.418	1733.2
1459.104	1715.2
1463.785	1694.2
1468.462	1681.2
1473.134	1660.2
1477.802	1607.2
1482.465	1590.2
1487.123	1552.2
1491.777	1541.2
1496.426	1532.2
1501.071	1521.2
1505.711	1522.2
1510.347	1508.2
1514.978	1495.2
1519.604	1502.2
1524.226	1516.2
1528.844	1474.2
1533.457	1469.2
1538.065	1469.2
1542.669	1472.2
1547.269	1478.2
1551.864	1481.2
1556.454	1491.2
1561.041	1495.2
1565.622	1503.2
1570.199	1509.2
1574.772	1520.2
1579.34	1539.2
1583.904	1565.2
1588.464	1559.2
1593.019	1579.2
1597.569	1583.2
1602.115	1567.2
1606.657	1578.2
1611.195	1551.2
1615.728	1560.2
1620.256	1562.2
1624.78	1565.2
1629.3	1556.2
1633.816	1562.2
1638.327	1589.2
1642.834	1572.2
1647.336	1596.2
1651.834	1594.2
1656.328	1601.2
1660.817	1589.2
1665.302	1567.2
1669.783	1552.2
1674.259	1505.2
1678.732	1489.2
1683.199	1447.2
1687.663	1396.2
1692.122	1357.2
1696.577	1311.2
1701.028	1252.2
1705.474	1205.2
1709.917	1174.2
1714.355	1137.2
1718.788	1126.2
1723.218	1133.2
1727.643	1131.2
1732.064	1133.2
1736.481	1108.2
1740.893	1099.2
1745.301	1063.2
1749.705	1041.2
1754.105	1035.2
1758.501	1019.2
1762.893	997.2
1767.28	983.2
1771.663	975.2
1776.042	964.2
1780.417	961.2
1784.787	957.2
1789.154	951.2
1793.516	944.2
1797.874	918.2
1802.228	919.2
1806.578	907.2
1810.924	900.2
1815.266	884.2
1819.603	890.2
1823.937	879.2
1828.266	873.2
1832.591	871.2
1836.913	875.2
1841.23	881.2
1845.543	871.2
1849.852	869.2
1854.156	870.2
1858.457	882.2
1862.754	867.2
1867.047	868.2
1871.335	878.2
1875.62	874.2
1879.9	872.2
1884.177	859.2
1888.449	856.2
1892.718	852.2
1896.982	841.2
1901.243	820.2
1905.499	826.2
1909.752	810.2
1914	789.2
1918.245	792.2
1922.485	771.2
1926.722	781.2
1930.954	779.2
1935.183	775.2
1939.408	759.2
1943.628	769.2
1947.845	756.2
1952.058	758.2
1956.267	751.2
1960.472	748.2
1964.673	722.2
1968.87	724.2
1973.063	721.2
1977.252	709.2
1981.438	710.2
1985.619	731.2
1989.797	708.2
1993.971	717.2
1998.14	715.2
2002.306	708.2
2006.469	720.2
2010.627	716.2
2014.781	724.2
2018.932	711.2
2023.078	716.2
2027.221	713.2
2031.36	702.2
2035.495	696.2
2039.627	681.2
2043.754	662.2
2047.878	667.2
2051.998	669.2
2056.114	661.2
2060.226	671.2
2064.334	668.2
2068.439	644.2
2072.54	658.2
2076.637	658.2
2080.73	654.2
2084.82	640.2
2088.906	642.2
2092.988	632.2
2097.066	619.2
2101.14	622.2
2105.211	621.2
2109.278	612.2
2113.342	599.2
2117.401	598.2
2121.457	599.2
2125.509	575.2
2129.558	580.2
2133.602	587.2
2137.643	580.2
2141.681	580.2
2145.714	576.2
2149.744	567.2
2153.77	577.2
2157.793	579.2
2161.812	569.2
2165.827	560.2
2169.838	557.2
2173.846	535.2
2177.851	538.2
2181.851	525.2
2185.848	525.2
2189.841	526.2
2193.831	513.2
2197.817	518.2
2201.799	505.2
2205.778	501.2
2209.753	499.2
2213.725	496.2
2217.693	502.2
2221.657	506.2
2225.618	496.2
2229.575	505.2
2233.529	493.2
2237.479	489.2
2241.425	479.2
2245.368	476.2
2249.307	465.2
2253.243	448.2
2257.175	448.2
2261.104	447.2
2265.029	443.2
2268.95	438.2
2272.868	429.2
2276.783	421.2
2280.694	420.2
2284.601	416.2
2288.505	411.2
2292.405	407.2
2296.302	409.2
2300.195	399.2
2304.085	388.2
2307.971	378.2
2311.854	375.2
2315.734	370.2
2319.609	361.2
2323.482	360.2
2327.351	357.2
2331.216	367.2
2335.078	385.2
2338.937	363.2
2342.792	351.2
2346.643	349.2
2350.492	341.2
2354.336	342.2
2358.178	346.2
2362.015	342.2
2365.85	349.2
2369.681	343.2
2373.508	353.2
2377.333	354.2
2381.153	334.2
2384.971	348.2
2388.785	342.2
2392.595	335.2
2396.402	336.2
2400.206	331.2
2404.007	337.2
2407.804	324.2
2411.597	328.2
2415.388	312.2
2419.174	326.2
2422.958	316.2
2426.738	324.2
2430.515	324.2
2434.289	323.2
2438.059	313.2
2441.825	312.2
2445.589	309.2
2449.349	300.2
2453.106	297.2
2456.859	297.2
2460.61	292.2
2464.356	286.2
2468.1	290.2
2471.84	282.2
2475.577	284.2
2479.311	279.2
2483.041	268.2
2486.768	270.2
2490.492	268.2
2494.213	277.2
2497.93	273.2
2501.644	276.2
2505.355	256.2
2509.062	253.2
2512.766	255.2
2516.467	251.2
2520.165	255.2
2523.859	247.2
2527.551	241.2
2531.239	237.2
2534.923	230.2
2538.605	236.2
2542.283	227.2
2545.958	224.2
2549.63	224.2
2553.299	226.2
2556.964	228.2
2560.626	222.2
2564.285	214.2
2567.941	208.2
2571.594	211.2
2575.243	207.2
2578.89	202.2
2582.533	206.2
2586.173	205.2
2589.809	193.2
2593.443	191.2
2597.073	193.2
2600.701	190.2
2604.325	188.2
2607.946	187.2
2611.564	177.2
2615.178	188.2
2618.79	185.2
2622.398	187.2
2626.004	178.2
2629.606	178.2
2633.205	166.2
2636.801	169.2
2640.394	172.2
2643.983	172.2
2647.57	180.2
2651.153	172.2
2654.734	168.2
2658.311	159.2
2661.885	164.2
2665.456	160.2
2669.025	156.2
2672.589	154.2
2676.151	158.2
2679.71	157.2
2683.266	150.2
2686.819	157.2
2690.368	146.2
2693.915	139.2
2697.458	139.2
2700.999	141.2
2704.536	139.2
2708.071	132.2
2711.602	128.2
2715.13	136.2
2718.656	124.2
2722.178	120.2
2725.697	114.2
2729.214	121.2
2732.727	124.2
2736.237	123.2
2739.744	124.2
2743.249	119.2
2746.75	119.2
2750.248	111.2
2753.743	108.2
2757.236	101.2
2760.725	101.2
2764.211	97.2
2767.695	98.2
2771.175	96.2
2774.652	91.2
2778.127	93.2
2781.598	93.2
2785.067	99.2
2788.532	97.2
2791.995	105.2
2795.455	102.2
2798.911	94.2
2802.365	99.2
2805.816	101.2
2809.264	94.2
2812.709	107.2
2816.151	105.2
2819.59	109.2
2823.026	101.2
2826.46	96.2
2829.89	102.2
2833.318	95.2
2836.742	103.2
2840.164	103.2
2843.583	96.2
2846.999	105.2
2850.412	106.2
2853.822	104.2
2857.229	101.2
2860.634	108.2
2864.035	114.2
2867.434	124.2
2870.83	128.2
2874.223	133.2
2877.613	143.2
2881	146.2
2884.385	142.2
2887.766	132.2
2891.145	122.2
2894.521	133.2
2897.894	145.2
2901.264	148.2
2904.631	143.2
2907.996	147.2
2911.358	155.2
2914.717	153.2
2918.073	159.2
2921.426	159.2
2924.777	167.2
2928.124	167.2
2931.469	162.2
2934.811	180.2
2938.15	179.2
2941.487	185.2
2944.821	181.2
2948.152	179.2
2951.48	183.2
2954.805	184.2
2958.128	183.2
2961.447	174.2
2964.765	181.2
2968.079	180.2
2971.39	181.2
2974.699	188.2
2978.005	182.2
2981.308	177.2
2984.609	180.2
2987.907	184.2
2991.202	196.2
2994.494	197.2
2997.784	187.2
3001.07	204.2
3004.355	208.2
3007.636	208.2
3010.915	212.2
3014.191	210.2
3017.464	217.2
3020.734	213.2
3024.002	215.2
3027.267	223.2
3030.53	224.2
3033.789	234.2
3037.046	238.2
3040.301	239.2
3043.552	254.2
3046.801	263.2
3050.048	261.2
3053.291	269.2
3056.532	280.2
3059.771	300.2
3063.006	296.2
3066.239	326.2
3069.469	323.2
3072.697	325.2
3075.922	338.2
3079.144	349.2
3082.364	358.2
3085.581	374.2
3088.795	372.2
3092.007	380.2
3095.216	380.2
3098.423	401.2
3101.627	403.2
3104.828	426.2
3108.026	416.2
3111.222	433.2
3114.416	448.2
3117.607	459.2
3120.795	460.2
3123.98	466.2
3127.163	478.2
3130.344	499.2
3133.521	504.2
3136.696	523.2
3139.869	521.2
3143.039	548.2
3146.206	541.2
3149.371	545.2
3152.533	566.2
3155.693	563.2
3158.85	583.2
3162.005	571.2
3165.157	571.2
3168.306	573.2
3171.453	586.2
3174.597	593.2
3177.739	583.2
3180.878	588.2
3184.014	600.2
3187.149	594.2
3190.28	593.2
3193.409	599.2
3196.536	593.2
3199.659	598.2
3202.781	610.2
3205.9	608.2
3209.016	603.2
3212.13	614.2
3215.241	598.2
3218.35	592.2
3221.456	588.2
3224.56	584.2
3227.661	580.2
3230.76	569.2
3233.856	569.2
3236.95	549.2
3240.041	548.2
3243.13	540.2
3246.216	538.2
3249.3	523.2
3252.382	518.2
3255.46	522.2
3258.537	505.2
3261.611	516.2
3264.682	491.2
3267.751	495.2
3270.818	492.2
3273.882	496.2
3276.943	486.2
3280.002	488.2
3283.059	485.2
3286.113	480.2
3289.165	466.2
3292.214	477.2
3295.261	462.2
3298.306	458.2
3301.348	450.2
3304.387	443.2
3307.425	438.2
3310.459	432.2
3313.492	425.2
3316.521	432.2
3319.549	422.2
3322.574	423.2
3325.597	422.2
3328.617	415.2
3331.635	424.2
3334.65	416.2
3337.663	395.2
3340.674	414.2
3343.682	416.2
3346.688	403.2
3349.691	402.2
3352.692	394.2
3355.691	390.2
3358.687	391.2
3361.681	394.2
3364.673	397.2
3367.662	378.2
3370.649	378.2
3373.633	370.2
3376.615	355.2
3379.595	355.2
3382.572	348.2
3385.547	355.2
3388.52	340.2
3391.49	338.2
3394.458	336.2
3397.424	318.2
3400.387	318.2
3403.348	313.2
3406.307	306.2
3409.263	313.2
3412.217	301.2
3415.168	299.2
3418.118	305.2
3421.065	285.2
3424.009	281.2
3426.951	290.2
3429.891	279.2
3432.829	275.2
3435.764	262.2
3438.697	253.2
3441.628	251.2
3444.557	244.2
3447.483	228.2
3450.407	217.2
3453.328	209.2
3456.247	201.2
3459.164	191.2
3462.079	185.2
3464.991	173.2
3467.902	165.2
3470.809	173.2
3473.715	157.2
3476.618	149.2
3479.519	147.2
3482.418	141.2
3485.315	123.2
3488.209	126.2
3491.101	120.2
3493.99	111.2
3496.878	105.2
3499.763	108.2
3502.646	92.2
3505.527	77.2
3508.405	87.2
3511.281	81.2
3514.155	68.2
3517.027	66.2
3519.897	56.2
3522.764	52.2
3525.629	42.2
3528.492	38.2
3531.352	28.2
3534.211	25.2
3537.067	27.2
3539.921	23.2
3542.773	16.2
3545.622	7.2
3548.469	4.2
3551.315	6.2
3554.157	-9.8
3556.998	-18.8
3559.837	-11.8
3562.673	-9.8
3565.507	-13.8
3568.339	-25.8
3571.169	-35.8
3573.996	-31.8
3576.822	-35.8
3579.645	-35.8
3582.466	-28.8
3585.285	-42.8
3588.101	-31.8
3590.916	-45.8
3593.728	-59.8
3596.538	-60.8
3599.346	-58.8
3602.152	-54.8
3604.956	-55.8
3607.757	-55.8
3610.556	-63.8
3613.354	-60.8
3616.149	-73.8
3618.942	-75.8
3621.732	-76.8
3624.521	-73.8
3627.307	-72.8
3630.092	-71.8
3632.874	-68.8
3635.654	-83.8
3638.432	-80.8
3641.208	-83.8
3643.982	-85.8
3646.753	-93.8
3649.523	-87.8
3652.29	-89.8
3655.055	-88.8
3657.818	-94.8
3660.579	-93.8
3663.338	-95.8
3666.095	-97.8
3668.849	-94.8
3671.602	-100.8
3674.352	-97.8
3677.101	-102.8
3679.847	-96.8
3682.591	-107.8
3685.333	-109.8
3688.073	-107.8
3690.811	-106.8
3693.547	-110.8
3696.281	-110.8
3699.013	-108.8
3701.742	-110.8
3704.47	-116.8
3707.195	-108.8
3709.919	-112.8
3712.64	-116.8
3715.359	-117.8
3718.076	-110.8
3720.792	-117.8
3723.505	-119.8
3726.216	-112.8
3728.925	-121.8
3731.632	-118.8
3734.336	-125.8
3737.039	-121.8
3739.74	-119.8
3742.439	-127.8
3745.136	-114.8
3747.83	-123.8
3750.523	-122.8
3753.213	-129.8
3755.902	-121.8
3758.589	-128.8
3761.273	-122.8
3763.956	-118.8
3766.636	-122.8
3769.315	-113.8
3771.991	-116.8
3774.665	-127.8
3777.338	-120.8
3780.008	-120.8
3782.677	-122.8
3785.343	-119.8
3788.007	-124.8
3790.67	-127.8
3793.33	-122.8
3795.989	-123.8
3798.645	-121.8
3801.299	-125.8
3803.952	-131.8
3806.602	-114.8
3809.251	-129.8
3811.897	-132.8
3814.542	-124.8
3817.184	-114.8
3819.825	-127.8
3822.463	-127.8
3825.1	-130.8
3827.735	-125.8
3830.367	-125.8
3832.998	-131.8
3835.627	-134.8
3838.253	-123.8
3840.878	-129.8
3843.501	-120.8
3846.122	-127.8
3848.741	-128.8
3851.358	-121.8
3853.973	-130.8
3856.586	-121.8
3859.197	-131.8
3861.806	-119.8
3864.414	-134.8
3867.019	-126.8
3869.622	-122.8
3872.224	-110.8
3874.823	-105.8
3877.421	-88.8
3880.016	-62.8
3882.61	-43.8
3885.202	-40.8
3887.792	-63.8
3890.38	-87.8
3892.966	-111.8
3895.55	-113.8
3898.132	-119.8
3900.713	-122.8
3903.291	-128.8
3905.868	-126.8
3908.442	-122.8
3911.015	-134.8
3913.586	-133.8
3916.155	-127.8
3918.722	-129.8
3921.287	-126.8
3923.85	-129.8
3926.411	-131.8
3928.971	-127.8
3931.528	-132.8
3934.084	-129.8
3936.638	-129.8
3939.19	-128.8
3941.74	-129.8
3944.288	-125.8
3946.834	-124.8
3949.378	-130.8
3951.921	-129.8
3954.462	-134.8
3957	-130.8
3959.537	-121.8
3962.072	-129.8
3964.606	-120.8
3967.137	-124.8
3969.667	-127.8
3972.194	-128.8
3974.72	-130.8
3977.244	-129.8
3979.766	-129.8
3982.286	-126.8
3984.805	-127.8
3987.321	-124.8
3989.836	-120.8
3992.349	-127.8
3994.86	-128.8
3997.369	-129.8
3999.877	-128.8
4002.382	-125.8
4004.886	-127.8
4007.388	-125.8
4009.888	-126.8
4012.386	-128.8
4014.883	-132.8
4017.377	-131.8
4019.87	-120.8
4022.361	-129.8
4024.85	-128.8
4027.338	-125.8
4029.823	-124.8
4032.307	-125.8
4034.789	-131.8
4037.269	-132.8
4039.747	-126.8
4042.224	-123.8
4044.699	-128.8
4047.172	-125.8
4049.643	-122.8
4052.112	-126.8
4054.58	-128.8
4057.046	-130.8
4059.51	-131.8
4061.972	-123.8
4064.432	-126.8
4066.891	-123.8
4069.348	-126.8
4071.803	-130.8
4074.256	-126.8
4076.708	-129.8
4079.158	-127.8
4081.606	-123.8
4084.052	-126.8
4086.497	-123.8
4088.939	-116.8
4091.38	-124.8
4093.819	-129.8
4096.257	-137.8
4098.693	-130.8
4101.127	-130.8
4103.559	-127.8
4105.989	20.2
4108.418	21.2
4110.845	15.2
4113.27	10.2
4115.694	7.2
4118.115	2.2
4120.535	-132.8
4122.954	-136.8
4125.37	-126.8
4127.785	-130.8
4130.198	-128.8
4132.609	-121.8
4135.019	-135.8
4137.427	-137.8
4139.833	-135.8
4142.237	-133.8
