Data from 2018-2-8_conc=4_n=9_RamanShift_02.txt Node
Date: Mon Mar 12 15:36:58 IST 2018
User: aro
Spectrometer: QEPB0276
Trigger mode: 0
Integration Time (sec): 3.000000E1
Scans to average: 1
Electric dark correction enabled: true
Nonlinearity correction enabled: false
Boxcar width: 0
XAxis mode: Raman Shifts
Number of Pixels in Spectrum: 1044
>>>>>Begin Spectral Data<<<<<
160.701	12.6
166.742	55.6
172.777	153.6
178.805	446.6
184.826	1187.6
190.841	2568.6
196.849	4271.6
202.85	5644.6
208.845	6161.6
214.833	6140.6
220.815	6069.6
226.789	6030.6
232.758	6035.6
238.719	6013.6
244.674	6008.6
250.623	5908.6
256.565	5833.6
262.5	5763.6
268.429	5682.6
274.351	5641.6
280.267	5602.6
286.176	5533.6
292.079	5549.6
297.975	5513.6
303.865	5483.6
309.748	5444.6
315.625	5435.6
321.495	5427.6
327.359	5433.6
333.217	5430.6
339.068	5439.6
344.912	5442.6
350.751	5430.6
356.583	5441.6
362.408	5449.6
368.227	5494.6
374.04	5469.6
379.847	5486.6
385.647	5495.6
391.44	5555.6
397.228	5578.6
403.009	5600.6
408.784	5609.6
414.553	5675.6
420.315	5719.6
426.071	5670.6
431.821	5650.6
437.565	5647.6
443.302	5635.6
449.033	5608.6
454.758	5588.6
460.477	5594.6
466.189	5561.6
471.896	5525.6
477.596	5496.6
483.29	5435.6
488.978	5475.6
494.66	5445.6
500.335	5403.6
506.005	5239.6
511.668	5127.6
517.325	4924.6
522.977	4844.6
528.622	4744.6
534.261	4680.6
539.894	4606.6
545.521	4601.6
551.141	4550.6
556.756	4542.6
562.365	4506.6
567.968	4471.6
573.565	4443.6
579.155	4428.6
584.74	4420.6
590.319	4386.6
595.892	4404.6
601.459	4348.6
607.02	4351.6
612.575	4341.6
618.124	4301.6
623.667	4266.6
629.204	4201.6
634.735	4170.6
640.261	4171.6
645.781	4141.6
651.294	4124.6
656.802	4103.6
662.304	4095.6
667.8	4097.6
673.29	4089.6
678.775	4095.6
684.254	4032.6
689.726	4069.6
695.193	4043.6
700.655	4038.6
706.11	3988.6
711.56	3955.6
717.004	3934.6
722.442	3903.6
727.874	3923.6
733.301	3910.6
738.722	3864.6
744.137	3889.6
749.547	3865.6
754.951	3867.6
760.349	3852.6
765.741	3854.6
771.128	3863.6
776.509	3878.6
781.885	3933.6
787.254	3907.6
792.618	3942.6
797.977	3922.6
803.33	3895.6
808.677	3857.6
814.019	3849.6
819.355	3790.6
824.686	3780.6
830.011	3769.6
835.33	3762.6
840.644	3764.6
845.952	3726.6
851.255	3713.6
856.552	3718.6
861.844	3670.6
867.13	3685.6
872.41	3678.6
877.686	3652.6
882.955	3605.6
888.219	3586.6
893.478	3542.6
898.731	3486.6
903.979	3429.6
909.221	3414.6
914.458	3395.6
919.69	3385.6
924.916	3392.6
930.136	3419.6
935.351	3394.6
940.561	3444.6
945.766	3389.6
950.965	3384.6
956.158	3348.6
961.347	3352.6
966.529	3274.6
971.707	3265.6
976.879	3224.6
982.046	3183.6
987.208	3150.6
992.364	3158.6
997.515	3169.6
1002.66	3219.6
1007.801	3246.6
1012.936	3242.6
1018.066	3267.6
1023.19	3266.6
1028.309	3270.6
1033.423	3263.6
1038.532	3217.6
1043.636	3216.6
1048.734	3179.6
1053.827	3137.6
1058.915	3113.6
1063.998	3104.6
1069.075	3075.6
1074.147	3081.6
1079.214	3088.6
1084.276	3107.6
1089.333	3108.6
1094.385	3116.6
1099.431	3110.6
1104.472	3119.6
1109.509	3085.6
1114.54	3044.6
1119.565	2990.6
1124.586	2969.6
1129.602	2939.6
1134.613	2921.6
1139.618	2864.6
1144.619	2905.6
1149.614	2886.6
1154.604	2921.6
1159.589	2918.6
1164.57	2885.6
1169.545	2927.6
1174.515	2919.6
1179.48	2919.6
1184.44	2876.6
1189.395	2843.6
1194.345	2856.6
1199.29	2798.6
1204.23	2810.6
1209.165	2833.6
1214.095	2853.6
1219.021	2857.6
1223.941	2870.6
1228.856	2876.6
1233.766	2893.6
1238.672	2907.6
1243.572	2886.6
1248.467	2889.6
1253.358	2849.6
1258.244	2765.6
1263.124	2746.6
1268	2681.6
1272.871	2688.6
1277.737	2648.6
1282.599	2642.6
1287.455	2628.6
1292.306	2646.6
1297.153	2651.6
1301.995	2648.6
1306.832	2666.6
1311.664	2718.6
1316.491	2690.6
1321.314	2697.6
1326.132	2689.6
1330.945	2670.6
1335.753	2632.6
1340.556	2567.6
1345.354	2515.6
1350.148	2500.6
1354.937	2455.6
1359.722	2399.6
1364.501	2403.6
1369.276	2366.6
1374.046	2316.6
1378.811	2267.6
1383.572	2274.6
1388.327	2262.6
1393.079	2257.6
1397.825	2259.6
1402.567	2262.6
1407.304	2265.6
1412.036	2274.6
1416.764	2265.6
1421.487	2279.6
1426.205	2280.6
1430.919	2287.6
1435.628	2279.6
1440.333	2308.6
1445.032	2355.6
1449.727	2340.6
1454.418	2369.6
1459.104	2357.6
1463.785	2340.6
1468.462	2288.6
1473.134	2244.6
1477.802	2197.6
1482.465	2165.6
1487.123	2112.6
1491.777	2087.6
1496.426	2078.6
1501.071	2045.6
1505.711	2031.6
1510.347	2042.6
1514.978	2056.6
1519.604	2047.6
1524.226	2015.6
1528.844	1999.6
1533.457	2014.6
1538.065	2008.6
1542.669	1984.6
1547.269	1985.6
1551.864	1983.6
1556.454	2000.6
1561.041	2011.6
1565.622	2045.6
1570.199	2048.6
1574.772	2063.6
1579.34	2097.6
1583.904	2117.6
1588.464	2131.6
1593.019	2110.6
1597.569	2118.6
1602.115	2122.6
1606.657	2114.6
1611.195	2108.6
1615.728	2108.6
1620.256	2098.6
1624.78	2122.6
1629.3	2127.6
1633.816	2137.6
1638.327	2131.6
1642.834	2134.6
1647.336	2147.6
1651.834	2153.6
1656.328	2167.6
1660.817	2139.6
1665.302	2120.6
1669.783	2092.6
1674.259	2057.6
1678.732	2001.6
1683.199	1948.6
1687.663	1882.6
1692.122	1800.6
1696.577	1748.6
1701.028	1683.6
1705.474	1614.6
1709.917	1558.6
1714.355	1531.6
1718.788	1518.6
1723.218	1532.6
1727.643	1528.6
1732.064	1502.6
1736.481	1495.6
1740.893	1450.6
1745.301	1441.6
1749.705	1415.6
1754.105	1378.6
1758.501	1362.6
1762.893	1338.6
1767.28	1341.6
1771.663	1322.6
1776.042	1295.6
1780.417	1280.6
1784.787	1279.6
1789.154	1261.6
1793.516	1256.6
1797.874	1219.6
1802.228	1203.6
1806.578	1202.6
1810.924	1188.6
1815.266	1185.6
1819.603	1176.6
1823.937	1177.6
1828.266	1182.6
1832.591	1184.6
1836.913	1171.6
1841.23	1190.6
1845.543	1175.6
1849.852	1178.6
1854.156	1174.6
1858.457	1178.6
1862.754	1187.6
1867.047	1176.6
1871.335	1178.6
1875.62	1178.6
1879.9	1174.6
1884.177	1155.6
1888.449	1138.6
1892.718	1146.6
1896.982	1137.6
1901.243	1107.6
1905.499	1096.6
1909.752	1073.6
1914	1047.6
1918.245	1055.6
1922.485	1043.6
1926.722	1041.6
1930.954	1032.6
1935.183	1024.6
1939.408	1004.6
1943.628	1020.6
1947.845	1002.6
1952.058	1003.6
1956.267	978.6
1960.472	982.6
1964.673	985.6
1968.87	963.6
1973.063	954.6
1977.252	945.6
1981.438	943.6
1985.619	945.6
1989.797	945.6
1993.971	948.6
1998.14	955.6
2002.306	933.6
2006.469	968.6
2010.627	961.6
2014.781	968.6
2018.932	948.6
2023.078	967.6
2027.221	948.6
2031.36	944.6
2035.495	939.6
2039.627	915.6
2043.754	901.6
2047.878	908.6
2051.998	889.6
2056.114	877.6
2060.226	881.6
2064.334	888.6
2068.439	881.6
2072.54	866.6
2076.637	872.6
2080.73	855.6
2084.82	856.6
2088.906	845.6
2092.988	847.6
2097.066	827.6
2101.14	826.6
2105.211	819.6
2109.278	796.6
2113.342	801.6
2117.401	791.6
2121.457	782.6
2125.509	784.6
2129.558	783.6
2133.602	778.6
2137.643	789.6
2141.681	777.6
2145.714	768.6
2149.744	771.6
2153.77	771.6
2157.793	754.6
2161.812	771.6
2165.827	763.6
2169.838	760.6
2173.846	735.6
2177.851	730.6
2181.851	704.6
2185.848	702.6
2189.841	700.6
2193.831	696.6
2197.817	682.6
2201.799	695.6
2205.778	674.6
2209.753	671.6
2213.725	684.6
2217.693	668.6
2221.657	678.6
2225.618	677.6
2229.575	676.6
2233.529	667.6
2237.479	663.6
2241.425	658.6
2245.368	642.6
2249.307	623.6
2253.243	633.6
2257.175	614.6
2261.104	603.6
2265.029	582.6
2268.95	593.6
2272.868	585.6
2276.783	579.6
2280.694	569.6
2284.601	571.6
2288.505	557.6
2292.405	555.6
2296.302	547.6
2300.195	528.6
2304.085	539.6
2307.971	518.6
2311.854	523.6
2315.734	513.6
2319.609	492.6
2323.482	491.6
2327.351	490.6
2331.216	506.6
2335.078	525.6
2338.937	494.6
2342.792	474.6
2346.643	471.6
2350.492	466.6
2354.336	472.6
2358.178	480.6
2362.015	490.6
2365.85	481.6
2369.681	491.6
2373.508	496.6
2377.333	489.6
2381.153	475.6
2384.971	485.6
2388.785	475.6
2392.595	477.6
2396.402	462.6
2400.206	464.6
2404.007	459.6
2407.804	463.6
2411.597	449.6
2415.388	450.6
2419.174	455.6
2422.958	444.6
2426.738	459.6
2430.515	439.6
2434.289	446.6
2438.059	438.6
2441.825	427.6
2445.589	431.6
2449.349	431.6
2453.106	415.6
2456.859	406.6
2460.61	411.6
2464.356	394.6
2468.1	399.6
2471.84	390.6
2475.577	400.6
2479.311	385.6
2483.041	383.6
2486.768	379.6
2490.492	385.6
2494.213	377.6
2497.93	378.6
2501.644	369.6
2505.355	367.6
2509.062	356.6
2512.766	360.6
2516.467	359.6
2520.165	352.6
2523.859	342.6
2527.551	346.6
2531.239	336.6
2534.923	331.6
2538.605	333.6
2542.283	323.6
2545.958	329.6
2549.63	314.6
2553.299	317.6
2556.964	333.6
2560.626	312.6
2564.285	311.6
2567.941	297.6
2571.594	304.6
2575.243	294.6
2578.89	295.6
2582.533	289.6
2586.173	284.6
2589.809	272.6
2593.443	283.6
2597.073	273.6
2600.701	272.6
2604.325	263.6
2607.946	261.6
2611.564	262.6
2615.178	262.6
2618.79	263.6
2622.398	253.6
2626.004	263.6
2629.606	265.6
2633.205	255.6
2636.801	251.6
2640.394	254.6
2643.983	243.6
2647.57	245.6
2651.153	242.6
2654.734	243.6
2658.311	234.6
2661.885	229.6
2665.456	229.6
2669.025	229.6
2672.589	230.6
2676.151	222.6
2679.71	226.6
2683.266	219.6
2686.819	217.6
2690.368	209.6
2693.915	199.6
2697.458	206.6
2700.999	194.6
2704.536	202.6
2708.071	197.6
2711.602	182.6
2715.13	190.6
2718.656	184.6
2722.178	187.6
2725.697	177.6
2729.214	176.6
2732.727	180.6
2736.237	179.6
2739.744	178.6
2743.249	170.6
2746.75	175.6
2750.248	157.6
2753.743	159.6
2757.236	151.6
2760.725	151.6
2764.211	147.6
2767.695	142.6
2771.175	134.6
2774.652	132.6
2778.127	136.6
2781.598	136.6
2785.067	147.6
2788.532	132.6
2791.995	145.6
2795.455	148.6
2798.911	140.6
2802.365	144.6
2805.816	151.6
2809.264	148.6
2812.709	140.6
2816.151	142.6
2819.59	141.6
2823.026	142.6
2826.46	142.6
2829.89	141.6
2833.318	143.6
2836.742	151.6
2840.164	137.6
2843.583	155.6
2846.999	146.6
2850.412	147.6
2853.822	147.6
2857.229	146.6
2860.634	162.6
2864.035	162.6
2867.434	167.6
2870.83	166.6
2874.223	183.6
2877.613	179.6
2881	201.6
2884.385	192.6
2887.766	192.6
2891.145	186.6
2894.521	193.6
2897.894	200.6
2901.264	196.6
2904.631	196.6
2907.996	195.6
2911.358	210.6
2914.717	207.6
2918.073	214.6
2921.426	222.6
2924.777	226.6
2928.124	232.6
2931.469	228.6
2934.811	235.6
2938.15	236.6
2941.487	249.6
2944.821	250.6
2948.152	239.6
2951.48	244.6
2954.805	253.6
2958.128	243.6
2961.447	241.6
2964.765	247.6
2968.079	237.6
2971.39	244.6
2974.699	248.6
2978.005	241.6
2981.308	251.6
2984.609	253.6
2987.907	252.6
2991.202	257.6
2994.494	251.6
2997.784	257.6
3001.07	272.6
3004.355	271.6
3007.636	263.6
3010.915	268.6
3014.191	268.6
3017.464	278.6
3020.734	283.6
3024.002	280.6
3027.267	297.6
3030.53	295.6
3033.789	297.6
3037.046	312.6
3040.301	312.6
3043.552	323.6
3046.801	344.6
3050.048	355.6
3053.291	354.6
3056.532	365.6
3059.771	383.6
3063.006	383.6
3066.239	416.6
3069.469	427.6
3072.697	430.6
3075.922	439.6
3079.144	471.6
3082.364	478.6
3085.581	491.6
3088.795	484.6
3092.007	505.6
3095.216	500.6
3098.423	512.6
3101.627	532.6
3104.828	545.6
3108.026	535.6
3111.222	563.6
3114.416	577.6
3117.607	594.6
3120.795	600.6
3123.98	604.6
3127.163	622.6
3130.344	640.6
3133.521	645.6
3136.696	685.6
3139.869	679.6
3143.039	685.6
3146.206	707.6
3149.371	718.6
3152.533	728.6
3155.693	720.6
3158.85	740.6
3162.005	739.6
3165.157	738.6
3168.306	744.6
3171.453	750.6
3174.597	759.6
3177.739	757.6
3180.878	762.6
3184.014	784.6
3187.149	757.6
3190.28	762.6
3193.409	781.6
3196.536	788.6
3199.659	776.6
3202.781	784.6
3205.9	786.6
3209.016	800.6
3212.13	797.6
3215.241	777.6
3218.35	764.6
3221.456	761.6
3224.56	756.6
3227.661	734.6
3230.76	745.6
3233.856	728.6
3236.95	707.6
3240.041	705.6
3243.13	700.6
3246.216	689.6
3249.3	663.6
3252.382	667.6
3255.46	672.6
3258.537	649.6
3261.611	643.6
3264.682	647.6
3267.751	657.6
3270.818	634.6
3273.882	639.6
3276.943	620.6
3280.002	625.6
3283.059	609.6
3286.113	620.6
3289.165	603.6
3292.214	602.6
3295.261	591.6
3298.306	589.6
3301.348	582.6
3304.387	575.6
3307.425	566.6
3310.459	574.6
3313.492	556.6
3316.521	549.6
3319.549	547.6
3322.574	542.6
3325.597	548.6
3328.617	546.6
3331.635	543.6
3334.65	535.6
3337.663	524.6
3340.674	525.6
3343.682	528.6
3346.688	524.6
3349.691	534.6
3352.692	512.6
3355.691	520.6
3358.687	505.6
3361.681	519.6
3364.673	515.6
3367.662	507.6
3370.649	485.6
3373.633	491.6
3376.615	477.6
3379.595	457.6
3382.572	461.6
3385.547	451.6
3388.52	441.6
3391.49	437.6
3394.458	431.6
3397.424	430.6
3400.387	417.6
3403.348	420.6
3406.307	400.6
3409.263	397.6
3412.217	397.6
3415.168	400.6
3418.118	387.6
3421.065	382.6
3424.009	370.6
3426.951	372.6
3429.891	361.6
3432.829	338.6
3435.764	342.6
3438.697	330.6
3441.628	323.6
3444.557	311.6
3447.483	296.6
3450.407	281.6
3453.328	271.6
3456.247	264.6
3459.164	253.6
3462.079	243.6
3464.991	232.6
3467.902	219.6
3470.809	221.6
3473.715	197.6
3476.618	182.6
3479.519	187.6
3482.418	174.6
3485.315	167.6
3488.209	156.6
3491.101	147.6
3493.99	156.6
3496.878	144.6
3499.763	129.6
3502.646	124.6
3505.527	117.6
3508.405	121.6
3511.281	97.6
3514.155	92.6
3517.027	82.6
3519.897	74.6
3522.764	70.6
3525.629	58.6
3528.492	49.6
3531.352	40.6
3534.211	32.6
3537.067	29.6
3539.921	21.6
3542.773	17.6
3545.622	8.6
3548.469	7.6
3551.315	1.6
3554.157	-10.4
3556.998	-14.4
3559.837	-16.4
3562.673	-23.4
3565.507	-26.4
3568.339	-27.4
3571.169	-46.4
3573.996	-37.4
3576.822	-45.4
3579.645	-41.4
3582.466	-47.4
3585.285	-55.4
3588.101	-44.4
3590.916	-63.4
3593.728	-69.4
3596.538	-66.4
3599.346	-68.4
3602.152	-72.4
3604.956	-76.4
3607.757	-70.4
3610.556	-81.4
3613.354	-78.4
3616.149	-92.4
3618.942	-96.4
3621.732	-92.4
3624.521	-97.4
3627.307	-84.4
3630.092	-93.4
3632.874	-94.4
3635.654	-100.4
3638.432	-98.4
3641.208	-100.4
3643.982	-110.4
3646.753	-109.4
3649.523	-112.4
3652.29	-108.4
3655.055	-112.4
3657.818	-114.4
3660.579	-117.4
3663.338	-112.4
3666.095	-123.4
3668.849	-120.4
3671.602	-122.4
3674.352	-122.4
3677.101	-135.4
3679.847	-128.4
3682.591	-132.4
3685.333	-133.4
3688.073	-131.4
3690.811	-131.4
3693.547	-137.4
3696.281	-138.4
3699.013	-135.4
3701.742	-140.4
3704.47	-141.4
3707.195	-136.4
3709.919	-140.4
3712.64	-139.4
3715.359	-144.4
3718.076	-141.4
3720.792	-144.4
3723.505	-150.4
3726.216	-146.4
3728.925	-149.4
3731.632	-145.4
3734.336	-154.4
3737.039	-148.4
3739.74	-148.4
3742.439	-160.4
3745.136	-148.4
3747.83	-153.4
3750.523	-150.4
3753.213	-148.4
3755.902	-149.4
3758.589	-153.4
3761.273	-146.4
3763.956	-151.4
3766.636	-157.4
3769.315	-152.4
3771.991	-150.4
3774.665	-154.4
3777.338	-146.4
3780.008	-154.4
3782.677	-155.4
3785.343	-155.4
3788.007	-161.4
3790.67	-161.4
3793.33	-152.4
3795.989	-153.4
3798.645	-150.4
3801.299	-153.4
3803.952	-159.4
3806.602	-151.4
3809.251	-162.4
3811.897	-162.4
3814.542	-161.4
3817.184	-152.4
3819.825	-153.4
3822.463	-156.4
3825.1	-154.4
3827.735	-160.4
3830.367	-158.4
3832.998	-163.4
3835.627	-157.4
3838.253	-155.4
3840.878	-157.4
3843.501	-151.4
3846.122	-155.4
3848.741	-159.4
3851.358	-154.4
3853.973	-163.4
3856.586	-157.4
3859.197	-164.4
3861.806	-155.4
3864.414	-158.4
3867.019	-156.4
3869.622	-160.4
3872.224	-144.4
3874.823	-135.4
3877.421	-124.4
3880.016	-94.4
3882.61	-56.4
3885.202	-60.4
3887.792	-87.4
3890.38	-123.4
3892.966	-143.4
3895.55	-156.4
3898.132	-153.4
3900.713	-157.4
3903.291	-157.4
3905.868	-165.4
3908.442	-156.4
3911.015	-163.4
3913.586	-162.4
3916.155	-166.4
3918.722	-161.4
3921.287	-162.4
3923.85	-156.4
3926.411	-161.4
3928.971	-156.4
3931.528	-166.4
3934.084	-164.4
3936.638	-160.4
3939.19	-164.4
3941.74	-165.4
3944.288	-161.4
3946.834	-162.4
3949.378	-158.4
3951.921	-164.4
3954.462	-167.4
3957	-159.4
3959.537	-159.4
3962.072	-166.4
3964.606	-157.4
3967.137	-162.4
3969.667	-159.4
3972.194	-165.4
3974.72	-158.4
3977.244	-162.4
3979.766	-166.4
3982.286	-160.4
3984.805	-160.4
3987.321	-155.4
3989.836	-151.4
3992.349	-162.4
3994.86	-157.4
3997.369	-165.4
3999.877	-159.4
4002.382	-158.4
4004.886	-159.4
4007.388	-163.4
4009.888	-150.4
4012.386	-163.4
4014.883	-161.4
4017.377	-163.4
4019.87	-155.4
4022.361	-161.4
4024.85	-160.4
4027.338	-159.4
4029.823	-151.4
4032.307	-154.4
4034.789	-164.4
4037.269	-161.4
4039.747	-152.4
4042.224	-155.4
4044.699	-156.4
4047.172	-154.4
4049.643	-155.4
4052.112	-157.4
4054.58	-159.4
4057.046	-159.4
4059.51	-164.4
4061.972	-161.4
4064.432	-156.4
4066.891	-162.4
4069.348	-157.4
4071.803	-163.4
4074.256	-157.4
4076.708	-157.4
4079.158	-159.4
4081.606	-158.4
4084.052	-160.4
4086.497	-162.4
4088.939	-144.4
4091.38	-157.4
4093.819	-158.4
4096.257	-166.4
4098.693	-163.4
4101.127	-169.4
4103.559	-163.4
4105.989	15.6
4108.418	11.6
4110.845	11.6
4113.27	8.6
4115.694	-5.4
4118.115	-1.4
4120.535	-161.4
4122.954	-166.4
4125.37	-153.4
4127.785	-157.4
4130.198	-158.4
4132.609	-161.4
4135.019	-163.4
4137.427	-170.4
4139.833	-167.4
4142.237	-167.4
