Data from 2018-2-8_conc=0_n=5_RamanShift_03.txt Node
Date: Mon Mar 12 13:33:59 IST 2018
User: aro
Spectrometer: QEPB0276
Trigger mode: 0
Integration Time (sec): 3.000000E1
Scans to average: 1
Electric dark correction enabled: true
Nonlinearity correction enabled: false
Boxcar width: 0
XAxis mode: Raman Shifts
Number of Pixels in Spectrum: 1044
>>>>>Begin Spectral Data<<<<<
160.701	23.6
166.742	50.6
172.777	135.6
178.805	385.6
184.826	1014.6
190.841	2213.6
196.849	3657.6
202.85	4785.6
208.845	5258.6
214.833	5282.6
220.815	5214.6
226.789	5196.6
232.758	5173.6
238.719	5189.6
244.674	5176.6
250.623	5120.6
256.565	5067.6
262.5	4991.6
268.429	4916.6
274.351	4916.6
280.267	4877.6
286.176	4832.6
292.079	4834.6
297.975	4796.6
303.865	4806.6
309.748	4762.6
315.625	4792.6
321.495	4756.6
327.359	4780.6
333.217	4762.6
339.068	4771.6
344.912	4786.6
350.751	4782.6
356.583	4799.6
362.408	4821.6
368.227	4828.6
374.04	4845.6
379.847	4860.6
385.647	4879.6
391.44	4905.6
397.228	4913.6
403.009	4934.6
408.784	4944.6
414.553	4984.6
420.315	4956.6
426.071	4977.6
431.821	5002.6
437.565	4980.6
443.302	4960.6
449.033	4954.6
454.758	4926.6
460.477	4936.6
466.189	4879.6
471.896	4851.6
477.596	4827.6
483.29	4793.6
488.978	4798.6
494.66	4810.6
500.335	4730.6
506.005	4598.6
511.668	4447.6
517.325	4302.6
522.977	4189.6
528.622	4106.6
534.261	4080.6
539.894	4018.6
545.521	3962.6
551.141	3918.6
556.756	3924.6
562.365	3893.6
567.968	3851.6
573.565	3838.6
579.155	3821.6
584.74	3822.6
590.319	3792.6
595.892	3801.6
601.459	3771.6
607.02	3731.6
612.575	3724.6
618.124	3698.6
623.667	3669.6
629.204	3650.6
634.735	3603.6
640.261	3595.6
645.781	3567.6
651.294	3539.6
656.802	3516.6
662.304	3531.6
667.8	3500.6
673.29	3497.6
678.775	3513.6
684.254	3520.6
689.726	3484.6
695.193	3456.6
700.655	3443.6
706.11	3416.6
711.56	3401.6
717.004	3406.6
722.442	3353.6
727.874	3365.6
733.301	3339.6
738.722	3341.6
744.137	3311.6
749.547	3299.6
754.951	3308.6
760.349	3305.6
765.741	3309.6
771.128	3342.6
776.509	3370.6
781.885	3384.6
787.254	3368.6
792.618	3387.6
797.977	3357.6
803.33	3358.6
808.677	3321.6
814.019	3307.6
819.355	3301.6
824.686	3257.6
830.011	3224.6
835.33	3228.6
840.644	3214.6
845.952	3238.6
851.255	3200.6
856.552	3206.6
861.844	3184.6
867.13	3169.6
872.41	3147.6
877.686	3151.6
882.955	3102.6
888.219	3102.6
893.478	3085.6
898.731	3012.6
903.979	2962.6
909.221	2955.6
914.458	2904.6
919.69	2908.6
924.916	2945.6
930.136	2945.6
935.351	2930.6
940.561	2942.6
945.766	2915.6
950.965	2924.6
956.158	2907.6
961.347	2873.6
966.529	2811.6
971.707	2779.6
976.879	2770.6
982.046	2739.6
987.208	2719.6
992.364	2713.6
997.515	2716.6
1002.66	2751.6
1007.801	2776.6
1012.936	2798.6
1018.066	2808.6
1023.19	2815.6
1028.309	2821.6
1033.423	2810.6
1038.532	2815.6
1043.636	2764.6
1048.734	2746.6
1053.827	2731.6
1058.915	2696.6
1063.998	2669.6
1069.075	2676.6
1074.147	2665.6
1079.214	2662.6
1084.276	2670.6
1089.333	2701.6
1094.385	2710.6
1099.431	2690.6
1104.472	2685.6
1109.509	2690.6
1114.54	2635.6
1119.565	2605.6
1124.586	2587.6
1129.602	2521.6
1134.613	2509.6
1139.618	2491.6
1144.619	2493.6
1149.614	2501.6
1154.604	2504.6
1159.589	2523.6
1164.57	2518.6
1169.545	2522.6
1174.515	2524.6
1179.48	2516.6
1184.44	2479.6
1189.395	2462.6
1194.345	2447.6
1199.29	2410.6
1204.23	2433.6
1209.165	2443.6
1214.095	2439.6
1219.021	2425.6
1223.941	2475.6
1228.856	2475.6
1233.766	2499.6
1238.672	2502.6
1243.572	2493.6
1248.467	2461.6
1253.358	2438.6
1258.244	2412.6
1263.124	2375.6
1268	2330.6
1272.871	2319.6
1277.737	2289.6
1282.599	2272.6
1287.455	2285.6
1292.306	2279.6
1297.153	2285.6
1301.995	2275.6
1306.832	2299.6
1311.664	2325.6
1316.491	2296.6
1321.314	2307.6
1326.132	2320.6
1330.945	2289.6
1335.753	2248.6
1340.556	2202.6
1345.354	2179.6
1350.148	2147.6
1354.937	2107.6
1359.722	2069.6
1364.501	2047.6
1369.276	1984.6
1374.046	1953.6
1378.811	1933.6
1383.572	1926.6
1388.327	1930.6
1393.079	1941.6
1397.825	1938.6
1402.567	1937.6
1407.304	1945.6
1412.036	1957.6
1416.764	1942.6
1421.487	1958.6
1426.205	1957.6
1430.919	1936.6
1435.628	1975.6
1440.333	1999.6
1445.032	2015.6
1449.727	2026.6
1454.418	2043.6
1459.104	2050.6
1463.785	2002.6
1468.462	1963.6
1473.134	1944.6
1477.802	1887.6
1482.465	1819.6
1487.123	1804.6
1491.777	1780.6
1496.426	1756.6
1501.071	1739.6
1505.711	1719.6
1510.347	1734.6
1514.978	1721.6
1519.604	1709.6
1524.226	1711.6
1528.844	1703.6
1533.457	1701.6
1538.065	1692.6
1542.669	1678.6
1547.269	1674.6
1551.864	1682.6
1556.454	1718.6
1561.041	1721.6
1565.622	1717.6
1570.199	1708.6
1574.772	1750.6
1579.34	1769.6
1583.904	1796.6
1588.464	1791.6
1593.019	1801.6
1597.569	1787.6
1602.115	1823.6
1606.657	1779.6
1611.195	1783.6
1615.728	1777.6
1620.256	1769.6
1624.78	1784.6
1629.3	1765.6
1633.816	1805.6
1638.327	1802.6
1642.834	1795.6
1647.336	1799.6
1651.834	1804.6
1656.328	1799.6
1660.817	1811.6
1665.302	1787.6
1669.783	1744.6
1674.259	1693.6
1678.732	1650.6
1683.199	1637.6
1687.663	1588.6
1692.122	1515.6
1696.577	1437.6
1701.028	1399.6
1705.474	1345.6
1709.917	1306.6
1714.355	1284.6
1718.788	1261.6
1723.218	1266.6
1727.643	1259.6
1732.064	1268.6
1736.481	1255.6
1740.893	1235.6
1745.301	1217.6
1749.705	1181.6
1754.105	1168.6
1758.501	1142.6
1762.893	1117.6
1767.28	1112.6
1771.663	1109.6
1776.042	1088.6
1780.417	1072.6
1784.787	1064.6
1789.154	1038.6
1793.516	1031.6
1797.874	1020.6
1802.228	1004.6
1806.578	996.6
1810.924	978.6
1815.266	956.6
1819.603	974.6
1823.937	978.6
1828.266	980.6
1832.591	972.6
1836.913	953.6
1841.23	978.6
1845.543	999.6
1849.852	970.6
1854.156	979.6
1858.457	974.6
1862.754	983.6
1867.047	975.6
1871.335	983.6
1875.62	983.6
1879.9	973.6
1884.177	978.6
1888.449	964.6
1892.718	950.6
1896.982	945.6
1901.243	919.6
1905.499	911.6
1909.752	892.6
1914	871.6
1918.245	879.6
1922.485	863.6
1926.722	850.6
1930.954	855.6
1935.183	834.6
1939.408	836.6
1943.628	829.6
1947.845	820.6
1952.058	820.6
1956.267	794.6
1960.472	807.6
1964.673	792.6
1968.87	779.6
1973.063	774.6
1977.252	768.6
1981.438	799.6
1985.619	773.6
1989.797	774.6
1993.971	786.6
1998.14	782.6
2002.306	779.6
2006.469	788.6
2010.627	797.6
2014.781	798.6
2018.932	788.6
2023.078	797.6
2027.221	783.6
2031.36	789.6
2035.495	756.6
2039.627	741.6
2043.754	744.6
2047.878	734.6
2051.998	729.6
2056.114	733.6
2060.226	726.6
2064.334	725.6
2068.439	715.6
2072.54	711.6
2076.637	724.6
2080.73	707.6
2084.82	710.6
2088.906	711.6
2092.988	695.6
2097.066	696.6
2101.14	665.6
2105.211	655.6
2109.278	664.6
2113.342	649.6
2117.401	637.6
2121.457	646.6
2125.509	637.6
2129.558	624.6
2133.602	651.6
2137.643	643.6
2141.681	641.6
2145.714	636.6
2149.744	631.6
2153.77	628.6
2157.793	628.6
2161.812	635.6
2165.827	612.6
2169.838	621.6
2173.846	603.6
2177.851	587.6
2181.851	595.6
2185.848	578.6
2189.841	580.6
2193.831	572.6
2197.817	566.6
2201.799	556.6
2205.778	555.6
2209.753	559.6
2213.725	564.6
2217.693	552.6
2221.657	565.6
2225.618	552.6
2229.575	567.6
2233.529	548.6
2237.479	558.6
2241.425	538.6
2245.368	527.6
2249.307	521.6
2253.243	512.6
2257.175	505.6
2261.104	497.6
2265.029	493.6
2268.95	504.6
2272.868	485.6
2276.783	474.6
2280.694	473.6
2284.601	476.6
2288.505	467.6
2292.405	453.6
2296.302	458.6
2300.195	452.6
2304.085	454.6
2307.971	432.6
2311.854	434.6
2315.734	424.6
2319.609	411.6
2323.482	417.6
2327.351	420.6
2331.216	427.6
2335.078	440.6
2338.937	432.6
2342.792	407.6
2346.643	408.6
2350.492	400.6
2354.336	409.6
2358.178	402.6
2362.015	411.6
2365.85	420.6
2369.681	412.6
2373.508	411.6
2377.333	406.6
2381.153	402.6
2384.971	408.6
2388.785	413.6
2392.595	394.6
2396.402	395.6
2400.206	398.6
2404.007	398.6
2407.804	390.6
2411.597	404.6
2415.388	388.6
2419.174	375.6
2422.958	373.6
2426.738	394.6
2430.515	374.6
2434.289	378.6
2438.059	379.6
2441.825	368.6
2445.589	373.6
2449.349	351.6
2453.106	356.6
2456.859	362.6
2460.61	355.6
2464.356	346.6
2468.1	340.6
2471.84	333.6
2475.577	337.6
2479.311	325.6
2483.041	328.6
2486.768	326.6
2490.492	322.6
2494.213	336.6
2497.93	324.6
2501.644	318.6
2505.355	313.6
2509.062	313.6
2512.766	313.6
2516.467	312.6
2520.165	303.6
2523.859	294.6
2527.551	292.6
2531.239	288.6
2534.923	274.6
2538.605	273.6
2542.283	275.6
2545.958	266.6
2549.63	276.6
2553.299	259.6
2556.964	269.6
2560.626	262.6
2564.285	256.6
2567.941	258.6
2571.594	253.6
2575.243	250.6
2578.89	245.6
2582.533	236.6
2586.173	242.6
2589.809	240.6
2593.443	235.6
2597.073	229.6
2600.701	227.6
2604.325	230.6
2607.946	221.6
2611.564	220.6
2615.178	226.6
2618.79	229.6
2622.398	227.6
2626.004	216.6
2629.606	222.6
2633.205	206.6
2636.801	212.6
2640.394	206.6
2643.983	215.6
2647.57	218.6
2651.153	203.6
2654.734	199.6
2658.311	193.6
2661.885	195.6
2665.456	198.6
2669.025	205.6
2672.589	195.6
2676.151	188.6
2679.71	191.6
2683.266	187.6
2686.819	180.6
2690.368	184.6
2693.915	176.6
2697.458	173.6
2700.999	165.6
2704.536	169.6
2708.071	159.6
2711.602	157.6
2715.13	160.6
2718.656	156.6
2722.178	152.6
2725.697	147.6
2729.214	142.6
2732.727	142.6
2736.237	152.6
2739.744	144.6
2743.249	133.6
2746.75	140.6
2750.248	127.6
2753.743	129.6
2757.236	119.6
2760.725	109.6
2764.211	113.6
2767.695	120.6
2771.175	111.6
2774.652	110.6
2778.127	110.6
2781.598	102.6
2785.067	114.6
2788.532	117.6
2791.995	110.6
2795.455	117.6
2798.911	112.6
2802.365	118.6
2805.816	112.6
2809.264	113.6
2812.709	124.6
2816.151	115.6
2819.59	114.6
2823.026	119.6
2826.46	117.6
2829.89	110.6
2833.318	109.6
2836.742	122.6
2840.164	112.6
2843.583	118.6
2846.999	131.6
2850.412	118.6
2853.822	121.6
2857.229	118.6
2860.634	133.6
2864.035	126.6
2867.434	140.6
2870.83	134.6
2874.223	150.6
2877.613	148.6
2881	171.6
2884.385	166.6
2887.766	146.6
2891.145	155.6
2894.521	159.6
2897.894	166.6
2901.264	166.6
2904.631	169.6
2907.996	165.6
2911.358	167.6
2914.717	171.6
2918.073	180.6
2921.426	169.6
2924.777	184.6
2928.124	181.6
2931.469	194.6
2934.811	205.6
2938.15	203.6
2941.487	204.6
2944.821	204.6
2948.152	200.6
2951.48	207.6
2954.805	213.6
2958.128	199.6
2961.447	187.6
2964.765	197.6
2968.079	198.6
2971.39	190.6
2974.699	192.6
2978.005	202.6
2981.308	195.6
2984.609	205.6
2987.907	198.6
2991.202	202.6
2994.494	200.6
2997.784	190.6
3001.07	201.6
3004.355	205.6
3007.636	208.6
3010.915	215.6
3014.191	210.6
3017.464	210.6
3020.734	219.6
3024.002	214.6
3027.267	226.6
3030.53	231.6
3033.789	239.6
3037.046	239.6
3040.301	243.6
3043.552	258.6
3046.801	265.6
3050.048	266.6
3053.291	287.6
3056.532	280.6
3059.771	295.6
3063.006	306.6
3066.239	324.6
3069.469	328.6
3072.697	332.6
3075.922	344.6
3079.144	358.6
3082.364	363.6
3085.581	378.6
3088.795	379.6
3092.007	379.6
3095.216	404.6
3098.423	399.6
3101.627	407.6
3104.828	419.6
3108.026	438.6
3111.222	444.6
3114.416	454.6
3117.607	451.6
3120.795	467.6
3123.98	479.6
3127.163	492.6
3130.344	505.6
3133.521	518.6
3136.696	535.6
3139.869	537.6
3143.039	539.6
3146.206	546.6
3149.371	567.6
3152.533	566.6
3155.693	571.6
3158.85	568.6
3162.005	581.6
3165.157	575.6
3168.306	584.6
3171.453	580.6
3174.597	583.6
3177.739	583.6
3180.878	587.6
3184.014	609.6
3187.149	602.6
3190.28	601.6
3193.409	611.6
3196.536	609.6
3199.659	611.6
3202.781	619.6
3205.9	612.6
3209.016	609.6
3212.13	616.6
3215.241	603.6
3218.35	602.6
3221.456	592.6
3224.56	593.6
3227.661	566.6
3230.76	564.6
3233.856	559.6
3236.95	557.6
3240.041	552.6
3243.13	535.6
3246.216	517.6
3249.3	504.6
3252.382	525.6
3255.46	510.6
3258.537	497.6
3261.611	498.6
3264.682	486.6
3267.751	498.6
3270.818	478.6
3273.882	479.6
3276.943	476.6
3280.002	482.6
3283.059	475.6
3286.113	467.6
3289.165	475.6
3292.214	465.6
3295.261	443.6
3298.306	447.6
3301.348	442.6
3304.387	439.6
3307.425	430.6
3310.459	435.6
3313.492	424.6
3316.521	424.6
3319.549	407.6
3322.574	413.6
3325.597	413.6
3328.617	403.6
3331.635	410.6
3334.65	412.6
3337.663	395.6
3340.674	407.6
3343.682	408.6
3346.688	399.6
3349.691	401.6
3352.692	409.6
3355.691	402.6
3358.687	390.6
3361.681	398.6
3364.673	396.6
3367.662	370.6
3370.649	371.6
3373.633	365.6
3376.615	349.6
3379.595	345.6
3382.572	348.6
3385.547	341.6
3388.52	340.6
3391.49	341.6
3394.458	336.6
3397.424	323.6
3400.387	322.6
3403.348	316.6
3406.307	304.6
3409.263	293.6
3412.217	290.6
3415.168	293.6
3418.118	293.6
3421.065	274.6
3424.009	276.6
3426.951	277.6
3429.891	261.6
3432.829	257.6
3435.764	262.6
3438.697	242.6
3441.628	241.6
3444.557	219.6
3447.483	224.6
3450.407	203.6
3453.328	201.6
3456.247	200.6
3459.164	186.6
3462.079	178.6
3464.991	168.6
3467.902	164.6
3470.809	167.6
3473.715	150.6
3476.618	138.6
3479.519	132.6
3482.418	119.6
3485.315	115.6
3488.209	117.6
3491.101	107.6
3493.99	105.6
3496.878	102.6
3499.763	88.6
3502.646	81.6
3505.527	61.6
3508.405	69.6
3511.281	58.6
3514.155	61.6
3517.027	55.6
3519.897	39.6
3522.764	28.6
3525.629	26.6
3528.492	20.6
3531.352	15.6
3534.211	3.6
3537.067	5.6
3539.921	1.6
3542.773	1.6
3545.622	-11.4
3548.469	-15.4
3551.315	-13.4
3554.157	-20.4
3556.998	-31.4
3559.837	-24.4
3562.673	-40.4
3565.507	-32.4
3568.339	-34.4
3571.169	-49.4
3573.996	-42.4
3576.822	-46.4
3579.645	-50.4
3582.466	-53.4
3585.285	-60.4
3588.101	-54.4
3590.916	-63.4
3593.728	-69.4
3596.538	-72.4
3599.346	-69.4
3602.152	-70.4
3604.956	-75.4
3607.757	-76.4
3610.556	-81.4
3613.354	-76.4
3616.149	-88.4
3618.942	-86.4
3621.732	-87.4
3624.521	-85.4
3627.307	-98.4
3630.092	-92.4
3632.874	-94.4
3635.654	-101.4
3638.432	-90.4
3641.208	-96.4
3643.982	-96.4
3646.753	-100.4
3649.523	-103.4
3652.29	-105.4
3655.055	-106.4
3657.818	-105.4
3660.579	-110.4
3663.338	-102.4
3666.095	-113.4
3668.849	-115.4
3671.602	-114.4
3674.352	-117.4
3677.101	-119.4
3679.847	-117.4
3682.591	-121.4
3685.333	-122.4
3688.073	-120.4
3690.811	-120.4
3693.547	-132.4
3696.281	-123.4
3699.013	-128.4
3701.742	-125.4
3704.47	-127.4
3707.195	-123.4
3709.919	-126.4
3712.64	-126.4
3715.359	-128.4
3718.076	-128.4
3720.792	-134.4
3723.505	-135.4
3726.216	-129.4
3728.925	-131.4
3731.632	-131.4
3734.336	-133.4
3737.039	-134.4
3739.74	-136.4
3742.439	-141.4
3745.136	-130.4
3747.83	-139.4
3750.523	-138.4
3753.213	-132.4
3755.902	-136.4
3758.589	-139.4
3761.273	-133.4
3763.956	-133.4
3766.636	-137.4
3769.315	-132.4
3771.991	-139.4
3774.665	-142.4
3777.338	-135.4
3780.008	-133.4
3782.677	-139.4
3785.343	-133.4
3788.007	-139.4
3790.67	-142.4
3793.33	-141.4
3795.989	-140.4
3798.645	-134.4
3801.299	-136.4
3803.952	-147.4
3806.602	-133.4
3809.251	-143.4
3811.897	-144.4
3814.542	-143.4
3817.184	-140.4
3819.825	-140.4
3822.463	-140.4
3825.1	-133.4
3827.735	-134.4
3830.367	-136.4
3832.998	-139.4
3835.627	-141.4
3838.253	-140.4
3840.878	-143.4
3843.501	-141.4
3846.122	-138.4
3848.741	-147.4
3851.358	-136.4
3853.973	-139.4
3856.586	-138.4
3859.197	-147.4
3861.806	-140.4
3864.414	-144.4
3867.019	-140.4
3869.622	-137.4
3872.224	-126.4
3874.823	-115.4
3877.421	-98.4
3880.016	-69.4
3882.61	-36.4
3885.202	-38.4
3887.792	-58.4
3890.38	-92.4
3892.966	-123.4
3895.55	-129.4
3898.132	-132.4
3900.713	-141.4
3903.291	-139.4
3905.868	-145.4
3908.442	-136.4
3911.015	-149.4
3913.586	-147.4
3916.155	-144.4
3918.722	-145.4
3921.287	-146.4
3923.85	-145.4
3926.411	-151.4
3928.971	-143.4
3931.528	-146.4
3934.084	-140.4
3936.638	-138.4
3939.19	-147.4
3941.74	-150.4
3944.288	-147.4
3946.834	-140.4
3949.378	-144.4
3951.921	-143.4
3954.462	-153.4
3957	-142.4
3959.537	-135.4
3962.072	-143.4
3964.606	-142.4
3967.137	-140.4
3969.667	-151.4
3972.194	-149.4
3974.72	-146.4
3977.244	-146.4
3979.766	-143.4
3982.286	-142.4
3984.805	-144.4
3987.321	-142.4
3989.836	-142.4
3992.349	-143.4
3994.86	-146.4
3997.369	-143.4
3999.877	-142.4
4002.382	-135.4
4004.886	-144.4
4007.388	-144.4
4009.888	-146.4
4012.386	-149.4
4014.883	-143.4
4017.377	-142.4
4019.87	-136.4
4022.361	-144.4
4024.85	-143.4
4027.338	-140.4
4029.823	-140.4
4032.307	-143.4
4034.789	-145.4
4037.269	-145.4
4039.747	-137.4
4042.224	-143.4
4044.699	-144.4
4047.172	-142.4
4049.643	-142.4
4052.112	-144.4
4054.58	-141.4
4057.046	-143.4
4059.51	-143.4
4061.972	-138.4
4064.432	-139.4
4066.891	-144.4
4069.348	-142.4
4071.803	-144.4
4074.256	-144.4
4076.708	-140.4
4079.158	-144.4
4081.606	-141.4
4084.052	-145.4
4086.497	-146.4
4088.939	-133.4
4091.38	-139.4
4093.819	-139.4
4096.257	-151.4
4098.693	-148.4
4101.127	-151.4
4103.559	-147.4
4105.989	23.6
4108.418	17.6
4110.845	20.6
4113.27	9.6
4115.694	6.6
4118.115	2.6
4120.535	-144.4
4122.954	-143.4
4125.37	-141.4
4127.785	-139.4
4130.198	-144.4
4132.609	-141.4
4135.019	-152.4
4137.427	-148.4
4139.833	-148.4
4142.237	-146.4
