Data from 2018-2-8_conc=3_n=1_RamanShift_01.txt Node
Date: Mon Mar 12 14:28:28 IST 2018
User: aro
Spectrometer: QEPB0276
Trigger mode: 0
Integration Time (sec): 3.000000E1
Scans to average: 1
Electric dark correction enabled: true
Nonlinearity correction enabled: false
Boxcar width: 0
XAxis mode: Raman Shifts
Number of Pixels in Spectrum: 1044
>>>>>Begin Spectral Data<<<<<
160.701	18.9
166.742	43.9
172.777	115.9
178.805	350.9
184.826	930.9
190.841	1969.9
196.849	3255.9
202.85	4233.9
208.845	4628.9
214.833	4614.9
220.815	4548.9
226.789	4535.9
232.758	4528.9
238.719	4537.9
244.674	4484.9
250.623	4440.9
256.565	4390.9
262.5	4342.9
268.429	4254.9
274.351	4219.9
280.267	4208.9
286.176	4196.9
292.079	4148.9
297.975	4126.9
303.865	4134.9
309.748	4116.9
315.625	4123.9
321.495	4124.9
327.359	4114.9
333.217	4106.9
339.068	4100.9
344.912	4126.9
350.751	4148.9
356.583	4129.9
362.408	4113.9
368.227	4180.9
374.04	4204.9
379.847	4200.9
385.647	4213.9
391.44	4252.9
397.228	4264.9
403.009	4279.9
408.784	4285.9
414.553	4320.9
420.315	4332.9
426.071	4331.9
431.821	4329.9
437.565	4299.9
443.302	4321.9
449.033	4296.9
454.758	4264.9
460.477	4246.9
466.189	4263.9
471.896	4192.9
477.596	4175.9
483.29	4147.9
488.978	4177.9
494.66	4144.9
500.335	4069.9
506.005	3939.9
511.668	3808.9
517.325	3671.9
522.977	3545.9
528.622	3475.9
534.261	3410.9
539.894	3371.9
545.521	3342.9
551.141	3303.9
556.756	3265.9
562.365	3271.9
567.968	3259.9
573.565	3222.9
579.155	3175.9
584.74	3177.9
590.319	3180.9
595.892	3175.9
601.459	3152.9
607.02	3159.9
612.575	3116.9
618.124	3091.9
623.667	3055.9
629.204	3033.9
634.735	2987.9
640.261	2977.9
645.781	2964.9
651.294	2937.9
656.802	2957.9
662.304	2913.9
667.8	2916.9
673.29	2908.9
678.775	2918.9
684.254	2880.9
689.726	2883.9
695.193	2864.9
700.655	2858.9
706.11	2846.9
711.56	2803.9
717.004	2796.9
722.442	2780.9
727.874	2782.9
733.301	2766.9
738.722	2771.9
744.137	2732.9
749.547	2755.9
754.951	2750.9
760.349	2728.9
765.741	2764.9
771.128	2736.9
776.509	2803.9
781.885	2822.9
787.254	2833.9
792.618	2822.9
797.977	2824.9
803.33	2821.9
808.677	2761.9
814.019	2753.9
819.355	2730.9
824.686	2690.9
830.011	2697.9
835.33	2692.9
840.644	2676.9
845.952	2682.9
851.255	2661.9
856.552	2653.9
861.844	2653.9
867.13	2627.9
872.41	2594.9
877.686	2572.9
882.955	2556.9
888.219	2545.9
893.478	2499.9
898.731	2477.9
903.979	2426.9
909.221	2433.9
914.458	2392.9
919.69	2404.9
924.916	2403.9
930.136	2424.9
935.351	2398.9
940.561	2422.9
945.766	2406.9
950.965	2406.9
956.158	2381.9
961.347	2351.9
966.529	2328.9
971.707	2292.9
976.879	2262.9
982.046	2225.9
987.208	2227.9
992.364	2245.9
997.515	2249.9
1002.66	2255.9
1007.801	2279.9
1012.936	2295.9
1018.066	2321.9
1023.19	2313.9
1028.309	2310.9
1033.423	2303.9
1038.532	2295.9
1043.636	2285.9
1048.734	2245.9
1053.827	2229.9
1058.915	2219.9
1063.998	2202.9
1069.075	2188.9
1074.147	2189.9
1079.214	2184.9
1084.276	2205.9
1089.333	2200.9
1094.385	2218.9
1099.431	2224.9
1104.472	2217.9
1109.509	2184.9
1114.54	2154.9
1119.565	2134.9
1124.586	2116.9
1129.602	2094.9
1134.613	2048.9
1139.618	2029.9
1144.619	2043.9
1149.614	2046.9
1154.604	2033.9
1159.589	2064.9
1164.57	2075.9
1169.545	2047.9
1174.515	2091.9
1179.48	2046.9
1184.44	2036.9
1189.395	2025.9
1194.345	2017.9
1199.29	1985.9
1204.23	2017.9
1209.165	2005.9
1214.095	2013.9
1219.021	2001.9
1223.941	2040.9
1228.856	2037.9
1233.766	2044.9
1238.672	2057.9
1243.572	2063.9
1248.467	2044.9
1253.358	2015.9
1258.244	1993.9
1263.124	1951.9
1268	1895.9
1272.871	1894.9
1277.737	1892.9
1282.599	1869.9
1287.455	1853.9
1292.306	1865.9
1297.153	1869.9
1301.995	1883.9
1306.832	1881.9
1311.664	1920.9
1316.491	1899.9
1321.314	1913.9
1326.132	1901.9
1330.945	1874.9
1335.753	1837.9
1340.556	1813.9
1345.354	1795.9
1350.148	1779.9
1354.937	1741.9
1359.722	1712.9
1364.501	1687.9
1369.276	1671.9
1374.046	1640.9
1378.811	1600.9
1383.572	1604.9
1388.327	1595.9
1393.079	1607.9
1397.825	1613.9
1402.567	1604.9
1407.304	1593.9
1412.036	1599.9
1416.764	1603.9
1421.487	1599.9
1426.205	1611.9
1430.919	1621.9
1435.628	1616.9
1440.333	1621.9
1445.032	1645.9
1449.727	1668.9
1454.418	1669.9
1459.104	1664.9
1463.785	1634.9
1468.462	1624.9
1473.134	1570.9
1477.802	1562.9
1482.465	1522.9
1487.123	1493.9
1491.777	1467.9
1496.426	1471.9
1501.071	1460.9
1505.711	1441.9
1510.347	1461.9
1514.978	1453.9
1519.604	1456.9
1524.226	1438.9
1528.844	1428.9
1533.457	1423.9
1538.065	1420.9
1542.669	1415.9
1547.269	1421.9
1551.864	1403.9
1556.454	1429.9
1561.041	1437.9
1565.622	1469.9
1570.199	1452.9
1574.772	1459.9
1579.34	1480.9
1583.904	1505.9
1588.464	1520.9
1593.019	1511.9
1597.569	1524.9
1602.115	1540.9
1606.657	1522.9
1611.195	1499.9
1615.728	1501.9
1620.256	1491.9
1624.78	1497.9
1629.3	1513.9
1633.816	1515.9
1638.327	1535.9
1642.834	1535.9
1647.336	1531.9
1651.834	1557.9
1656.328	1525.9
1660.817	1534.9
1665.302	1521.9
1669.783	1484.9
1674.259	1466.9
1678.732	1421.9
1683.199	1381.9
1687.663	1342.9
1692.122	1290.9
1696.577	1249.9
1701.028	1199.9
1705.474	1150.9
1709.917	1132.9
1714.355	1100.9
1718.788	1093.9
1723.218	1097.9
1727.643	1075.9
1732.064	1072.9
1736.481	1069.9
1740.893	1035.9
1745.301	1022.9
1749.705	996.9
1754.105	975.9
1758.501	967.9
1762.893	942.9
1767.28	936.9
1771.663	929.9
1776.042	926.9
1780.417	916.9
1784.787	923.9
1789.154	895.9
1793.516	894.9
1797.874	883.9
1802.228	868.9
1806.578	861.9
1810.924	864.9
1815.266	847.9
1819.603	854.9
1823.937	847.9
1828.266	829.9
1832.591	831.9
1836.913	822.9
1841.23	835.9
1845.543	839.9
1849.852	834.9
1854.156	831.9
1858.457	846.9
1862.754	838.9
1867.047	838.9
1871.335	821.9
1875.62	832.9
1879.9	824.9
1884.177	830.9
1888.449	803.9
1892.718	816.9
1896.982	807.9
1901.243	784.9
1905.499	786.9
1909.752	782.9
1914	761.9
1918.245	765.9
1922.485	737.9
1926.722	753.9
1930.954	733.9
1935.183	723.9
1939.408	720.9
1943.628	725.9
1947.845	724.9
1952.058	722.9
1956.267	713.9
1960.472	712.9
1964.673	701.9
1968.87	684.9
1973.063	701.9
1977.252	670.9
1981.438	680.9
1985.619	672.9
1989.797	673.9
1993.971	680.9
1998.14	671.9
2002.306	682.9
2006.469	685.9
2010.627	686.9
2014.781	691.9
2018.932	684.9
2023.078	687.9
2027.221	673.9
2031.36	662.9
2035.495	663.9
2039.627	645.9
2043.754	630.9
2047.878	638.9
2051.998	632.9
2056.114	631.9
2060.226	629.9
2064.334	635.9
2068.439	628.9
2072.54	622.9
2076.637	626.9
2080.73	618.9
2084.82	617.9
2088.906	612.9
2092.988	606.9
2097.066	597.9
2101.14	598.9
2105.211	590.9
2109.278	561.9
2113.342	568.9
2117.401	572.9
2121.457	565.9
2125.509	553.9
2129.558	542.9
2133.602	555.9
2137.643	550.9
2141.681	551.9
2145.714	556.9
2149.744	547.9
2153.77	536.9
2157.793	539.9
2161.812	544.9
2165.827	526.9
2169.838	526.9
2173.846	509.9
2177.851	508.9
2181.851	507.9
2185.848	495.9
2189.841	503.9
2193.831	500.9
2197.817	480.9
2201.799	485.9
2205.778	467.9
2209.753	480.9
2213.725	493.9
2217.693	476.9
2221.657	487.9
2225.618	486.9
2229.575	472.9
2233.529	470.9
2237.479	476.9
2241.425	454.9
2245.368	458.9
2249.307	449.9
2253.243	436.9
2257.175	429.9
2261.104	430.9
2265.029	406.9
2268.95	416.9
2272.868	401.9
2276.783	401.9
2280.694	399.9
2284.601	388.9
2288.505	398.9
2292.405	374.9
2296.302	389.9
2300.195	372.9
2304.085	371.9
2307.971	361.9
2311.854	368.9
2315.734	355.9
2319.609	348.9
2323.482	341.9
2327.351	343.9
2331.216	362.9
2335.078	360.9
2338.937	349.9
2342.792	338.9
2346.643	327.9
2350.492	314.9
2354.336	326.9
2358.178	329.9
2362.015	330.9
2365.85	337.9
2369.681	325.9
2373.508	332.9
2377.333	322.9
2381.153	321.9
2384.971	335.9
2388.785	321.9
2392.595	318.9
2396.402	321.9
2400.206	321.9
2404.007	314.9
2407.804	308.9
2411.597	308.9
2415.388	294.9
2419.174	300.9
2422.958	311.9
2426.738	304.9
2430.515	303.9
2434.289	297.9
2438.059	296.9
2441.825	285.9
2445.589	294.9
2449.349	280.9
2453.106	275.9
2456.859	273.9
2460.61	292.9
2464.356	270.9
2468.1	261.9
2471.84	263.9
2475.577	258.9
2479.311	255.9
2483.041	257.9
2486.768	250.9
2490.492	261.9
2494.213	261.9
2497.93	251.9
2501.644	252.9
2505.355	238.9
2509.062	242.9
2512.766	240.9
2516.467	233.9
2520.165	235.9
2523.859	234.9
2527.551	230.9
2531.239	217.9
2534.923	216.9
2538.605	219.9
2542.283	216.9
2545.958	211.9
2549.63	214.9
2553.299	205.9
2556.964	207.9
2560.626	203.9
2564.285	201.9
2567.941	199.9
2571.594	204.9
2575.243	201.9
2578.89	188.9
2582.533	185.9
2586.173	183.9
2589.809	175.9
2593.443	183.9
2597.073	180.9
2600.701	168.9
2604.325	173.9
2607.946	174.9
2611.564	177.9
2615.178	175.9
2618.79	175.9
2622.398	173.9
2626.004	175.9
2629.606	169.9
2633.205	160.9
2636.801	164.9
2640.394	158.9
2643.983	158.9
2647.57	160.9
2651.153	158.9
2654.734	149.9
2658.311	146.9
2661.885	145.9
2665.456	148.9
2669.025	154.9
2672.589	131.9
2676.151	141.9
2679.71	146.9
2683.266	139.9
2686.819	146.9
2690.368	130.9
2693.915	130.9
2697.458	127.9
2700.999	126.9
2704.536	135.9
2708.071	115.9
2711.602	118.9
2715.13	126.9
2718.656	117.9
2722.178	116.9
2725.697	112.9
2729.214	107.9
2732.727	116.9
2736.237	117.9
2739.744	112.9
2743.249	112.9
2746.75	101.9
2750.248	106.9
2753.743	95.9
2757.236	98.9
2760.725	99.9
2764.211	95.9
2767.695	91.9
2771.175	87.9
2774.652	91.9
2778.127	84.9
2781.598	81.9
2785.067	94.9
2788.532	83.9
2791.995	86.9
2795.455	94.9
2798.911	87.9
2802.365	90.9
2805.816	93.9
2809.264	95.9
2812.709	93.9
2816.151	92.9
2819.59	94.9
2823.026	96.9
2826.46	89.9
2829.89	97.9
2833.318	82.9
2836.742	98.9
2840.164	90.9
2843.583	86.9
2846.999	94.9
2850.412	90.9
2853.822	92.9
2857.229	93.9
2860.634	101.9
2864.035	98.9
2867.434	109.9
2870.83	115.9
2874.223	121.9
2877.613	123.9
2881	129.9
2884.385	130.9
2887.766	129.9
2891.145	113.9
2894.521	125.9
2897.894	134.9
2901.264	129.9
2904.631	130.9
2907.996	139.9
2911.358	135.9
2914.717	140.9
2918.073	142.9
2921.426	147.9
2924.777	149.9
2928.124	150.9
2931.469	147.9
2934.811	203.9
2938.15	215.9
2941.487	186.9
2944.821	174.9
2948.152	172.9
2951.48	165.9
2954.805	171.9
2958.128	167.9
2961.447	162.9
2964.765	171.9
2968.079	158.9
2971.39	171.9
2974.699	175.9
2978.005	170.9
2981.308	169.9
2984.609	173.9
2987.907	165.9
2991.202	180.9
2994.494	179.9
2997.784	184.9
3001.07	194.9
3004.355	195.9
3007.636	190.9
3010.915	187.9
3014.191	198.9
3017.464	190.9
3020.734	198.9
3024.002	197.9
3027.267	215.9
3030.53	211.9
3033.789	216.9
3037.046	224.9
3040.301	226.9
3043.552	241.9
3046.801	241.9
3050.048	245.9
3053.291	249.9
3056.532	268.9
3059.771	275.9
3063.006	276.9
3066.239	288.9
3069.469	310.9
3072.697	306.9
3075.922	318.9
3079.144	331.9
3082.364	346.9
3085.581	349.9
3088.795	349.9
3092.007	357.9
3095.216	359.9
3098.423	369.9
3101.627	396.9
3104.828	401.9
3108.026	402.9
3111.222	409.9
3114.416	419.9
3117.607	432.9
3120.795	434.9
3123.98	444.9
3127.163	463.9
3130.344	477.9
3133.521	484.9
3136.696	505.9
3139.869	496.9
3143.039	511.9
3146.206	511.9
3149.371	524.9
3152.533	539.9
3155.693	519.9
3158.85	542.9
3162.005	545.9
3165.157	540.9
3168.306	553.9
3171.453	540.9
3174.597	548.9
3177.739	571.9
3180.878	562.9
3184.014	573.9
3187.149	575.9
3190.28	565.9
3193.409	571.9
3196.536	570.9
3199.659	575.9
3202.781	592.9
3205.9	586.9
3209.016	594.9
3212.13	590.9
3215.241	574.9
3218.35	588.9
3221.456	565.9
3224.56	564.9
3227.661	556.9
3230.76	539.9
3233.856	540.9
3236.95	537.9
3240.041	531.9
3243.13	519.9
3246.216	503.9
3249.3	509.9
3252.382	501.9
3255.46	497.9
3258.537	498.9
3261.611	477.9
3264.682	490.9
3267.751	478.9
3270.818	482.9
3273.882	475.9
3276.943	476.9
3280.002	472.9
3283.059	466.9
3286.113	456.9
3289.165	456.9
3292.214	440.9
3295.261	437.9
3298.306	417.9
3301.348	438.9
3304.387	416.9
3307.425	429.9
3310.459	431.9
3313.492	408.9
3316.521	409.9
3319.549	413.9
3322.574	387.9
3325.597	402.9
3328.617	396.9
3331.635	397.9
3334.65	394.9
3337.663	381.9
3340.674	390.9
3343.682	394.9
3346.688	381.9
3349.691	388.9
3352.692	385.9
3355.691	387.9
3358.687	373.9
3361.681	375.9
3364.673	368.9
3367.662	366.9
3370.649	354.9
3373.633	347.9
3376.615	336.9
3379.595	337.9
3382.572	336.9
3385.547	337.9
3388.52	331.9
3391.49	326.9
3394.458	319.9
3397.424	308.9
3400.387	309.9
3403.348	302.9
3406.307	291.9
3409.263	289.9
3412.217	291.9
3415.168	289.9
3418.118	279.9
3421.065	275.9
3424.009	282.9
3426.951	263.9
3429.891	257.9
3432.829	253.9
3435.764	246.9
3438.697	241.9
3441.628	233.9
3444.557	228.9
3447.483	209.9
3450.407	199.9
3453.328	198.9
3456.247	194.9
3459.164	185.9
3462.079	170.9
3464.991	163.9
3467.902	159.9
3470.809	154.9
3473.715	141.9
3476.618	137.9
3479.519	142.9
3482.418	126.9
3485.315	118.9
3488.209	108.9
3491.101	105.9
3493.99	109.9
3496.878	101.9
3499.763	92.9
3502.646	79.9
3505.527	88.9
3508.405	79.9
3511.281	68.9
3514.155	63.9
3517.027	60.9
3519.897	50.9
3522.764	47.9
3525.629	33.9
3528.492	29.9
3531.352	22.9
3534.211	14.9
3537.067	7.9
3539.921	13.9
3542.773	11.9
3545.622	0.9
3548.469	-7.1
3551.315	-0.1
3554.157	-13.1
3556.998	-23.1
3559.837	-20.1
3562.673	-19.1
3565.507	-21.1
3568.339	-31.1
3571.169	-34.1
3573.996	-32.1
3576.822	-36.1
3579.645	-42.1
3582.466	-41.1
3585.285	-51.1
3588.101	-39.1
3590.916	-52.1
3593.728	-58.1
3596.538	-63.1
3599.346	-62.1
3602.152	-60.1
3604.956	-66.1
3607.757	-63.1
3610.556	-68.1
3613.354	-62.1
3616.149	-81.1
3618.942	-74.1
3621.732	-80.1
3624.521	-75.1
3627.307	-74.1
3630.092	-79.1
3632.874	-73.1
3635.654	-83.1
3638.432	-83.1
3641.208	-88.1
3643.982	-97.1
3646.753	-93.1
3649.523	-98.1
3652.29	-91.1
3655.055	-91.1
3657.818	-91.1
3660.579	-91.1
3663.338	-96.1
3666.095	-104.1
3668.849	-104.1
3671.602	-97.1
3674.352	-102.1
3677.101	-110.1
3679.847	-105.1
3682.591	-112.1
3685.333	-105.1
3688.073	-103.1
3690.811	-107.1
3693.547	-118.1
3696.281	-109.1
3699.013	-107.1
3701.742	-117.1
3704.47	-113.1
3707.195	-105.1
3709.919	-116.1
3712.64	-119.1
3715.359	-123.1
3718.076	-116.1
3720.792	-112.1
3723.505	-120.1
3726.216	-114.1
3728.925	-122.1
3731.632	-120.1
3734.336	-128.1
3737.039	-114.1
3739.74	-124.1
3742.439	-127.1
3745.136	-116.1
3747.83	-127.1
3750.523	-124.1
3753.213	-122.1
3755.902	-121.1
3758.589	-122.1
3761.273	-120.1
3763.956	-119.1
3766.636	-125.1
3769.315	-122.1
3771.991	-123.1
3774.665	-126.1
3777.338	-119.1
3780.008	-122.1
3782.677	-122.1
3785.343	-123.1
3788.007	-132.1
3790.67	-132.1
3793.33	-123.1
3795.989	-123.1
3798.645	-118.1
3801.299	-126.1
3803.952	-130.1
3806.602	-119.1
3809.251	-131.1
3811.897	-134.1
3814.542	-133.1
3817.184	-120.1
3819.825	-121.1
3822.463	-125.1
3825.1	-121.1
3827.735	-124.1
3830.367	-130.1
3832.998	-132.1
3835.627	-130.1
3838.253	-124.1
3840.878	-126.1
3843.501	-120.1
3846.122	-127.1
3848.741	-133.1
3851.358	-122.1
3853.973	-132.1
3856.586	-124.1
3859.197	-128.1
3861.806	-121.1
3864.414	-125.1
3867.019	-125.1
3869.622	-128.1
3872.224	-113.1
3874.823	-99.1
3877.421	-89.1
3880.016	-59.1
3882.61	-32.1
3885.202	-33.1
3887.792	-51.1
3890.38	-83.1
3892.966	-115.1
3895.55	-121.1
3898.132	-124.1
3900.713	-129.1
3903.291	-128.1
3905.868	-127.1
3908.442	-120.1
3911.015	-130.1
3913.586	-133.1
3916.155	-131.1
3918.722	-131.1
3921.287	-126.1
3923.85	-130.1
3926.411	-128.1
3928.971	-129.1
3931.528	-134.1
3934.084	-128.1
3936.638	-125.1
3939.19	-136.1
3941.74	-131.1
3944.288	-125.1
3946.834	-127.1
3949.378	-131.1
3951.921	-128.1
3954.462	-136.1
3957	-127.1
3959.537	-126.1
3962.072	-125.1
3964.606	-123.1
3967.137	-126.1
3969.667	-134.1
3972.194	-135.1
3974.72	-135.1
3977.244	-135.1
3979.766	-134.1
3982.286	-125.1
3984.805	-128.1
3987.321	-123.1
3989.836	-122.1
3992.349	-126.1
3994.86	-129.1
3997.369	-130.1
3999.877	-129.1
4002.382	-122.1
4004.886	-127.1
4007.388	-127.1
4009.888	-123.1
4012.386	-133.1
4014.883	-134.1
4017.377	-128.1
4019.87	-124.1
4022.361	-126.1
4024.85	-127.1
4027.338	-123.1
4029.823	-122.1
4032.307	-126.1
4034.789	-132.1
4037.269	-130.1
4039.747	-130.1
4042.224	-122.1
4044.699	-128.1
4047.172	-119.1
4049.643	-123.1
4052.112	-123.1
4054.58	-130.1
4057.046	-126.1
4059.51	-129.1
4061.972	-129.1
4064.432	-127.1
4066.891	-125.1
4069.348	-123.1
4071.803	-129.1
4074.256	-127.1
4076.708	-126.1
4079.158	-125.1
4081.606	-125.1
4084.052	-129.1
4086.497	-127.1
4088.939	-118.1
4091.38	-127.1
4093.819	-127.1
4096.257	-134.1
4098.693	-135.1
4101.127	-129.1
4103.559	-132.1
4105.989	20.9
4108.418	20.9
4110.845	12.9
4113.27	15.9
4115.694	-0.1
4118.115	0.9
4120.535	-128.1
4122.954	-133.1
4125.37	-128.1
4127.785	-127.1
4130.198	-126.1
4132.609	-125.1
4135.019	-131.1
4137.427	-133.1
4139.833	-133.1
4142.237	-132.1
