Data from 2018-2-8_conc=6_n=8_RamanShift_02.txt Node
Date: Mon Mar 12 16:45:27 IST 2018
User: aro
Spectrometer: QEPB0276
Trigger mode: 0
Integration Time (sec): 3.000000E1
Scans to average: 1
Electric dark correction enabled: true
Nonlinearity correction enabled: false
Boxcar width: 0
XAxis mode: Raman Shifts
Number of Pixels in Spectrum: 1044
>>>>>Begin Spectral Data<<<<<
160.701	4.8
166.742	38.8
172.777	130.8
178.805	409.8
184.826	1113.8
190.841	2430.8
196.849	4062.8
202.85	5348.8
208.845	5844.8
214.833	5836.8
220.815	5774.8
226.789	5751.8
232.758	5736.8
238.719	5738.8
244.674	5684.8
250.623	5638.8
256.565	5570.8
262.5	5478.8
268.429	5393.8
274.351	5294.8
280.267	5278.8
286.176	5266.8
292.079	5235.8
297.975	5192.8
303.865	5184.8
309.748	5155.8
315.625	5158.8
321.495	5141.8
327.359	5103.8
333.217	5120.8
339.068	5157.8
344.912	5127.8
350.751	5135.8
356.583	5143.8
362.408	5162.8
368.227	5149.8
374.04	5175.8
379.847	5203.8
385.647	5192.8
391.44	5213.8
397.228	5253.8
403.009	5260.8
408.784	5275.8
414.553	5313.8
420.315	5294.8
426.071	5340.8
431.821	5354.8
437.565	5323.8
443.302	5308.8
449.033	5298.8
454.758	5280.8
460.477	5255.8
466.189	5239.8
471.896	5205.8
477.596	5141.8
483.29	5179.8
488.978	5167.8
494.66	5142.8
500.335	5048.8
506.005	4950.8
511.668	4831.8
517.325	4700.8
522.977	4592.8
528.622	4508.8
534.261	4460.8
539.894	4390.8
545.521	4404.8
551.141	4362.8
556.756	4342.8
562.365	4303.8
567.968	4273.8
573.565	4272.8
579.155	4241.8
584.74	4215.8
590.319	4207.8
595.892	4193.8
601.459	4197.8
607.02	4150.8
612.575	4155.8
618.124	4094.8
623.667	4063.8
629.204	4035.8
634.735	4010.8
640.261	3981.8
645.781	3947.8
651.294	3944.8
656.802	3972.8
662.304	3925.8
667.8	3917.8
673.29	3915.8
678.775	3896.8
684.254	3897.8
689.726	3855.8
695.193	3875.8
700.655	3848.8
706.11	3803.8
711.56	3805.8
717.004	3794.8
722.442	3766.8
727.874	3765.8
733.301	3699.8
738.722	3716.8
744.137	3721.8
749.547	3711.8
754.951	3691.8
760.349	3686.8
765.741	3703.8
771.128	3698.8
776.509	3718.8
781.885	3748.8
787.254	3753.8
792.618	3709.8
797.977	3762.8
803.33	3721.8
808.677	3681.8
814.019	3636.8
819.355	3639.8
824.686	3591.8
830.011	3589.8
835.33	3577.8
840.644	3589.8
845.952	3577.8
851.255	3566.8
856.552	3550.8
861.844	3535.8
867.13	3514.8
872.41	3498.8
877.686	3486.8
882.955	3464.8
888.219	3422.8
893.478	3379.8
898.731	3334.8
903.979	3317.8
909.221	3257.8
914.458	3264.8
919.69	3277.8
924.916	3283.8
930.136	3283.8
935.351	3274.8
940.561	3290.8
945.766	3279.8
950.965	3271.8
956.158	3236.8
961.347	3223.8
966.529	3159.8
971.707	3123.8
976.879	3067.8
982.046	3049.8
987.208	3057.8
992.364	3034.8
997.515	3038.8
1002.66	3071.8
1007.801	3094.8
1012.936	3137.8
1018.066	3123.8
1023.19	3148.8
1028.309	3131.8
1033.423	3127.8
1038.532	3127.8
1043.636	3089.8
1048.734	3056.8
1053.827	3037.8
1058.915	2972.8
1063.998	2947.8
1069.075	2947.8
1074.147	2949.8
1079.214	2956.8
1084.276	2967.8
1089.333	2983.8
1094.385	3007.8
1099.431	2984.8
1104.472	3015.8
1109.509	2983.8
1114.54	2955.8
1119.565	2927.8
1124.586	2864.8
1129.602	2815.8
1134.613	2837.8
1139.618	2791.8
1144.619	2793.8
1149.614	2777.8
1154.604	2805.8
1159.589	2796.8
1164.57	2788.8
1169.545	2798.8
1174.515	2812.8
1179.48	2763.8
1184.44	2750.8
1189.395	2743.8
1194.345	2728.8
1199.29	2725.8
1204.23	2705.8
1209.165	2716.8
1214.095	2716.8
1219.021	2748.8
1223.941	2741.8
1228.856	2791.8
1233.766	2793.8
1238.672	2809.8
1243.572	2773.8
1248.467	2764.8
1253.358	2721.8
1258.244	2701.8
1263.124	2634.8
1268	2609.8
1272.871	2579.8
1277.737	2567.8
1282.599	2540.8
1287.455	2554.8
1292.306	2556.8
1297.153	2550.8
1301.995	2578.8
1306.832	2574.8
1311.664	2591.8
1316.491	2598.8
1321.314	2596.8
1326.132	2574.8
1330.945	2550.8
1335.753	2522.8
1340.556	2483.8
1345.354	2461.8
1350.148	2405.8
1354.937	2360.8
1359.722	2328.8
1364.501	2293.8
1369.276	2274.8
1374.046	2220.8
1378.811	2203.8
1383.572	2200.8
1388.327	2197.8
1393.079	2190.8
1397.825	2197.8
1402.567	2208.8
1407.304	2184.8
1412.036	2185.8
1416.764	2197.8
1421.487	2206.8
1426.205	2189.8
1430.919	2209.8
1435.628	2215.8
1440.333	2242.8
1445.032	2222.8
1449.727	2269.8
1454.418	2287.8
1459.104	2270.8
1463.785	2238.8
1468.462	2205.8
1473.134	2151.8
1477.802	2104.8
1482.465	2090.8
1487.123	2034.8
1491.777	2019.8
1496.426	2012.8
1501.071	1986.8
1505.711	1950.8
1510.347	1974.8
1514.978	1956.8
1519.604	1944.8
1524.226	1962.8
1528.844	1929.8
1533.457	1930.8
1538.065	1921.8
1542.669	1930.8
1547.269	1931.8
1551.864	1918.8
1556.454	1931.8
1561.041	1943.8
1565.622	1958.8
1570.199	1994.8
1574.772	1997.8
1579.34	2012.8
1583.904	2038.8
1588.464	2025.8
1593.019	2071.8
1597.569	2076.8
1602.115	2050.8
1606.657	2061.8
1611.195	2043.8
1615.728	2048.8
1620.256	2030.8
1624.78	2023.8
1629.3	2054.8
1633.816	2057.8
1638.327	2067.8
1642.834	2051.8
1647.336	2080.8
1651.834	2091.8
1656.328	2078.8
1660.817	2059.8
1665.302	2057.8
1669.783	2017.8
1674.259	1982.8
1678.732	1925.8
1683.199	1876.8
1687.663	1786.8
1692.122	1751.8
1696.577	1659.8
1701.028	1605.8
1705.474	1567.8
1709.917	1516.8
1714.355	1497.8
1718.788	1499.8
1723.218	1480.8
1727.643	1470.8
1732.064	1470.8
1736.481	1459.8
1740.893	1434.8
1745.301	1402.8
1749.705	1387.8
1754.105	1347.8
1758.501	1330.8
1762.893	1293.8
1767.28	1293.8
1771.663	1280.8
1776.042	1267.8
1780.417	1249.8
1784.787	1235.8
1789.154	1223.8
1793.516	1210.8
1797.874	1194.8
1802.228	1190.8
1806.578	1189.8
1810.924	1164.8
1815.266	1156.8
1819.603	1146.8
1823.937	1144.8
1828.266	1143.8
1832.591	1160.8
1836.913	1153.8
1841.23	1165.8
1845.543	1154.8
1849.852	1138.8
1854.156	1150.8
1858.457	1132.8
1862.754	1150.8
1867.047	1149.8
1871.335	1169.8
1875.62	1147.8
1879.9	1144.8
1884.177	1125.8
1888.449	1124.8
1892.718	1110.8
1896.982	1101.8
1901.243	1072.8
1905.499	1069.8
1909.752	1056.8
1914	1036.8
1918.245	1025.8
1922.485	1006.8
1926.722	1006.8
1930.954	1014.8
1935.183	988.8
1939.408	1000.8
1943.628	984.8
1947.845	978.8
1952.058	975.8
1956.267	951.8
1960.472	945.8
1964.673	942.8
1968.87	946.8
1973.063	942.8
1977.252	905.8
1981.438	932.8
1985.619	934.8
1989.797	937.8
1993.971	946.8
1998.14	952.8
2002.306	924.8
2006.469	937.8
2010.627	939.8
2014.781	957.8
2018.932	934.8
2023.078	938.8
2027.221	939.8
2031.36	923.8
2035.495	902.8
2039.627	896.8
2043.754	881.8
2047.878	868.8
2051.998	875.8
2056.114	874.8
2060.226	859.8
2064.334	870.8
2068.439	865.8
2072.54	856.8
2076.637	853.8
2080.73	856.8
2084.82	841.8
2088.906	844.8
2092.988	835.8
2097.066	821.8
2101.14	814.8
2105.211	803.8
2109.278	785.8
2113.342	774.8
2117.401	782.8
2121.457	770.8
2125.509	763.8
2129.558	766.8
2133.602	759.8
2137.643	768.8
2141.681	767.8
2145.714	772.8
2149.744	763.8
2153.77	754.8
2157.793	761.8
2161.812	755.8
2165.827	749.8
2169.838	738.8
2173.846	723.8
2177.851	701.8
2181.851	696.8
2185.848	697.8
2189.841	686.8
2193.831	693.8
2197.817	687.8
2201.799	685.8
2205.778	685.8
2209.753	677.8
2213.725	671.8
2217.693	666.8
2221.657	680.8
2225.618	661.8
2229.575	671.8
2233.529	659.8
2237.479	656.8
2241.425	638.8
2245.368	626.8
2249.307	629.8
2253.243	627.8
2257.175	615.8
2261.104	601.8
2265.029	597.8
2268.95	587.8
2272.868	579.8
2276.783	572.8
2280.694	572.8
2284.601	568.8
2288.505	550.8
2292.405	554.8
2296.302	549.8
2300.195	526.8
2304.085	526.8
2307.971	510.8
2311.854	520.8
2315.734	504.8
2319.609	499.8
2323.482	502.8
2327.351	492.8
2331.216	499.8
2335.078	512.8
2338.937	496.8
2342.792	485.8
2346.643	470.8
2350.492	474.8
2354.336	475.8
2358.178	473.8
2362.015	471.8
2365.85	484.8
2369.681	481.8
2373.508	489.8
2377.333	485.8
2381.153	474.8
2384.971	474.8
2388.785	478.8
2392.595	474.8
2396.402	471.8
2400.206	459.8
2404.007	466.8
2407.804	466.8
2411.597	467.8
2415.388	463.8
2419.174	447.8
2422.958	442.8
2426.738	453.8
2430.515	442.8
2434.289	451.8
2438.059	438.8
2441.825	429.8
2445.589	440.8
2449.349	417.8
2453.106	425.8
2456.859	409.8
2460.61	419.8
2464.356	400.8
2468.1	410.8
2471.84	403.8
2475.577	426.8
2479.311	433.8
2483.041	378.8
2486.768	394.8
2490.492	385.8
2494.213	391.8
2497.93	381.8
2501.644	373.8
2505.355	368.8
2509.062	366.8
2512.766	372.8
2516.467	356.8
2520.165	353.8
2523.859	356.8
2527.551	347.8
2531.239	328.8
2534.923	340.8
2538.605	331.8
2542.283	326.8
2545.958	332.8
2549.63	325.8
2553.299	315.8
2556.964	332.8
2560.626	312.8
2564.285	308.8
2567.941	307.8
2571.594	299.8
2575.243	296.8
2578.89	289.8
2582.533	291.8
2586.173	292.8
2589.809	285.8
2593.443	286.8
2597.073	294.8
2600.701	269.8
2604.325	274.8
2607.946	272.8
2611.564	271.8
2615.178	283.8
2618.79	269.8
2622.398	273.8
2626.004	258.8
2629.606	266.8
2633.205	254.8
2636.801	250.8
2640.394	257.8
2643.983	256.8
2647.57	258.8
2651.153	251.8
2654.734	244.8
2658.311	232.8
2661.885	234.8
2665.456	236.8
2669.025	230.8
2672.589	236.8
2676.151	236.8
2679.71	239.8
2683.266	222.8
2686.819	231.8
2690.368	220.8
2693.915	203.8
2697.458	216.8
2700.999	217.8
2704.536	218.8
2708.071	200.8
2711.602	195.8
2715.13	197.8
2718.656	189.8
2722.178	184.8
2725.697	185.8
2729.214	183.8
2732.727	189.8
2736.237	176.8
2739.744	181.8
2743.249	178.8
2746.75	168.8
2750.248	171.8
2753.743	175.8
2757.236	164.8
2760.725	169.8
2764.211	160.8
2767.695	152.8
2771.175	149.8
2774.652	147.8
2778.127	156.8
2781.598	148.8
2785.067	155.8
2788.532	147.8
2791.995	146.8
2795.455	154.8
2798.911	142.8
2802.365	161.8
2805.816	156.8
2809.264	152.8
2812.709	158.8
2816.151	154.8
2819.59	156.8
2823.026	152.8
2826.46	147.8
2829.89	159.8
2833.318	148.8
2836.742	158.8
2840.164	147.8
2843.583	152.8
2846.999	162.8
2850.412	153.8
2853.822	159.8
2857.229	153.8
2860.634	168.8
2864.035	175.8
2867.434	175.8
2870.83	181.8
2874.223	182.8
2877.613	192.8
2881	199.8
2884.385	198.8
2887.766	183.8
2891.145	185.8
2894.521	204.8
2897.894	201.8
2901.264	196.8
2904.631	197.8
2907.996	206.8
2911.358	201.8
2914.717	210.8
2918.073	216.8
2921.426	219.8
2924.777	219.8
2928.124	229.8
2931.469	239.8
2934.811	235.8
2938.15	233.8
2941.487	246.8
2944.821	253.8
2948.152	240.8
2951.48	255.8
2954.805	251.8
2958.128	242.8
2961.447	244.8
2964.765	253.8
2968.079	243.8
2971.39	238.8
2974.699	250.8
2978.005	247.8
2981.308	251.8
2984.609	247.8
2987.907	252.8
2991.202	251.8
2994.494	253.8
2997.784	254.8
3001.07	263.8
3004.355	263.8
3007.636	261.8
3010.915	271.8
3014.191	273.8
3017.464	278.8
3020.734	273.8
3024.002	289.8
3027.267	292.8
3030.53	289.8
3033.789	301.8
3037.046	314.8
3040.301	312.8
3043.552	333.8
3046.801	336.8
3050.048	342.8
3053.291	358.8
3056.532	366.8
3059.771	377.8
3063.006	384.8
3066.239	413.8
3069.469	421.8
3072.697	426.8
3075.922	429.8
3079.144	439.8
3082.364	454.8
3085.581	473.8
3088.795	475.8
3092.007	490.8
3095.216	494.8
3098.423	498.8
3101.627	520.8
3104.828	530.8
3108.026	535.8
3111.222	557.8
3114.416	555.8
3117.607	570.8
3120.795	586.8
3123.98	588.8
3127.163	598.8
3130.344	620.8
3133.521	638.8
3136.696	653.8
3139.869	664.8
3143.039	665.8
3146.206	679.8
3149.371	690.8
3152.533	693.8
3155.693	703.8
3158.85	699.8
3162.005	723.8
3165.157	708.8
3168.306	724.8
3171.453	716.8
3174.597	732.8
3177.739	730.8
3180.878	743.8
3184.014	751.8
3187.149	746.8
3190.28	741.8
3193.409	741.8
3196.536	747.8
3199.659	753.8
3202.781	757.8
3205.9	763.8
3209.016	762.8
3212.13	758.8
3215.241	764.8
3218.35	746.8
3221.456	730.8
3224.56	726.8
3227.661	726.8
3230.76	716.8
3233.856	706.8
3236.95	704.8
3240.041	683.8
3243.13	663.8
3246.216	663.8
3249.3	634.8
3252.382	634.8
3255.46	649.8
3258.537	638.8
3261.611	621.8
3264.682	624.8
3267.751	622.8
3270.818	626.8
3273.882	620.8
3276.943	617.8
3280.002	603.8
3283.059	599.8
3286.113	606.8
3289.165	592.8
3292.214	587.8
3295.261	574.8
3298.306	567.8
3301.348	563.8
3304.387	554.8
3307.425	548.8
3310.459	547.8
3313.492	535.8
3316.521	533.8
3319.549	536.8
3322.574	521.8
3325.597	524.8
3328.617	521.8
3331.635	531.8
3334.65	520.8
3337.663	517.8
3340.674	517.8
3343.682	516.8
3346.688	513.8
3349.691	520.8
3352.692	503.8
3355.691	516.8
3358.687	488.8
3361.681	497.8
3364.673	484.8
3367.662	489.8
3370.649	480.8
3373.633	479.8
3376.615	456.8
3379.595	444.8
3382.572	443.8
3385.547	441.8
3388.52	446.8
3391.49	430.8
3394.458	415.8
3397.424	404.8
3400.387	399.8
3403.348	400.8
3406.307	396.8
3409.263	385.8
3412.217	384.8
3415.168	378.8
3418.118	378.8
3421.065	371.8
3424.009	366.8
3426.951	354.8
3429.891	352.8
3432.829	339.8
3435.764	327.8
3438.697	325.8
3441.628	317.8
3444.557	309.8
3447.483	299.8
3450.407	279.8
3453.328	266.8
3456.247	258.8
3459.164	248.8
3462.079	240.8
3464.991	237.8
3467.902	220.8
3470.809	224.8
3473.715	208.8
3476.618	201.8
3479.519	191.8
3482.418	193.8
3485.315	168.8
3488.209	164.8
3491.101	161.8
3493.99	160.8
3496.878	152.8
3499.763	138.8
3502.646	126.8
3505.527	119.8
3508.405	128.8
3511.281	104.8
3514.155	107.8
3517.027	94.8
3519.897	82.8
3522.764	67.8
3525.629	65.8
3528.492	57.8
3531.352	55.8
3534.211	36.8
3537.067	41.8
3539.921	40.8
3542.773	30.8
3545.622	13.8
3548.469	14.8
3551.315	9.8
3554.157	6.8
3556.998	-3.2
3559.837	0.8
3562.673	-7.2
3565.507	-13.2
3568.339	-19.2
3571.169	-28.2
3573.996	-19.2
3576.822	-27.2
3579.645	-28.2
3582.466	-25.2
3585.285	-43.2
3588.101	-35.2
3590.916	-52.2
3593.728	-51.2
3596.538	-52.2
3599.346	-52.2
3602.152	-52.2
3604.956	-60.2
3607.757	-57.2
3610.556	-70.2
3613.354	-60.2
3616.149	-70.2
3618.942	-82.2
3621.732	-72.2
3624.521	-79.2
3627.307	-72.2
3630.092	-79.2
3632.874	-82.2
3635.654	-84.2
3638.432	-79.2
3641.208	-82.2
3643.982	-87.2
3646.753	-88.2
3649.523	-93.2
3652.29	-95.2
3655.055	-99.2
3657.818	-98.2
3660.579	-95.2
3663.338	-98.2
3666.095	-98.2
3668.849	-103.2
3671.602	-103.2
3674.352	-102.2
3677.101	-112.2
3679.847	-110.2
3682.591	-110.2
3685.333	-105.2
3688.073	-109.2
3690.811	-113.2
3693.547	-121.2
3696.281	-117.2
3699.013	-121.2
3701.742	-119.2
3704.47	-118.2
3707.195	-116.2
3709.919	-117.2
3712.64	-122.2
3715.359	-122.2
3718.076	-127.2
3720.792	-123.2
3723.505	-131.2
3726.216	-122.2
3728.925	-127.2
3731.632	-123.2
3734.336	-129.2
3737.039	-125.2
3739.74	-132.2
3742.439	-135.2
3745.136	-128.2
3747.83	-134.2
3750.523	-130.2
3753.213	-129.2
3755.902	-126.2
3758.589	-132.2
3761.273	-123.2
3763.956	-127.2
3766.636	-134.2
3769.315	-131.2
3771.991	-125.2
3774.665	-131.2
3777.338	-126.2
3780.008	-129.2
3782.677	-133.2
3785.343	-129.2
3788.007	-132.2
3790.67	-136.2
3793.33	-127.2
3795.989	-130.2
3798.645	-130.2
3801.299	-131.2
3803.952	-135.2
3806.602	-134.2
3809.251	-142.2
3811.897	-141.2
3814.542	-138.2
3817.184	-130.2
3819.825	-132.2
3822.463	-133.2
3825.1	-133.2
3827.735	-135.2
3830.367	-137.2
3832.998	-139.2
3835.627	-137.2
3838.253	-133.2
3840.878	-131.2
3843.501	-135.2
3846.122	-138.2
3848.741	-139.2
3851.358	-133.2
3853.973	-141.2
3856.586	-134.2
3859.197	-145.2
3861.806	-131.2
3864.414	-139.2
3867.019	-135.2
3869.622	-140.2
3872.224	-128.2
3874.823	-126.2
3877.421	-116.2
3880.016	-95.2
3882.61	-82.2
3885.202	-88.2
3887.792	-96.2
3890.38	-119.2
3892.966	-134.2
3895.55	-131.2
3898.132	-139.2
3900.713	-133.2
3903.291	-139.2
3905.868	-138.2
3908.442	-138.2
3911.015	-139.2
3913.586	-141.2
3916.155	-144.2
3918.722	-142.2
3921.287	-137.2
3923.85	-135.2
3926.411	-137.2
3928.971	-137.2
3931.528	-145.2
3934.084	-137.2
3936.638	-135.2
3939.19	-143.2
3941.74	-140.2
3944.288	-136.2
3946.834	-133.2
3949.378	-138.2
3951.921	-140.2
3954.462	-149.2
3957	-141.2
3959.537	-138.2
3962.072	-142.2
3964.606	-133.2
3967.137	-134.2
3969.667	-140.2
3972.194	-146.2
3974.72	-139.2
3977.244	-144.2
3979.766	-137.2
3982.286	-133.2
3984.805	-139.2
3987.321	-135.2
3989.836	-132.2
3992.349	-140.2
3994.86	-140.2
3997.369	-144.2
3999.877	-130.2
4002.382	-134.2
4004.886	-138.2
4007.388	-136.2
4009.888	-134.2
4012.386	-144.2
4014.883	-138.2
4017.377	-136.2
4019.87	-137.2
4022.361	-142.2
4024.85	-138.2
4027.338	-139.2
4029.823	-137.2
4032.307	-130.2
4034.789	-139.2
4037.269	-136.2
4039.747	-133.2
4042.224	-134.2
4044.699	-137.2
4047.172	-137.2
4049.643	-132.2
4052.112	-139.2
4054.58	-141.2
4057.046	-134.2
4059.51	-139.2
4061.972	-132.2
4064.432	-135.2
4066.891	-138.2
4069.348	-135.2
4071.803	-145.2
4074.256	-140.2
4076.708	-135.2
4079.158	-137.2
4081.606	-130.2
4084.052	-137.2
4086.497	-137.2
4088.939	-130.2
4091.38	-133.2
4093.819	-137.2
4096.257	-147.2
4098.693	-141.2
4101.127	-144.2
4103.559	-140.2
4105.989	-20.2
4108.418	-25.2
4110.845	-23.2
4113.27	-23.2
4115.694	-25.2
4118.115	-25.2
4120.535	-143.2
4122.954	-138.2
4125.37	-135.2
4127.785	-137.2
4130.198	-136.2
4132.609	-137.2
4135.019	-148.2
4137.427	-146.2
4139.833	-143.2
4142.237	-146.2
