Data from 2018-2-8_conc=5_n=7_RamanShift_02.txt Node
Date: Mon Mar 12 16:10:58 IST 2018
User: aro
Spectrometer: QEPB0276
Trigger mode: 0
Integration Time (sec): 3.000000E1
Scans to average: 1
Electric dark correction enabled: true
Nonlinearity correction enabled: false
Boxcar width: 0
XAxis mode: Raman Shifts
Number of Pixels in Spectrum: 1044
>>>>>Begin Spectral Data<<<<<
160.701	27.8
166.742	48.8
172.777	119.8
178.805	349.8
184.826	934.8
190.841	1988.8
196.849	3300.8
202.85	4336.8
208.845	4722.8
214.833	4723.8
220.815	4661.8
226.789	4681.8
232.758	4658.8
238.719	4682.8
244.674	4649.8
250.623	4591.8
256.565	4550.8
262.5	4473.8
268.429	4446.8
274.351	4404.8
280.267	4371.8
286.176	4346.8
292.079	4344.8
297.975	4309.8
303.865	4354.8
309.748	4368.8
315.625	4295.8
321.495	4283.8
327.359	4308.8
333.217	4314.8
339.068	4346.8
344.912	4327.8
350.751	4350.8
356.583	4351.8
362.408	4351.8
368.227	4349.8
374.04	4371.8
379.847	4387.8
385.647	4409.8
391.44	4422.8
397.228	4450.8
403.009	4496.8
408.784	4521.8
414.553	4512.8
420.315	4538.8
426.071	4537.8
431.821	4542.8
437.565	4555.8
443.302	4538.8
449.033	4515.8
454.758	4511.8
460.477	4459.8
466.189	4430.8
471.896	4393.8
477.596	4364.8
483.29	4320.8
488.978	4369.8
494.66	4326.8
500.335	4252.8
506.005	4166.8
511.668	3996.8
517.325	3875.8
522.977	3736.8
528.622	3686.8
534.261	3598.8
539.894	3560.8
545.521	3501.8
551.141	3491.8
556.756	3470.8
562.365	3436.8
567.968	3408.8
573.565	3409.8
579.155	3391.8
584.74	3394.8
590.319	3356.8
595.892	3353.8
601.459	3374.8
607.02	3352.8
612.575	3326.8
618.124	3291.8
623.667	3257.8
629.204	3219.8
634.735	3169.8
640.261	3149.8
645.781	3150.8
651.294	3140.8
656.802	3138.8
662.304	3117.8
667.8	3100.8
673.29	3096.8
678.775	3080.8
684.254	3069.8
689.726	3063.8
695.193	3059.8
700.655	3034.8
706.11	3035.8
711.56	2999.8
717.004	2981.8
722.442	2980.8
727.874	2950.8
733.301	2930.8
738.722	2925.8
744.137	2900.8
749.547	2922.8
754.951	2927.8
760.349	2915.8
765.741	2943.8
771.128	2940.8
776.509	2974.8
781.885	2981.8
787.254	3007.8
792.618	2992.8
797.977	2993.8
803.33	2959.8
808.677	2949.8
814.019	2921.8
819.355	2923.8
824.686	2875.8
830.011	2864.8
835.33	2860.8
840.644	2848.8
845.952	2824.8
851.255	2838.8
856.552	2800.8
861.844	2798.8
867.13	2793.8
872.41	2778.8
877.686	2762.8
882.955	2748.8
888.219	2686.8
893.478	2673.8
898.731	2628.8
903.979	2610.8
909.221	2569.8
914.458	2572.8
919.69	2584.8
924.916	2574.8
930.136	2574.8
935.351	2540.8
940.561	2587.8
945.766	2584.8
950.965	2570.8
956.158	2541.8
961.347	2529.8
966.529	2493.8
971.707	2447.8
976.879	2410.8
982.046	2373.8
987.208	2382.8
992.364	2403.8
997.515	2411.8
1002.66	2426.8
1007.801	2446.8
1012.936	2456.8
1018.066	2446.8
1023.19	2454.8
1028.309	2482.8
1033.423	2489.8
1038.532	2442.8
1043.636	2419.8
1048.734	2417.8
1053.827	2391.8
1058.915	2345.8
1063.998	2365.8
1069.075	2333.8
1074.147	2347.8
1079.214	2343.8
1084.276	2362.8
1089.333	2352.8
1094.385	2376.8
1099.431	2356.8
1104.472	2350.8
1109.509	2355.8
1114.54	2307.8
1119.565	2263.8
1124.586	2244.8
1129.602	2223.8
1134.613	2206.8
1139.618	2193.8
1144.619	2193.8
1149.614	2199.8
1154.604	2183.8
1159.589	2225.8
1164.57	2192.8
1169.545	2211.8
1174.515	2212.8
1179.48	2192.8
1184.44	2176.8
1189.395	2150.8
1194.345	2154.8
1199.29	2113.8
1204.23	2116.8
1209.165	2143.8
1214.095	2156.8
1219.021	2164.8
1223.941	2170.8
1228.856	2178.8
1233.766	2168.8
1238.672	2192.8
1243.572	2167.8
1248.467	2173.8
1253.358	2160.8
1258.244	2107.8
1263.124	2050.8
1268	2030.8
1272.871	2014.8
1277.737	2003.8
1282.599	1965.8
1287.455	1984.8
1292.306	1979.8
1297.153	1987.8
1301.995	2013.8
1306.832	2018.8
1311.664	2030.8
1316.491	2031.8
1321.314	2029.8
1326.132	2037.8
1330.945	2003.8
1335.753	1984.8
1340.556	1951.8
1345.354	1913.8
1350.148	1893.8
1354.937	1859.8
1359.722	1823.8
1364.501	1818.8
1369.276	1769.8
1374.046	1750.8
1378.811	1732.8
1383.572	1730.8
1388.327	1710.8
1393.079	1719.8
1397.825	1707.8
1402.567	1689.8
1407.304	1711.8
1412.036	1689.8
1416.764	1714.8
1421.487	1725.8
1426.205	1733.8
1430.919	1711.8
1435.628	1722.8
1440.333	1722.8
1445.032	1772.8
1449.727	1796.8
1454.418	1793.8
1459.104	1794.8
1463.785	1754.8
1468.462	1728.8
1473.134	1731.8
1477.802	1652.8
1482.465	1608.8
1487.123	1596.8
1491.777	1578.8
1496.426	1570.8
1501.071	1559.8
1505.711	1552.8
1510.347	1543.8
1514.978	1566.8
1519.604	1559.8
1524.226	1561.8
1528.844	1533.8
1533.457	1532.8
1538.065	1523.8
1542.669	1517.8
1547.269	1487.8
1551.864	1518.8
1556.454	1533.8
1561.041	1550.8
1565.622	1552.8
1570.199	1526.8
1574.772	1563.8
1579.34	1579.8
1583.904	1583.8
1588.464	1609.8
1593.019	1621.8
1597.569	1619.8
1602.115	1610.8
1606.657	1598.8
1611.195	1609.8
1615.728	1590.8
1620.256	1590.8
1624.78	1579.8
1629.3	1609.8
1633.816	1600.8
1638.327	1621.8
1642.834	1617.8
1647.336	1620.8
1651.834	1613.8
1656.328	1625.8
1660.817	1639.8
1665.302	1620.8
1669.783	1564.8
1674.259	1538.8
1678.732	1510.8
1683.199	1469.8
1687.663	1437.8
1692.122	1384.8
1696.577	1345.8
1701.028	1279.8
1705.474	1252.8
1709.917	1187.8
1714.355	1188.8
1718.788	1149.8
1723.218	1164.8
1727.643	1163.8
1732.064	1164.8
1736.481	1163.8
1740.893	1119.8
1745.301	1099.8
1749.705	1080.8
1754.105	1064.8
1758.501	1028.8
1762.893	1030.8
1767.28	1020.8
1771.663	1000.8
1776.042	999.8
1780.417	1002.8
1784.787	978.8
1789.154	977.8
1793.516	966.8
1797.874	948.8
1802.228	947.8
1806.578	941.8
1810.924	921.8
1815.266	898.8
1819.603	910.8
1823.937	903.8
1828.266	902.8
1832.591	905.8
1836.913	887.8
1841.23	906.8
1845.543	901.8
1849.852	902.8
1854.156	898.8
1858.457	898.8
1862.754	895.8
1867.047	910.8
1871.335	902.8
1875.62	902.8
1879.9	894.8
1884.177	887.8
1888.449	887.8
1892.718	878.8
1896.982	864.8
1901.243	857.8
1905.499	855.8
1909.752	836.8
1914	827.8
1918.245	832.8
1922.485	811.8
1926.722	811.8
1930.954	801.8
1935.183	794.8
1939.408	780.8
1943.628	792.8
1947.845	775.8
1952.058	774.8
1956.267	772.8
1960.472	763.8
1964.673	755.8
1968.87	733.8
1973.063	728.8
1977.252	728.8
1981.438	737.8
1985.619	736.8
1989.797	725.8
1993.971	736.8
1998.14	737.8
2002.306	737.8
2006.469	734.8
2010.627	740.8
2014.781	743.8
2018.932	751.8
2023.078	745.8
2027.221	727.8
2031.36	724.8
2035.495	708.8
2039.627	706.8
2043.754	692.8
2047.878	684.8
2051.998	697.8
2056.114	679.8
2060.226	678.8
2064.334	676.8
2068.439	672.8
2072.54	677.8
2076.637	670.8
2080.73	658.8
2084.82	664.8
2088.906	663.8
2092.988	655.8
2097.066	654.8
2101.14	630.8
2105.211	623.8
2109.278	612.8
2113.342	614.8
2117.401	608.8
2121.457	602.8
2125.509	593.8
2129.558	610.8
2133.602	607.8
2137.643	603.8
2141.681	591.8
2145.714	593.8
2149.744	599.8
2153.77	597.8
2157.793	583.8
2161.812	577.8
2165.827	582.8
2169.838	580.8
2173.846	559.8
2177.851	543.8
2181.851	551.8
2185.848	532.8
2189.841	531.8
2193.831	539.8
2197.817	531.8
2201.799	517.8
2205.778	523.8
2209.753	508.8
2213.725	512.8
2217.693	522.8
2221.657	512.8
2225.618	530.8
2229.575	522.8
2233.529	510.8
2237.479	496.8
2241.425	495.8
2245.368	485.8
2249.307	478.8
2253.243	470.8
2257.175	470.8
2261.104	453.8
2265.029	451.8
2268.95	461.8
2272.868	441.8
2276.783	442.8
2280.694	431.8
2284.601	428.8
2288.505	415.8
2292.405	421.8
2296.302	407.8
2300.195	410.8
2304.085	400.8
2307.971	391.8
2311.854	398.8
2315.734	373.8
2319.609	377.8
2323.482	383.8
2327.351	379.8
2331.216	386.8
2335.078	404.8
2338.937	372.8
2342.792	365.8
2346.643	352.8
2350.492	365.8
2354.336	348.8
2358.178	366.8
2362.015	359.8
2365.85	358.8
2369.681	358.8
2373.508	379.8
2377.333	365.8
2381.153	356.8
2384.971	366.8
2388.785	359.8
2392.595	356.8
2396.402	342.8
2400.206	346.8
2404.007	355.8
2407.804	342.8
2411.597	336.8
2415.388	337.8
2419.174	340.8
2422.958	331.8
2426.738	339.8
2430.515	332.8
2434.289	327.8
2438.059	318.8
2441.825	319.8
2445.589	317.8
2449.349	311.8
2453.106	304.8
2456.859	307.8
2460.61	311.8
2464.356	298.8
2468.1	290.8
2471.84	292.8
2475.577	285.8
2479.311	281.8
2483.041	280.8
2486.768	287.8
2490.492	278.8
2494.213	284.8
2497.93	270.8
2501.644	278.8
2505.355	275.8
2509.062	280.8
2512.766	271.8
2516.467	257.8
2520.165	265.8
2523.859	262.8
2527.551	249.8
2531.239	243.8
2534.923	245.8
2538.605	243.8
2542.283	251.8
2545.958	246.8
2549.63	239.8
2553.299	232.8
2556.964	243.8
2560.626	221.8
2564.285	223.8
2567.941	232.8
2571.594	220.8
2575.243	219.8
2578.89	224.8
2582.533	211.8
2586.173	210.8
2589.809	200.8
2593.443	210.8
2597.073	209.8
2600.701	200.8
2604.325	192.8
2607.946	196.8
2611.564	199.8
2615.178	196.8
2618.79	189.8
2622.398	195.8
2626.004	184.8
2629.606	187.8
2633.205	186.8
2636.801	187.8
2640.394	188.8
2643.983	169.8
2647.57	177.8
2651.153	177.8
2654.734	178.8
2658.311	160.8
2661.885	167.8
2665.456	176.8
2669.025	178.8
2672.589	167.8
2676.151	157.8
2679.71	162.8
2683.266	166.8
2686.819	161.8
2690.368	157.8
2693.915	144.8
2697.458	143.8
2700.999	152.8
2704.536	141.8
2708.071	137.8
2711.602	132.8
2715.13	138.8
2718.656	132.8
2722.178	133.8
2725.697	130.8
2729.214	123.8
2732.727	131.8
2736.237	128.8
2739.744	121.8
2743.249	114.8
2746.75	120.8
2750.248	117.8
2753.743	117.8
2757.236	111.8
2760.725	120.8
2764.211	102.8
2767.695	98.8
2771.175	96.8
2774.652	95.8
2778.127	105.8
2781.598	105.8
2785.067	104.8
2788.532	97.8
2791.995	103.8
2795.455	102.8
2798.911	105.8
2802.365	109.8
2805.816	106.8
2809.264	100.8
2812.709	107.8
2816.151	105.8
2819.59	100.8
2823.026	105.8
2826.46	99.8
2829.89	101.8
2833.318	98.8
2836.742	103.8
2840.164	99.8
2843.583	104.8
2846.999	100.8
2850.412	102.8
2853.822	106.8
2857.229	95.8
2860.634	116.8
2864.035	118.8
2867.434	121.8
2870.83	117.8
2874.223	132.8
2877.613	133.8
2881	141.8
2884.385	145.8
2887.766	135.8
2891.145	127.8
2894.521	139.8
2897.894	142.8
2901.264	140.8
2904.631	148.8
2907.996	146.8
2911.358	140.8
2914.717	143.8
2918.073	156.8
2921.426	152.8
2924.777	161.8
2928.124	160.8
2931.469	159.8
2934.811	172.8
2938.15	168.8
2941.487	181.8
2944.821	174.8
2948.152	179.8
2951.48	176.8
2954.805	184.8
2958.128	176.8
2961.447	170.8
2964.765	176.8
2968.079	164.8
2971.39	174.8
2974.699	173.8
2978.005	172.8
2981.308	179.8
2984.609	176.8
2987.907	179.8
2991.202	188.8
2994.494	192.8
2997.784	189.8
3001.07	187.8
3004.355	195.8
3007.636	200.8
3010.915	192.8
3014.191	192.8
3017.464	200.8
3020.734	202.8
3024.002	199.8
3027.267	215.8
3030.53	205.8
3033.789	211.8
3037.046	220.8
3040.301	227.8
3043.552	238.8
3046.801	248.8
3050.048	241.8
3053.291	247.8
3056.532	260.8
3059.771	277.8
3063.006	284.8
3066.239	309.8
3069.469	308.8
3072.697	304.8
3075.922	311.8
3079.144	329.8
3082.364	336.8
3085.581	349.8
3088.795	346.8
3092.007	364.8
3095.216	371.8
3098.423	371.8
3101.627	380.8
3104.828	392.8
3108.026	401.8
3111.222	418.8
3114.416	416.8
3117.607	433.8
3120.795	427.8
3123.98	443.8
3127.163	448.8
3130.344	468.8
3133.521	479.8
3136.696	488.8
3139.869	491.8
3143.039	503.8
3146.206	508.8
3149.371	517.8
3152.533	525.8
3155.693	530.8
3158.85	556.8
3162.005	543.8
3165.157	534.8
3168.306	535.8
3171.453	546.8
3174.597	548.8
3177.739	546.8
3180.878	565.8
3184.014	559.8
3187.149	552.8
3190.28	569.8
3193.409	568.8
3196.536	562.8
3199.659	559.8
3202.781	575.8
3205.9	570.8
3209.016	570.8
3212.13	565.8
3215.241	562.8
3218.35	558.8
3221.456	553.8
3224.56	557.8
3227.661	559.8
3230.76	538.8
3233.856	528.8
3236.95	517.8
3240.041	510.8
3243.13	508.8
3246.216	495.8
3249.3	487.8
3252.382	495.8
3255.46	485.8
3258.537	484.8
3261.611	460.8
3264.682	466.8
3267.751	466.8
3270.818	462.8
3273.882	463.8
3276.943	452.8
3280.002	454.8
3283.059	450.8
3286.113	450.8
3289.165	452.8
3292.214	442.8
3295.261	426.8
3298.306	433.8
3301.348	408.8
3304.387	408.8
3307.425	411.8
3310.459	404.8
3313.492	396.8
3316.521	392.8
3319.549	392.8
3322.574	397.8
3325.597	388.8
3328.617	396.8
3331.635	371.8
3334.65	395.8
3337.663	375.8
3340.674	379.8
3343.682	378.8
3346.688	372.8
3349.691	382.8
3352.692	382.8
3355.691	365.8
3358.687	366.8
3361.681	371.8
3364.673	360.8
3367.662	350.8
3370.649	337.8
3373.633	347.8
3376.615	321.8
3379.595	321.8
3382.572	325.8
3385.547	327.8
3388.52	318.8
3391.49	303.8
3394.458	314.8
3397.424	301.8
3400.387	294.8
3403.348	286.8
3406.307	284.8
3409.263	285.8
3412.217	280.8
3415.168	280.8
3418.118	279.8
3421.065	272.8
3424.009	261.8
3426.951	262.8
3429.891	250.8
3432.829	247.8
3435.764	250.8
3438.697	229.8
3441.628	222.8
3444.557	219.8
3447.483	204.8
3450.407	192.8
3453.328	188.8
3456.247	187.8
3459.164	168.8
3462.079	164.8
3464.991	158.8
3467.902	143.8
3470.809	153.8
3473.715	137.8
3476.618	139.8
3479.519	130.8
3482.418	122.8
3485.315	111.8
3488.209	103.8
3491.101	97.8
3493.99	111.8
3496.878	89.8
3499.763	84.8
3502.646	91.8
3505.527	76.8
3508.405	76.8
3511.281	72.8
3514.155	57.8
3517.027	49.8
3519.897	42.8
3522.764	36.8
3525.629	29.8
3528.492	28.8
3531.352	21.8
3534.211	16.8
3537.067	6.8
3539.921	9.8
3542.773	1.8
3545.622	-3.2
3548.469	-7.2
3551.315	-10.2
3554.157	-22.2
3556.998	-17.2
3559.837	-12.2
3562.673	-26.2
3565.507	-24.2
3568.339	-35.2
3571.169	-45.2
3573.996	-28.2
3576.822	-39.2
3579.645	-41.2
3582.466	-44.2
3585.285	-51.2
3588.101	-42.2
3590.916	-55.2
3593.728	-63.2
3596.538	-60.2
3599.346	-59.2
3602.152	-62.2
3604.956	-66.2
3607.757	-61.2
3610.556	-73.2
3613.354	-68.2
3616.149	-81.2
3618.942	-80.2
3621.732	-77.2
3624.521	-83.2
3627.307	-85.2
3630.092	-84.2
3632.874	-80.2
3635.654	-88.2
3638.432	-87.2
3641.208	-81.2
3643.982	-89.2
3646.753	-92.2
3649.523	-98.2
3652.29	-99.2
3655.055	-90.2
3657.818	-95.2
3660.579	-94.2
3663.338	-99.2
3666.095	-97.2
3668.849	-99.2
3671.602	-104.2
3674.352	-106.2
3677.101	-111.2
3679.847	-105.2
3682.591	-113.2
3685.333	-105.2
3688.073	-106.2
3690.811	-110.2
3693.547	-115.2
3696.281	-116.2
3699.013	-116.2
3701.742	-118.2
3704.47	-114.2
3707.195	-111.2
3709.919	-117.2
3712.64	-119.2
3715.359	-122.2
3718.076	-123.2
3720.792	-118.2
3723.505	-124.2
3726.216	-119.2
3728.925	-122.2
3731.632	-121.2
3734.336	-124.2
3737.039	-123.2
3739.74	-126.2
3742.439	-129.2
3745.136	-122.2
3747.83	-124.2
3750.523	-124.2
3753.213	-133.2
3755.902	-126.2
3758.589	-130.2
3761.273	-119.2
3763.956	-118.2
3766.636	-127.2
3769.315	-121.2
3771.991	-123.2
3774.665	-125.2
3777.338	-119.2
3780.008	-126.2
3782.677	-127.2
3785.343	-124.2
3788.007	-128.2
3790.67	-126.2
3793.33	-121.2
3795.989	-132.2
3798.645	-120.2
3801.299	-124.2
3803.952	-133.2
3806.602	-127.2
3809.251	-134.2
3811.897	-133.2
3814.542	-130.2
3817.184	-119.2
3819.825	-127.2
3822.463	-126.2
3825.1	-130.2
3827.735	-134.2
3830.367	-134.2
3832.998	-131.2
3835.627	-129.2
3838.253	-129.2
3840.878	-127.2
3843.501	-121.2
3846.122	-134.2
3848.741	-136.2
3851.358	-126.2
3853.973	-135.2
3856.586	-127.2
3859.197	-137.2
3861.806	-123.2
3864.414	-133.2
3867.019	-124.2
3869.622	-129.2
3872.224	-117.2
3874.823	-105.2
3877.421	-98.2
3880.016	-68.2
3882.61	-41.2
3885.202	-46.2
3887.792	-65.2
3890.38	-91.2
3892.966	-113.2
3895.55	-125.2
3898.132	-125.2
3900.713	-129.2
3903.291	-136.2
3905.868	-130.2
3908.442	-129.2
3911.015	-137.2
3913.586	-132.2
3916.155	-133.2
3918.722	-130.2
3921.287	-126.2
3923.85	-128.2
3926.411	-134.2
3928.971	-134.2
3931.528	-133.2
3934.084	-130.2
3936.638	-128.2
3939.19	-133.2
3941.74	-136.2
3944.288	-132.2
3946.834	-135.2
3949.378	-136.2
3951.921	-133.2
3954.462	-140.2
3957	-129.2
3959.537	-129.2
3962.072	-134.2
3964.606	-127.2
3967.137	-131.2
3969.667	-134.2
3972.194	-137.2
3974.72	-128.2
3977.244	-132.2
3979.766	-130.2
3982.286	-131.2
3984.805	-130.2
3987.321	-126.2
3989.836	-125.2
3992.349	-135.2
3994.86	-131.2
3997.369	-135.2
3999.877	-129.2
4002.382	-124.2
4004.886	-134.2
4007.388	-132.2
4009.888	-127.2
4012.386	-132.2
4014.883	-130.2
4017.377	-126.2
4019.87	-129.2
4022.361	-130.2
4024.85	-132.2
4027.338	-129.2
4029.823	-125.2
4032.307	-129.2
4034.789	-131.2
4037.269	-132.2
4039.747	-124.2
4042.224	-128.2
4044.699	-129.2
4047.172	-131.2
4049.643	-127.2
4052.112	-129.2
4054.58	-127.2
4057.046	-126.2
4059.51	-131.2
4061.972	-130.2
4064.432	-127.2
4066.891	-132.2
4069.348	-125.2
4071.803	-133.2
4074.256	-131.2
4076.708	-126.2
4079.158	-132.2
4081.606	-124.2
4084.052	-126.2
4086.497	-130.2
4088.939	-122.2
4091.38	-131.2
4093.819	-130.2
4096.257	-139.2
4098.693	-131.2
4101.127	-135.2
4103.559	-134.2
4105.989	26.8
4108.418	23.8
4110.845	13.8
4113.27	15.8
4115.694	10.8
4118.115	2.8
4120.535	-128.2
4122.954	-131.2
4125.37	-127.2
4127.785	-129.2
4130.198	-131.2
4132.609	-132.2
4135.019	-138.2
4137.427	-137.2
4139.833	-135.2
4142.237	-135.2
