Data from 2018-2-8_conc=4_n=1_RamanShift_03.txt Node
Date: Mon Mar 12 15:09:28 IST 2018
User: aro
Spectrometer: QEPB0276
Trigger mode: 0
Integration Time (sec): 3.000000E1
Scans to average: 1
Electric dark correction enabled: true
Nonlinearity correction enabled: false
Boxcar width: 0
XAxis mode: Raman Shifts
Number of Pixels in Spectrum: 1044
>>>>>Begin Spectral Data<<<<<
160.701	23.5
166.742	57.5
172.777	138.5
178.805	421.5
184.826	1111.5
190.841	2365.5
196.849	3924.5
202.85	5122.5
208.845	5558.5
214.833	5542.5
220.815	5498.5
226.789	5476.5
232.758	5481.5
238.719	5462.5
244.674	5401.5
250.623	5365.5
256.565	5310.5
262.5	5243.5
268.429	5162.5
274.351	5113.5
280.267	5044.5
286.176	5035.5
292.079	5019.5
297.975	5002.5
303.865	4973.5
309.748	4953.5
315.625	4956.5
321.495	4924.5
327.359	4953.5
333.217	4924.5
339.068	4934.5
344.912	4968.5
350.751	4961.5
356.583	4994.5
362.408	4987.5
368.227	4988.5
374.04	5002.5
379.847	5039.5
385.647	5023.5
391.44	5058.5
397.228	5098.5
403.009	5096.5
408.784	5115.5
414.553	5166.5
420.315	5159.5
426.071	5193.5
431.821	5162.5
437.565	5160.5
443.302	5128.5
449.033	5137.5
454.758	5116.5
460.477	5115.5
466.189	5067.5
471.896	5025.5
477.596	5038.5
483.29	4993.5
488.978	4963.5
494.66	4953.5
500.335	4878.5
506.005	4780.5
511.668	4619.5
517.325	4512.5
522.977	4377.5
528.622	4300.5
534.261	4236.5
539.894	4175.5
545.521	4134.5
551.141	4115.5
556.756	4085.5
562.365	4088.5
567.968	4028.5
573.565	4000.5
579.155	3998.5
584.74	3976.5
590.319	3949.5
595.892	3958.5
601.459	3944.5
607.02	3934.5
612.575	3883.5
618.124	3855.5
623.667	3817.5
629.204	3794.5
634.735	3739.5
640.261	3718.5
645.781	3717.5
651.294	3707.5
656.802	3696.5
662.304	3685.5
667.8	3662.5
673.29	3668.5
678.775	3664.5
684.254	3659.5
689.726	3629.5
695.193	3630.5
700.655	3589.5
706.11	3584.5
711.56	3566.5
717.004	3537.5
722.442	3509.5
727.874	3512.5
733.301	3501.5
738.722	3484.5
744.137	3480.5
749.547	3449.5
754.951	3450.5
760.349	3474.5
765.741	3466.5
771.128	3476.5
776.509	3488.5
781.885	3524.5
787.254	3538.5
792.618	3532.5
797.977	3504.5
803.33	3502.5
808.677	3451.5
814.019	3439.5
819.355	3424.5
824.686	3399.5
830.011	3403.5
835.33	3362.5
840.644	3354.5
845.952	3360.5
851.255	3358.5
856.552	3327.5
861.844	3337.5
867.13	3305.5
872.41	3302.5
877.686	3261.5
882.955	3215.5
888.219	3221.5
893.478	3153.5
898.731	3126.5
903.979	3077.5
909.221	3057.5
914.458	3049.5
919.69	3012.5
924.916	3042.5
930.136	3040.5
935.351	3050.5
940.561	3076.5
945.766	3020.5
950.965	3034.5
956.158	2990.5
961.347	2982.5
966.529	2946.5
971.707	2897.5
976.879	2863.5
982.046	2832.5
987.208	2837.5
992.364	2853.5
997.515	2848.5
1002.66	2859.5
1007.801	2896.5
1012.936	2907.5
1018.066	2913.5
1023.19	2897.5
1028.309	2909.5
1033.423	2914.5
1038.532	2895.5
1043.636	2868.5
1048.734	2833.5
1053.827	2818.5
1058.915	2772.5
1063.998	2752.5
1069.075	2748.5
1074.147	2733.5
1079.214	2757.5
1084.276	2757.5
1089.333	2758.5
1094.385	2775.5
1099.431	2771.5
1104.472	2782.5
1109.509	2770.5
1114.54	2716.5
1119.565	2702.5
1124.586	2655.5
1129.602	2624.5
1134.613	2613.5
1139.618	2591.5
1144.619	2568.5
1149.614	2579.5
1154.604	2587.5
1159.589	2568.5
1164.57	2579.5
1169.545	2581.5
1174.515	2593.5
1179.48	2571.5
1184.44	2565.5
1189.395	2539.5
1194.345	2509.5
1199.29	2496.5
1204.23	2519.5
1209.165	2489.5
1214.095	2521.5
1219.021	2548.5
1223.941	2531.5
1228.856	2563.5
1233.766	2560.5
1238.672	2554.5
1243.572	2559.5
1248.467	2520.5
1253.358	2527.5
1258.244	2488.5
1263.124	2436.5
1268	2389.5
1272.871	2374.5
1277.737	2330.5
1282.599	2330.5
1287.455	2335.5
1292.306	2332.5
1297.153	2351.5
1301.995	2349.5
1306.832	2362.5
1311.664	2390.5
1316.491	2382.5
1321.314	2386.5
1326.132	2354.5
1330.945	2353.5
1335.753	2303.5
1340.556	2285.5
1345.354	2227.5
1350.148	2217.5
1354.937	2174.5
1359.722	2141.5
1364.501	2103.5
1369.276	2091.5
1374.046	2055.5
1378.811	2033.5
1383.572	2017.5
1388.327	2027.5
1393.079	2010.5
1397.825	2018.5
1402.567	2034.5
1407.304	2022.5
1412.036	1998.5
1416.764	2014.5
1421.487	1998.5
1426.205	2020.5
1430.919	2001.5
1435.628	2049.5
1440.333	2071.5
1445.032	2065.5
1449.727	2077.5
1454.418	2082.5
1459.104	2080.5
1463.785	2057.5
1468.462	2017.5
1473.134	1979.5
1477.802	1949.5
1482.465	1902.5
1487.123	1870.5
1491.777	1844.5
1496.426	1831.5
1501.071	1797.5
1505.711	1807.5
1510.347	1805.5
1514.978	1808.5
1519.604	1804.5
1524.226	1776.5
1528.844	1793.5
1533.457	1765.5
1538.065	1777.5
1542.669	1763.5
1547.269	1769.5
1551.864	1763.5
1556.454	1792.5
1561.041	1806.5
1565.622	1811.5
1570.199	1791.5
1574.772	1815.5
1579.34	1858.5
1583.904	1885.5
1588.464	1889.5
1593.019	1890.5
1597.569	1900.5
1602.115	1875.5
1606.657	1873.5
1611.195	1889.5
1615.728	1870.5
1620.256	1866.5
1624.78	1872.5
1629.3	1872.5
1633.816	1871.5
1638.327	1892.5
1642.834	1886.5
1647.336	1907.5
1651.834	1903.5
1656.328	1913.5
1660.817	1898.5
1665.302	1869.5
1669.783	1856.5
1674.259	1805.5
1678.732	1768.5
1683.199	1727.5
1687.663	1672.5
1692.122	1605.5
1696.577	1556.5
1701.028	1486.5
1705.474	1428.5
1709.917	1392.5
1714.355	1368.5
1718.788	1368.5
1723.218	1348.5
1727.643	1337.5
1732.064	1326.5
1736.481	1302.5
1740.893	1295.5
1745.301	1261.5
1749.705	1257.5
1754.105	1215.5
1758.501	1206.5
1762.893	1199.5
1767.28	1185.5
1771.663	1165.5
1776.042	1160.5
1780.417	1139.5
1784.787	1133.5
1789.154	1130.5
1793.516	1118.5
1797.874	1097.5
1802.228	1095.5
1806.578	1068.5
1810.924	1048.5
1815.266	1050.5
1819.603	1045.5
1823.937	1054.5
1828.266	1041.5
1832.591	1040.5
1836.913	1048.5
1841.23	1038.5
1845.543	1038.5
1849.852	1030.5
1854.156	1035.5
1858.457	1031.5
1862.754	1027.5
1867.047	1044.5
1871.335	1046.5
1875.62	1038.5
1879.9	1023.5
1884.177	1022.5
1888.449	1016.5
1892.718	1005.5
1896.982	983.5
1901.243	984.5
1905.499	972.5
1909.752	949.5
1914	935.5
1918.245	934.5
1922.485	934.5
1926.722	902.5
1930.954	911.5
1935.183	904.5
1939.408	904.5
1943.628	898.5
1947.845	875.5
1952.058	883.5
1956.267	890.5
1960.472	881.5
1964.673	866.5
1968.87	844.5
1973.063	862.5
1977.252	847.5
1981.438	848.5
1985.619	842.5
1989.797	835.5
1993.971	844.5
1998.14	859.5
2002.306	848.5
2006.469	852.5
2010.627	844.5
2014.781	854.5
2018.932	853.5
2023.078	861.5
2027.221	845.5
2031.36	833.5
2035.495	815.5
2039.627	796.5
2043.754	773.5
2047.878	788.5
2051.998	790.5
2056.114	790.5
2060.226	778.5
2064.334	766.5
2068.439	762.5
2072.54	758.5
2076.637	761.5
2080.73	768.5
2084.82	763.5
2088.906	755.5
2092.988	749.5
2097.066	749.5
2101.14	727.5
2105.211	716.5
2109.278	721.5
2113.342	704.5
2117.401	702.5
2121.457	689.5
2125.509	693.5
2129.558	681.5
2133.602	706.5
2137.643	695.5
2141.681	682.5
2145.714	680.5
2149.744	679.5
2153.77	688.5
2157.793	678.5
2161.812	668.5
2165.827	665.5
2169.838	663.5
2173.846	645.5
2177.851	630.5
2181.851	610.5
2185.848	616.5
2189.841	622.5
2193.831	618.5
2197.817	605.5
2201.799	592.5
2205.778	597.5
2209.753	593.5
2213.725	591.5
2217.693	590.5
2221.657	595.5
2225.618	584.5
2229.575	593.5
2233.529	571.5
2237.479	572.5
2241.425	569.5
2245.368	559.5
2249.307	552.5
2253.243	557.5
2257.175	544.5
2261.104	534.5
2265.029	526.5
2268.95	524.5
2272.868	498.5
2276.783	490.5
2280.694	496.5
2284.601	490.5
2288.505	498.5
2292.405	480.5
2296.302	473.5
2300.195	469.5
2304.085	455.5
2307.971	434.5
2311.854	457.5
2315.734	436.5
2319.609	427.5
2323.482	430.5
2327.351	427.5
2331.216	443.5
2335.078	450.5
2338.937	419.5
2342.792	417.5
2346.643	409.5
2350.492	403.5
2354.336	401.5
2358.178	404.5
2362.015	410.5
2365.85	409.5
2369.681	405.5
2373.508	402.5
2377.333	403.5
2381.153	407.5
2384.971	417.5
2388.785	401.5
2392.595	396.5
2396.402	379.5
2400.206	388.5
2404.007	382.5
2407.804	380.5
2411.597	371.5
2415.388	375.5
2419.174	379.5
2422.958	365.5
2426.738	372.5
2430.515	379.5
2434.289	364.5
2438.059	363.5
2441.825	355.5
2445.589	359.5
2449.349	343.5
2453.106	347.5
2456.859	332.5
2460.61	339.5
2464.356	324.5
2468.1	321.5
2471.84	322.5
2475.577	330.5
2479.311	316.5
2483.041	301.5
2486.768	313.5
2490.492	313.5
2494.213	313.5
2497.93	308.5
2501.644	308.5
2505.355	303.5
2509.062	309.5
2512.766	299.5
2516.467	283.5
2520.165	285.5
2523.859	274.5
2527.551	277.5
2531.239	271.5
2534.923	262.5
2538.605	256.5
2542.283	255.5
2545.958	262.5
2549.63	262.5
2553.299	261.5
2556.964	251.5
2560.626	245.5
2564.285	241.5
2567.941	245.5
2571.594	244.5
2575.243	239.5
2578.89	233.5
2582.533	226.5
2586.173	225.5
2589.809	221.5
2593.443	225.5
2597.073	215.5
2600.701	212.5
2604.325	204.5
2607.946	215.5
2611.564	210.5
2615.178	227.5
2618.79	215.5
2622.398	211.5
2626.004	216.5
2629.606	206.5
2633.205	198.5
2636.801	193.5
2640.394	203.5
2643.983	194.5
2647.57	193.5
2651.153	198.5
2654.734	190.5
2658.311	177.5
2661.885	184.5
2665.456	175.5
2669.025	183.5
2672.589	182.5
2676.151	184.5
2679.71	180.5
2683.266	165.5
2686.819	167.5
2690.368	163.5
2693.915	153.5
2697.458	152.5
2700.999	164.5
2704.536	156.5
2708.071	153.5
2711.602	149.5
2715.13	152.5
2718.656	147.5
2722.178	136.5
2725.697	144.5
2729.214	133.5
2732.727	142.5
2736.237	139.5
2739.744	127.5
2743.249	131.5
2746.75	127.5
2750.248	119.5
2753.743	122.5
2757.236	124.5
2760.725	115.5
2764.211	108.5
2767.695	111.5
2771.175	104.5
2774.652	105.5
2778.127	104.5
2781.598	116.5
2785.067	119.5
2788.532	105.5
2791.995	104.5
2795.455	111.5
2798.911	100.5
2802.365	112.5
2805.816	116.5
2809.264	112.5
2812.709	117.5
2816.151	110.5
2819.59	118.5
2823.026	107.5
2826.46	105.5
2829.89	106.5
2833.318	108.5
2836.742	110.5
2840.164	116.5
2843.583	114.5
2846.999	112.5
2850.412	115.5
2853.822	114.5
2857.229	119.5
2860.634	126.5
2864.035	132.5
2867.434	135.5
2870.83	140.5
2874.223	152.5
2877.613	152.5
2881	156.5
2884.385	153.5
2887.766	153.5
2891.145	157.5
2894.521	164.5
2897.894	164.5
2901.264	164.5
2904.631	166.5
2907.996	160.5
2911.358	167.5
2914.717	166.5
2918.073	169.5
2921.426	180.5
2924.777	187.5
2928.124	194.5
2931.469	185.5
2934.811	190.5
2938.15	192.5
2941.487	218.5
2944.821	212.5
2948.152	206.5
2951.48	212.5
2954.805	207.5
2958.128	204.5
2961.447	205.5
2964.765	201.5
2968.079	208.5
2971.39	197.5
2974.699	205.5
2978.005	212.5
2981.308	216.5
2984.609	213.5
2987.907	213.5
2991.202	227.5
2994.494	220.5
2997.784	228.5
3001.07	225.5
3004.355	227.5
3007.636	230.5
3010.915	237.5
3014.191	236.5
3017.464	255.5
3020.734	245.5
3024.002	246.5
3027.267	262.5
3030.53	262.5
3033.789	274.5
3037.046	267.5
3040.301	273.5
3043.552	288.5
3046.801	303.5
3050.048	306.5
3053.291	314.5
3056.532	330.5
3059.771	344.5
3063.006	355.5
3066.239	374.5
3069.469	378.5
3072.697	383.5
3075.922	398.5
3079.144	405.5
3082.364	417.5
3085.581	439.5
3088.795	442.5
3092.007	445.5
3095.216	460.5
3098.423	472.5
3101.627	482.5
3104.828	478.5
3108.026	488.5
3111.222	513.5
3114.416	511.5
3117.607	528.5
3120.795	524.5
3123.98	541.5
3127.163	562.5
3130.344	600.5
3133.521	582.5
3136.696	612.5
3139.869	615.5
3143.039	627.5
3146.206	620.5
3149.371	647.5
3152.533	658.5
3155.693	670.5
3158.85	667.5
3162.005	673.5
3165.157	675.5
3168.306	682.5
3171.453	668.5
3174.597	673.5
3177.739	692.5
3180.878	705.5
3184.014	695.5
3187.149	704.5
3190.28	713.5
3193.409	692.5
3196.536	704.5
3199.659	719.5
3202.781	722.5
3205.9	724.5
3209.016	720.5
3212.13	719.5
3215.241	704.5
3218.35	704.5
3221.456	695.5
3224.56	692.5
3227.661	694.5
3230.76	677.5
3233.856	667.5
3236.95	657.5
3240.041	651.5
3243.13	625.5
3246.216	623.5
3249.3	609.5
3252.382	612.5
3255.46	613.5
3258.537	606.5
3261.611	590.5
3264.682	575.5
3267.751	586.5
3270.818	581.5
3273.882	577.5
3276.943	572.5
3280.002	587.5
3283.059	566.5
3286.113	574.5
3289.165	568.5
3292.214	556.5
3295.261	540.5
3298.306	538.5
3301.348	523.5
3304.387	523.5
3307.425	517.5
3310.459	498.5
3313.492	505.5
3316.521	494.5
3319.549	497.5
3322.574	499.5
3325.597	490.5
3328.617	486.5
3331.635	489.5
3334.65	480.5
3337.663	474.5
3340.674	490.5
3343.682	473.5
3346.688	461.5
3349.691	477.5
3352.692	471.5
3355.691	469.5
3358.687	456.5
3361.681	457.5
3364.673	452.5
3367.662	449.5
3370.649	436.5
3373.633	434.5
3376.615	419.5
3379.595	416.5
3382.572	418.5
3385.547	404.5
3388.52	402.5
3391.49	388.5
3394.458	391.5
3397.424	381.5
3400.387	375.5
3403.348	366.5
3406.307	355.5
3409.263	354.5
3412.217	352.5
3415.168	346.5
3418.118	341.5
3421.065	343.5
3424.009	337.5
3426.951	333.5
3429.891	316.5
3432.829	300.5
3435.764	312.5
3438.697	290.5
3441.628	289.5
3444.557	273.5
3447.483	274.5
3450.407	243.5
3453.328	241.5
3456.247	239.5
3459.164	227.5
3462.079	215.5
3464.991	204.5
3467.902	204.5
3470.809	194.5
3473.715	171.5
3476.618	186.5
3479.519	172.5
3482.418	164.5
3485.315	144.5
3488.209	152.5
3491.101	137.5
3493.99	146.5
3496.878	133.5
3499.763	117.5
3502.646	113.5
3505.527	106.5
3508.405	97.5
3511.281	99.5
3514.155	87.5
3517.027	77.5
3519.897	66.5
3522.764	56.5
3525.629	47.5
3528.492	46.5
3531.352	38.5
3534.211	27.5
3537.067	28.5
3539.921	22.5
3542.773	15.5
3545.622	-0.5
3548.469	-1.5
3551.315	1.5
3554.157	-10.5
3556.998	-12.5
3559.837	-13.5
3562.673	-18.5
3565.507	-22.5
3568.339	-33.5
3571.169	-41.5
3573.996	-39.5
3576.822	-37.5
3579.645	-46.5
3582.466	-40.5
3585.285	-43.5
3588.101	-44.5
3590.916	-57.5
3593.728	-71.5
3596.538	-63.5
3599.346	-68.5
3602.152	-64.5
3604.956	-63.5
3607.757	-68.5
3610.556	-76.5
3613.354	-70.5
3616.149	-88.5
3618.942	-88.5
3621.732	-87.5
3624.521	-89.5
3627.307	-89.5
3630.092	-89.5
3632.874	-88.5
3635.654	-99.5
3638.432	-95.5
3641.208	-106.5
3643.982	-105.5
3646.753	-104.5
3649.523	-105.5
3652.29	-103.5
3655.055	-109.5
3657.818	-107.5
3660.579	-113.5
3663.338	-106.5
3666.095	-115.5
3668.849	-120.5
3671.602	-117.5
3674.352	-118.5
3677.101	-118.5
3679.847	-119.5
3682.591	-127.5
3685.333	-121.5
3688.073	-124.5
3690.811	-129.5
3693.547	-137.5
3696.281	-133.5
3699.013	-127.5
3701.742	-133.5
3704.47	-130.5
3707.195	-128.5
3709.919	-136.5
3712.64	-142.5
3715.359	-140.5
3718.076	-133.5
3720.792	-135.5
3723.505	-141.5
3726.216	-132.5
3728.925	-139.5
3731.632	-137.5
3734.336	-151.5
3737.039	-139.5
3739.74	-141.5
3742.439	-149.5
3745.136	-138.5
3747.83	-147.5
3750.523	-146.5
3753.213	-149.5
3755.902	-141.5
3758.589	-151.5
3761.273	-139.5
3763.956	-142.5
3766.636	-145.5
3769.315	-137.5
3771.991	-146.5
3774.665	-149.5
3777.338	-141.5
3780.008	-145.5
3782.677	-145.5
3785.343	-146.5
3788.007	-146.5
3790.67	-148.5
3793.33	-140.5
3795.989	-149.5
3798.645	-143.5
3801.299	-152.5
3803.952	-149.5
3806.602	-142.5
3809.251	-153.5
3811.897	-150.5
3814.542	-151.5
3817.184	-144.5
3819.825	-146.5
3822.463	-146.5
3825.1	-143.5
3827.735	-148.5
3830.367	-152.5
3832.998	-157.5
3835.627	-155.5
3838.253	-150.5
3840.878	-149.5
3843.501	-143.5
3846.122	-148.5
3848.741	-152.5
3851.358	-146.5
3853.973	-155.5
3856.586	-151.5
3859.197	-159.5
3861.806	-147.5
3864.414	-153.5
3867.019	-143.5
3869.622	-147.5
3872.224	-132.5
3874.823	-123.5
3877.421	-113.5
3880.016	-85.5
3882.61	-61.5
3885.202	-48.5
3887.792	-71.5
3890.38	-104.5
3892.966	-133.5
3895.55	-140.5
3898.132	-148.5
3900.713	-150.5
3903.291	-156.5
3905.868	-154.5
3908.442	-147.5
3911.015	-149.5
3913.586	-159.5
3916.155	-155.5
3918.722	-158.5
3921.287	-152.5
3923.85	-151.5
3926.411	-153.5
3928.971	-150.5
3931.528	-158.5
3934.084	-153.5
3936.638	-148.5
3939.19	-160.5
3941.74	-158.5
3944.288	-152.5
3946.834	-147.5
3949.378	-148.5
3951.921	-157.5
3954.462	-157.5
3957	-155.5
3959.537	-151.5
3962.072	-150.5
3964.606	-147.5
3967.137	-150.5
3969.667	-152.5
3972.194	-158.5
3974.72	-155.5
3977.244	-157.5
3979.766	-152.5
3982.286	-152.5
3984.805	-151.5
3987.321	-148.5
3989.836	-141.5
3992.349	-150.5
3994.86	-155.5
3997.369	-152.5
3999.877	-150.5
4002.382	-143.5
4004.886	-152.5
4007.388	-150.5
4009.888	-148.5
4012.386	-149.5
4014.883	-153.5
4017.377	-151.5
4019.87	-146.5
4022.361	-151.5
4024.85	-149.5
4027.338	-148.5
4029.823	-149.5
4032.307	-150.5
4034.789	-152.5
4037.269	-150.5
4039.747	-152.5
4042.224	-145.5
4044.699	-150.5
4047.172	-147.5
4049.643	-147.5
4052.112	-148.5
4054.58	-153.5
4057.046	-151.5
4059.51	-149.5
4061.972	-151.5
4064.432	-150.5
4066.891	-148.5
4069.348	-152.5
4071.803	-158.5
4074.256	-154.5
4076.708	-145.5
4079.158	-147.5
4081.606	-143.5
4084.052	-151.5
4086.497	-148.5
4088.939	-145.5
4091.38	-154.5
4093.819	-155.5
4096.257	-158.5
4098.693	-157.5
4101.127	-157.5
4103.559	-153.5
4105.989	18.5
4108.418	11.5
4110.845	12.5
4113.27	4.5
4115.694	8.5
4118.115	-1.5
4120.535	-153.5
4122.954	-153.5
4125.37	-146.5
4127.785	-148.5
4130.198	-151.5
4132.609	-146.5
4135.019	-160.5
4137.427	-161.5
4139.833	-157.5
4142.237	-161.5
