Data from 2018-2-8_conc=3_n=2_RamanShift_04.txt Node
Date: Mon Mar 12 14:33:28 IST 2018
User: aro
Spectrometer: QEPB0276
Trigger mode: 0
Integration Time (sec): 3.000000E1
Scans to average: 1
Electric dark correction enabled: true
Nonlinearity correction enabled: false
Boxcar width: 0
XAxis mode: Raman Shifts
Number of Pixels in Spectrum: 1044
>>>>>Begin Spectral Data<<<<<
160.701	12.8
166.742	47.8
172.777	120.8
178.805	408.8
184.826	1120.8
190.841	2399.8
196.849	4019.8
202.85	5303.8
208.845	5773.8
214.833	5798.8
220.815	5685.8
226.789	5678.8
232.758	5710.8
238.719	5710.8
244.674	5610.8
250.623	5565.8
256.565	5483.8
262.5	5393.8
268.429	5323.8
274.351	5264.8
280.267	5198.8
286.176	5171.8
292.079	5148.8
297.975	5129.8
303.865	5129.8
309.748	5099.8
315.625	5065.8
321.495	5080.8
327.359	5026.8
333.217	5042.8
339.068	5068.8
344.912	5078.8
350.751	5080.8
356.583	5061.8
362.408	5053.8
368.227	5097.8
374.04	5104.8
379.847	5117.8
385.647	5130.8
391.44	5122.8
397.228	5178.8
403.009	5188.8
408.784	5216.8
414.553	5225.8
420.315	5233.8
426.071	5242.8
431.821	5238.8
437.565	5236.8
443.302	5222.8
449.033	5215.8
454.758	5199.8
460.477	5133.8
466.189	5158.8
471.896	5120.8
477.596	5075.8
483.29	5071.8
488.978	5068.8
494.66	5029.8
500.335	4960.8
506.005	4859.8
511.668	4713.8
517.325	4586.8
522.977	4528.8
528.622	4465.8
534.261	4373.8
539.894	4326.8
545.521	4298.8
551.141	4242.8
556.756	4222.8
562.365	4219.8
567.968	4172.8
573.565	4139.8
579.155	4139.8
584.74	4106.8
590.319	4125.8
595.892	4098.8
601.459	4081.8
607.02	4086.8
612.575	4039.8
618.124	4026.8
623.667	3956.8
629.204	3935.8
634.735	3887.8
640.261	3875.8
645.781	3856.8
651.294	3866.8
656.802	3848.8
662.304	3824.8
667.8	3818.8
673.29	3828.8
678.775	3830.8
684.254	3771.8
689.726	3763.8
695.193	3784.8
700.655	3740.8
706.11	3737.8
711.56	3703.8
717.004	3680.8
722.442	3688.8
727.874	3663.8
733.301	3631.8
738.722	3624.8
744.137	3626.8
749.547	3607.8
754.951	3610.8
760.349	3622.8
765.741	3619.8
771.128	3604.8
776.509	3661.8
781.885	3652.8
787.254	3658.8
792.618	3652.8
797.977	3647.8
803.33	3603.8
808.677	3599.8
814.019	3556.8
819.355	3550.8
824.686	3560.8
830.011	3509.8
835.33	3502.8
840.644	3468.8
845.952	3472.8
851.255	3474.8
856.552	3479.8
861.844	3441.8
867.13	3439.8
872.41	3436.8
877.686	3390.8
882.955	3371.8
888.219	3339.8
893.478	3311.8
898.731	3268.8
903.979	3207.8
909.221	3201.8
914.458	3161.8
919.69	3157.8
924.916	3171.8
930.136	3189.8
935.351	3190.8
940.561	3204.8
945.766	3181.8
950.965	3176.8
956.158	3137.8
961.347	3113.8
966.529	3084.8
971.707	3048.8
976.879	2995.8
982.046	2967.8
987.208	2958.8
992.364	2966.8
997.515	2973.8
1002.66	2996.8
1007.801	3026.8
1012.936	3042.8
1018.066	3052.8
1023.19	3039.8
1028.309	3035.8
1033.423	3041.8
1038.532	3056.8
1043.636	3030.8
1048.734	2990.8
1053.827	2933.8
1058.915	2880.8
1063.998	2892.8
1069.075	2884.8
1074.147	2891.8
1079.214	2859.8
1084.276	2932.8
1089.333	2923.8
1094.385	2920.8
1099.431	2924.8
1104.472	2912.8
1109.509	2904.8
1114.54	2888.8
1119.565	2852.8
1124.586	2807.8
1129.602	2739.8
1134.613	2749.8
1139.618	2717.8
1144.619	2717.8
1149.614	2718.8
1154.604	2729.8
1159.589	2735.8
1164.57	2731.8
1169.545	2744.8
1174.515	2741.8
1179.48	2734.8
1184.44	2709.8
1189.395	2684.8
1194.345	2669.8
1199.29	2630.8
1204.23	2639.8
1209.165	2647.8
1214.095	2658.8
1219.021	2655.8
1223.941	2701.8
1228.856	2701.8
1233.766	2731.8
1238.672	2723.8
1243.572	2729.8
1248.467	2678.8
1253.358	2679.8
1258.244	2620.8
1263.124	2570.8
1268	2522.8
1272.871	2519.8
1277.737	2475.8
1282.599	2462.8
1287.455	2465.8
1292.306	2472.8
1297.153	2491.8
1301.995	2516.8
1306.832	2506.8
1311.664	2541.8
1316.491	2530.8
1321.314	2517.8
1326.132	2539.8
1330.945	2496.8
1335.753	2449.8
1340.556	2424.8
1345.354	2392.8
1350.148	2337.8
1354.937	2314.8
1359.722	2263.8
1364.501	2236.8
1369.276	2171.8
1374.046	2141.8
1378.811	2107.8
1383.572	2123.8
1388.327	2095.8
1393.079	2104.8
1397.825	2090.8
1402.567	2111.8
1407.304	2127.8
1412.036	2115.8
1416.764	2147.8
1421.487	2126.8
1426.205	2135.8
1430.919	2140.8
1435.628	2163.8
1440.333	2159.8
1445.032	2189.8
1449.727	2221.8
1454.418	2218.8
1459.104	2216.8
1463.785	2163.8
1468.462	2149.8
1473.134	2108.8
1477.802	2063.8
1482.465	2009.8
1487.123	1968.8
1491.777	1954.8
1496.426	1924.8
1501.071	1903.8
1505.711	1895.8
1510.347	1892.8
1514.978	1888.8
1519.604	1871.8
1524.226	1874.8
1528.844	1854.8
1533.457	1851.8
1538.065	1846.8
1542.669	1841.8
1547.269	1843.8
1551.864	1846.8
1556.454	1867.8
1561.041	1886.8
1565.622	1897.8
1570.199	1893.8
1574.772	1914.8
1579.34	1946.8
1583.904	1951.8
1588.464	1991.8
1593.019	1982.8
1597.569	1970.8
1602.115	1998.8
1606.657	1992.8
1611.195	1965.8
1615.728	1991.8
1620.256	1971.8
1624.78	1974.8
1629.3	1985.8
1633.816	1982.8
1638.327	1995.8
1642.834	1989.8
1647.336	2006.8
1651.834	2011.8
1656.328	2021.8
1660.817	2020.8
1665.302	1987.8
1669.783	1932.8
1674.259	1898.8
1678.732	1853.8
1683.199	1799.8
1687.663	1749.8
1692.122	1686.8
1696.577	1630.8
1701.028	1548.8
1705.474	1509.8
1709.917	1451.8
1714.355	1420.8
1718.788	1406.8
1723.218	1386.8
1727.643	1411.8
1732.064	1398.8
1736.481	1393.8
1740.893	1374.8
1745.301	1337.8
1749.705	1312.8
1754.105	1288.8
1758.501	1268.8
1762.893	1236.8
1767.28	1222.8
1771.663	1217.8
1776.042	1189.8
1780.417	1190.8
1784.787	1188.8
1789.154	1175.8
1793.516	1173.8
1797.874	1135.8
1802.228	1105.8
1806.578	1104.8
1810.924	1100.8
1815.266	1092.8
1819.603	1102.8
1823.937	1087.8
1828.266	1076.8
1832.591	1083.8
1836.913	1086.8
1841.23	1097.8
1845.543	1091.8
1849.852	1094.8
1854.156	1082.8
1858.457	1099.8
1862.754	1094.8
1867.047	1084.8
1871.335	1102.8
1875.62	1081.8
1879.9	1090.8
1884.177	1072.8
1888.449	1068.8
1892.718	1040.8
1896.982	1052.8
1901.243	1033.8
1905.499	1014.8
1909.752	998.8
1914	983.8
1918.245	998.8
1922.485	967.8
1926.722	955.8
1930.954	962.8
1935.183	953.8
1939.408	945.8
1943.628	944.8
1947.845	928.8
1952.058	914.8
1956.267	913.8
1960.472	909.8
1964.673	890.8
1968.87	893.8
1973.063	887.8
1977.252	873.8
1981.438	881.8
1985.619	881.8
1989.797	884.8
1993.971	884.8
1998.14	884.8
2002.306	886.8
2006.469	894.8
2010.627	889.8
2014.781	900.8
2018.932	878.8
2023.078	882.8
2027.221	875.8
2031.36	872.8
2035.495	862.8
2039.627	842.8
2043.754	829.8
2047.878	829.8
2051.998	822.8
2056.114	821.8
2060.226	817.8
2064.334	805.8
2068.439	807.8
2072.54	814.8
2076.637	807.8
2080.73	798.8
2084.82	798.8
2088.906	792.8
2092.988	780.8
2097.066	774.8
2101.14	761.8
2105.211	757.8
2109.278	762.8
2113.342	735.8
2117.401	735.8
2121.457	728.8
2125.509	718.8
2129.558	723.8
2133.602	727.8
2137.643	716.8
2141.681	722.8
2145.714	717.8
2149.744	719.8
2153.77	723.8
2157.793	717.8
2161.812	707.8
2165.827	705.8
2169.838	692.8
2173.846	688.8
2177.851	660.8
2181.851	661.8
2185.848	656.8
2189.841	651.8
2193.831	649.8
2197.817	639.8
2201.799	650.8
2205.778	642.8
2209.753	636.8
2213.725	642.8
2217.693	639.8
2221.657	633.8
2225.618	641.8
2229.575	628.8
2233.529	611.8
2237.479	610.8
2241.425	606.8
2245.368	603.8
2249.307	593.8
2253.243	597.8
2257.175	573.8
2261.104	576.8
2265.029	564.8
2268.95	567.8
2272.868	545.8
2276.783	528.8
2280.694	529.8
2284.601	535.8
2288.505	524.8
2292.405	515.8
2296.302	519.8
2300.195	512.8
2304.085	501.8
2307.971	482.8
2311.854	487.8
2315.734	468.8
2319.609	466.8
2323.482	481.8
2327.351	468.8
2331.216	482.8
2335.078	495.8
2338.937	478.8
2342.792	455.8
2346.643	458.8
2350.492	458.8
2354.336	447.8
2358.178	458.8
2362.015	454.8
2365.85	461.8
2369.681	457.8
2373.508	465.8
2377.333	458.8
2381.153	458.8
2384.971	466.8
2388.785	462.8
2392.595	453.8
2396.402	440.8
2400.206	459.8
2404.007	443.8
2407.804	440.8
2411.597	438.8
2415.388	439.8
2419.174	435.8
2422.958	433.8
2426.738	418.8
2430.515	418.8
2434.289	424.8
2438.059	417.8
2441.825	406.8
2445.589	414.8
2449.349	410.8
2453.106	397.8
2456.859	401.8
2460.61	391.8
2464.356	389.8
2468.1	373.8
2471.84	376.8
2475.577	372.8
2479.311	369.8
2483.041	367.8
2486.768	357.8
2490.492	363.8
2494.213	366.8
2497.93	367.8
2501.644	356.8
2505.355	360.8
2509.062	342.8
2512.766	355.8
2516.467	350.8
2520.165	339.8
2523.859	338.8
2527.551	339.8
2531.239	330.8
2534.923	314.8
2538.605	316.8
2542.283	299.8
2545.958	306.8
2549.63	313.8
2553.299	309.8
2556.964	309.8
2560.626	297.8
2564.285	304.8
2567.941	302.8
2571.594	285.8
2575.243	295.8
2578.89	285.8
2582.533	276.8
2586.173	270.8
2589.809	264.8
2593.443	270.8
2597.073	263.8
2600.701	259.8
2604.325	255.8
2607.946	266.8
2611.564	255.8
2615.178	265.8
2618.79	263.8
2622.398	249.8
2626.004	249.8
2629.606	235.8
2633.205	249.8
2636.801	240.8
2640.394	242.8
2643.983	243.8
2647.57	242.8
2651.153	236.8
2654.734	235.8
2658.311	223.8
2661.885	227.8
2665.456	214.8
2669.025	221.8
2672.589	219.8
2676.151	220.8
2679.71	208.8
2683.266	202.8
2686.819	214.8
2690.368	211.8
2693.915	204.8
2697.458	202.8
2700.999	194.8
2704.536	197.8
2708.071	183.8
2711.602	185.8
2715.13	193.8
2718.656	184.8
2722.178	174.8
2725.697	175.8
2729.214	166.8
2732.727	178.8
2736.237	160.8
2739.744	171.8
2743.249	164.8
2746.75	162.8
2750.248	154.8
2753.743	151.8
2757.236	150.8
2760.725	146.8
2764.211	144.8
2767.695	134.8
2771.175	140.8
2774.652	141.8
2778.127	138.8
2781.598	131.8
2785.067	134.8
2788.532	136.8
2791.995	139.8
2795.455	140.8
2798.911	139.8
2802.365	150.8
2805.816	149.8
2809.264	147.8
2812.709	146.8
2816.151	150.8
2819.59	144.8
2823.026	140.8
2826.46	144.8
2829.89	141.8
2833.318	139.8
2836.742	141.8
2840.164	142.8
2843.583	144.8
2846.999	148.8
2850.412	150.8
2853.822	146.8
2857.229	151.8
2860.634	152.8
2864.035	161.8
2867.434	167.8
2870.83	171.8
2874.223	187.8
2877.613	181.8
2881	191.8
2884.385	183.8
2887.766	184.8
2891.145	177.8
2894.521	186.8
2897.894	196.8
2901.264	187.8
2904.631	184.8
2907.996	199.8
2911.358	191.8
2914.717	203.8
2918.073	208.8
2921.426	212.8
2924.777	209.8
2928.124	228.8
2931.469	220.8
2934.811	229.8
2938.15	234.8
2941.487	242.8
2944.821	239.8
2948.152	241.8
2951.48	238.8
2954.805	237.8
2958.128	231.8
2961.447	232.8
2964.765	235.8
2968.079	224.8
2971.39	233.8
2974.699	238.8
2978.005	241.8
2981.308	240.8
2984.609	237.8
2987.907	233.8
2991.202	248.8
2994.494	248.8
2997.784	252.8
3001.07	243.8
3004.355	267.8
3007.636	264.8
3010.915	256.8
3014.191	248.8
3017.464	269.8
3020.734	273.8
3024.002	267.8
3027.267	282.8
3030.53	277.8
3033.789	292.8
3037.046	303.8
3040.301	308.8
3043.552	327.8
3046.801	332.8
3050.048	335.8
3053.291	341.8
3056.532	350.8
3059.771	380.8
3063.006	377.8
3066.239	391.8
3069.469	394.8
3072.697	409.8
3075.922	423.8
3079.144	431.8
3082.364	449.8
3085.581	463.8
3088.795	453.8
3092.007	462.8
3095.216	475.8
3098.423	485.8
3101.627	507.8
3104.828	518.8
3108.026	518.8
3111.222	538.8
3114.416	547.8
3117.607	564.8
3120.795	561.8
3123.98	568.8
3127.163	598.8
3130.344	621.8
3133.521	608.8
3136.696	641.8
3139.869	652.8
3143.039	646.8
3146.206	670.8
3149.371	660.8
3152.533	682.8
3155.693	680.8
3158.85	693.8
3162.005	702.8
3165.157	702.8
3168.306	703.8
3171.453	706.8
3174.597	711.8
3177.739	718.8
3180.878	719.8
3184.014	725.8
3187.149	720.8
3190.28	735.8
3193.409	732.8
3196.536	738.8
3199.659	724.8
3202.781	743.8
3205.9	754.8
3209.016	760.8
3212.13	734.8
3215.241	726.8
3218.35	723.8
3221.456	713.8
3224.56	725.8
3227.661	694.8
3230.76	702.8
3233.856	682.8
3236.95	666.8
3240.041	665.8
3243.13	646.8
3246.216	635.8
3249.3	642.8
3252.382	628.8
3255.46	635.8
3258.537	622.8
3261.611	625.8
3264.682	607.8
3267.751	603.8
3270.818	613.8
3273.882	604.8
3276.943	603.8
3280.002	601.8
3283.059	590.8
3286.113	583.8
3289.165	591.8
3292.214	568.8
3295.261	558.8
3298.306	556.8
3301.348	553.8
3304.387	536.8
3307.425	543.8
3310.459	528.8
3313.492	519.8
3316.521	522.8
3319.549	511.8
3322.574	519.8
3325.597	502.8
3328.617	513.8
3331.635	506.8
3334.65	495.8
3337.663	498.8
3340.674	492.8
3343.682	505.8
3346.688	499.8
3349.691	504.8
3352.692	497.8
3355.691	495.8
3358.687	476.8
3361.681	476.8
3364.673	482.8
3367.662	475.8
3370.649	464.8
3373.633	457.8
3376.615	443.8
3379.595	436.8
3382.572	438.8
3385.547	431.8
3388.52	423.8
3391.49	419.8
3394.458	416.8
3397.424	392.8
3400.387	388.8
3403.348	395.8
3406.307	387.8
3409.263	382.8
3412.217	380.8
3415.168	379.8
3418.118	367.8
3421.065	352.8
3424.009	345.8
3426.951	352.8
3429.891	347.8
3432.829	336.8
3435.764	335.8
3438.697	311.8
3441.628	299.8
3444.557	294.8
3447.483	276.8
3450.407	270.8
3453.328	264.8
3456.247	247.8
3459.164	243.8
3462.079	225.8
3464.991	216.8
3467.902	217.8
3470.809	204.8
3473.715	194.8
3476.618	185.8
3479.519	187.8
3482.418	166.8
3485.315	170.8
3488.209	159.8
3491.101	141.8
3493.99	151.8
3496.878	144.8
3499.763	130.8
3502.646	130.8
3505.527	120.8
3508.405	111.8
3511.281	97.8
3514.155	92.8
3517.027	86.8
3519.897	72.8
3522.764	69.8
3525.629	64.8
3528.492	53.8
3531.352	50.8
3534.211	37.8
3537.067	34.8
3539.921	37.8
3542.773	23.8
3545.622	18.8
3548.469	12.8
3551.315	13.8
3554.157	6.8
3556.998	-8.2
3559.837	-5.2
3562.673	-11.2
3565.507	-16.2
3568.339	-23.2
3571.169	-28.2
3573.996	-21.2
3576.822	-29.2
3579.645	-36.2
3582.466	-32.2
3585.285	-42.2
3588.101	-34.2
3590.916	-51.2
3593.728	-53.2
3596.538	-59.2
3599.346	-57.2
3602.152	-61.2
3604.956	-57.2
3607.757	-59.2
3610.556	-64.2
3613.354	-65.2
3616.149	-73.2
3618.942	-78.2
3621.732	-74.2
3624.521	-75.2
3627.307	-77.2
3630.092	-78.2
3632.874	-78.2
3635.654	-86.2
3638.432	-85.2
3641.208	-82.2
3643.982	-97.2
3646.753	-91.2
3649.523	-92.2
3652.29	-92.2
3655.055	-89.2
3657.818	-96.2
3660.579	-97.2
3663.338	-102.2
3666.095	-107.2
3668.849	-107.2
3671.602	-108.2
3674.352	-107.2
3677.101	-113.2
3679.847	-112.2
3682.591	-113.2
3685.333	-114.2
3688.073	-115.2
3690.811	-119.2
3693.547	-119.2
3696.281	-116.2
3699.013	-115.2
3701.742	-127.2
3704.47	-122.2
3707.195	-121.2
3709.919	-122.2
3712.64	-122.2
3715.359	-128.2
3718.076	-122.2
3720.792	-126.2
3723.505	-126.2
3726.216	-125.2
3728.925	-133.2
3731.632	-128.2
3734.336	-134.2
3737.039	-125.2
3739.74	-127.2
3742.439	-132.2
3745.136	-126.2
3747.83	-139.2
3750.523	-133.2
3753.213	-139.2
3755.902	-130.2
3758.589	-136.2
3761.273	-128.2
3763.956	-128.2
3766.636	-133.2
3769.315	-127.2
3771.991	-131.2
3774.665	-140.2
3777.338	-128.2
3780.008	-127.2
3782.677	-131.2
3785.343	-129.2
3788.007	-135.2
3790.67	-137.2
3793.33	-132.2
3795.989	-136.2
3798.645	-134.2
3801.299	-133.2
3803.952	-141.2
3806.602	-127.2
3809.251	-140.2
3811.897	-142.2
3814.542	-138.2
3817.184	-134.2
3819.825	-139.2
3822.463	-134.2
3825.1	-140.2
3827.735	-135.2
3830.367	-139.2
3832.998	-140.2
3835.627	-139.2
3838.253	-136.2
3840.878	-140.2
3843.501	-134.2
3846.122	-136.2
3848.741	-138.2
3851.358	-133.2
3853.973	-141.2
3856.586	-132.2
3859.197	-146.2
3861.806	-137.2
3864.414	-138.2
3867.019	-133.2
3869.622	-138.2
3872.224	-128.2
3874.823	-120.2
3877.421	-110.2
3880.016	-91.2
3882.61	-69.2
3885.202	-72.2
3887.792	-83.2
3890.38	-103.2
3892.966	-128.2
3895.55	-133.2
3898.132	-131.2
3900.713	-135.2
3903.291	-143.2
3905.868	-141.2
3908.442	-134.2
3911.015	-143.2
3913.586	-139.2
3916.155	-139.2
3918.722	-140.2
3921.287	-139.2
3923.85	-133.2
3926.411	-144.2
3928.971	-143.2
3931.528	-142.2
3934.084	-144.2
3936.638	-130.2
3939.19	-143.2
3941.74	-146.2
3944.288	-137.2
3946.834	-137.2
3949.378	-134.2
3951.921	-141.2
3954.462	-150.2
3957	-141.2
3959.537	-139.2
3962.072	-142.2
3964.606	-136.2
3967.137	-137.2
3969.667	-144.2
3972.194	-145.2
3974.72	-140.2
3977.244	-141.2
3979.766	-137.2
3982.286	-134.2
3984.805	-140.2
3987.321	-142.2
3989.836	-132.2
3992.349	-143.2
3994.86	-137.2
3997.369	-140.2
3999.877	-136.2
4002.382	-138.2
4004.886	-139.2
4007.388	-139.2
4009.888	-137.2
4012.386	-137.2
4014.883	-140.2
4017.377	-134.2
4019.87	-136.2
4022.361	-141.2
4024.85	-141.2
4027.338	-137.2
4029.823	-137.2
4032.307	-134.2
4034.789	-140.2
4037.269	-134.2
4039.747	-136.2
4042.224	-134.2
4044.699	-137.2
4047.172	-138.2
4049.643	-135.2
4052.112	-138.2
4054.58	-141.2
4057.046	-139.2
4059.51	-140.2
4061.972	-136.2
4064.432	-133.2
4066.891	-138.2
4069.348	-134.2
4071.803	-141.2
4074.256	-146.2
4076.708	-139.2
4079.158	-135.2
4081.606	-134.2
4084.052	-137.2
4086.497	-139.2
4088.939	-134.2
4091.38	-137.2
4093.819	-138.2
4096.257	-147.2
4098.693	-143.2
4101.127	-144.2
4103.559	-140.2
4105.989	-4.2
4108.418	-17.2
4110.845	-18.2
4113.27	-10.2
4115.694	-13.2
4118.115	-14.2
4120.535	-137.2
4122.954	-142.2
4125.37	-131.2
4127.785	-139.2
4130.198	-136.2
4132.609	-136.2
4135.019	-146.2
4137.427	-149.2
4139.833	-147.2
4142.237	-147.2
