Data from 2018-2-8_conc=5_n=5_RamanShift_05.txt Node
Date: Mon Mar 12 16:06:28 IST 2018
User: aro
Spectrometer: QEPB0276
Trigger mode: 0
Integration Time (sec): 3.000000E1
Scans to average: 1
Electric dark correction enabled: true
Nonlinearity correction enabled: false
Boxcar width: 0
XAxis mode: Raman Shifts
Number of Pixels in Spectrum: 1044
>>>>>Begin Spectral Data<<<<<
160.701	19.6
166.742	36.6
172.777	102.6
178.805	311.6
184.826	866.6
190.841	1849.6
196.849	3070.6
202.85	4016.6
208.845	4372.6
214.833	4400.6
220.815	4355.6
226.789	4327.6
232.758	4347.6
238.719	4354.6
244.674	4343.6
250.623	4320.6
256.565	4240.6
262.5	4187.6
268.429	4118.6
274.351	4101.6
280.267	4081.6
286.176	4038.6
292.079	4041.6
297.975	4036.6
303.865	3995.6
309.748	4007.6
315.625	3989.6
321.495	3967.6
327.359	3986.6
333.217	3971.6
339.068	3996.6
344.912	4010.6
350.751	4008.6
356.583	4000.6
362.408	4039.6
368.227	4046.6
374.04	4019.6
379.847	4071.6
385.647	4085.6
391.44	4113.6
397.228	4134.6
403.009	4130.6
408.784	4145.6
414.553	4153.6
420.315	4162.6
426.071	4191.6
431.821	4189.6
437.565	4187.6
443.302	4163.6
449.033	4154.6
454.758	4116.6
460.477	4121.6
466.189	4086.6
471.896	4056.6
477.596	4053.6
483.29	4048.6
488.978	4033.6
494.66	3995.6
500.335	3951.6
506.005	3843.6
511.668	3709.6
517.325	3605.6
522.977	3513.6
528.622	3437.6
534.261	3394.6
539.894	3332.6
545.521	3303.6
551.141	3265.6
556.756	3237.6
562.365	3235.6
567.968	3188.6
573.565	3177.6
579.155	3193.6
584.74	3174.6
590.319	3152.6
595.892	3150.6
601.459	3140.6
607.02	3140.6
612.575	3097.6
618.124	3095.6
623.667	3032.6
629.204	3034.6
634.735	2985.6
640.261	2959.6
645.781	2960.6
651.294	2952.6
656.802	2956.6
662.304	2917.6
667.8	2921.6
673.29	2902.6
678.775	2921.6
684.254	2902.6
689.726	2898.6
695.193	2889.6
700.655	2856.6
706.11	2842.6
711.56	2845.6
717.004	2832.6
722.442	2827.6
727.874	2766.6
733.301	2779.6
738.722	2771.6
744.137	2773.6
749.547	2774.6
754.951	2743.6
760.349	2765.6
765.741	2733.6
771.128	2763.6
776.509	2801.6
781.885	2816.6
787.254	2803.6
792.618	2816.6
797.977	2800.6
803.33	2794.6
808.677	2778.6
814.019	2744.6
819.355	2713.6
824.686	2718.6
830.011	2684.6
835.33	2670.6
840.644	2677.6
845.952	2675.6
851.255	2661.6
856.552	2659.6
861.844	2636.6
867.13	2626.6
872.41	2620.6
877.686	2595.6
882.955	2562.6
888.219	2537.6
893.478	2531.6
898.731	2478.6
903.979	2452.6
909.221	2429.6
914.458	2446.6
919.69	2427.6
924.916	2432.6
930.136	2424.6
935.351	2425.6
940.561	2456.6
945.766	2427.6
950.965	2414.6
956.158	2427.6
961.347	2375.6
966.529	2350.6
971.707	2318.6
976.879	2291.6
982.046	2263.6
987.208	2246.6
992.364	2254.6
997.515	2266.6
1002.66	2284.6
1007.801	2325.6
1012.936	2305.6
1018.066	2319.6
1023.19	2318.6
1028.309	2331.6
1033.423	2325.6
1038.532	2329.6
1043.636	2308.6
1048.734	2267.6
1053.827	2238.6
1058.915	2212.6
1063.998	2205.6
1069.075	2204.6
1074.147	2193.6
1079.214	2206.6
1084.276	2233.6
1089.333	2225.6
1094.385	2221.6
1099.431	2235.6
1104.472	2237.6
1109.509	2204.6
1114.54	2187.6
1119.565	2168.6
1124.586	2123.6
1129.602	2105.6
1134.613	2085.6
1139.618	2088.6
1144.619	2077.6
1149.614	2063.6
1154.604	2070.6
1159.589	2069.6
1164.57	2090.6
1169.545	2083.6
1174.515	2113.6
1179.48	2105.6
1184.44	2062.6
1189.395	2037.6
1194.345	2038.6
1199.29	2024.6
1204.23	2027.6
1209.165	2008.6
1214.095	2050.6
1219.021	2027.6
1223.941	2043.6
1228.856	2054.6
1233.766	2074.6
1238.672	2067.6
1243.572	2060.6
1248.467	2065.6
1253.358	2025.6
1258.244	1990.6
1263.124	1967.6
1268	1932.6
1272.871	1913.6
1277.737	1893.6
1282.599	1878.6
1287.455	1882.6
1292.306	1908.6
1297.153	1902.6
1301.995	1908.6
1306.832	1932.6
1311.664	1926.6
1316.491	1949.6
1321.314	1919.6
1326.132	1917.6
1330.945	1904.6
1335.753	1872.6
1340.556	1841.6
1345.354	1806.6
1350.148	1786.6
1354.937	1772.6
1359.722	1721.6
1364.501	1714.6
1369.276	1661.6
1374.046	1643.6
1378.811	1612.6
1383.572	1611.6
1388.327	1620.6
1393.079	1621.6
1397.825	1598.6
1402.567	1612.6
1407.304	1615.6
1412.036	1618.6
1416.764	1599.6
1421.487	1620.6
1426.205	1633.6
1430.919	1616.6
1435.628	1650.6
1440.333	1652.6
1445.032	1663.6
1449.727	1666.6
1454.418	1685.6
1459.104	1678.6
1463.785	1651.6
1468.462	1638.6
1473.134	1605.6
1477.802	1584.6
1482.465	1533.6
1487.123	1502.6
1491.777	1491.6
1496.426	1474.6
1501.071	1451.6
1505.711	1457.6
1510.347	1474.6
1514.978	1451.6
1519.604	1447.6
1524.226	1452.6
1528.844	1427.6
1533.457	1410.6
1538.065	1415.6
1542.669	1412.6
1547.269	1423.6
1551.864	1418.6
1556.454	1432.6
1561.041	1434.6
1565.622	1445.6
1570.199	1457.6
1574.772	1449.6
1579.34	1486.6
1583.904	1498.6
1588.464	1495.6
1593.019	1507.6
1597.569	1510.6
1602.115	1508.6
1606.657	1508.6
1611.195	1502.6
1615.728	1485.6
1620.256	1507.6
1624.78	1499.6
1629.3	1488.6
1633.816	1509.6
1638.327	1512.6
1642.834	1510.6
1647.336	1528.6
1651.834	1522.6
1656.328	1517.6
1660.817	1521.6
1665.302	1513.6
1669.783	1481.6
1674.259	1462.6
1678.732	1426.6
1683.199	1397.6
1687.663	1344.6
1692.122	1296.6
1696.577	1256.6
1701.028	1197.6
1705.474	1157.6
1709.917	1120.6
1714.355	1104.6
1718.788	1086.6
1723.218	1098.6
1727.643	1089.6
1732.064	1101.6
1736.481	1073.6
1740.893	1055.6
1745.301	1045.6
1749.705	1016.6
1754.105	992.6
1758.501	974.6
1762.893	959.6
1767.28	954.6
1771.663	945.6
1776.042	929.6
1780.417	929.6
1784.787	909.6
1789.154	906.6
1793.516	905.6
1797.874	880.6
1802.228	863.6
1806.578	869.6
1810.924	840.6
1815.266	835.6
1819.603	837.6
1823.937	845.6
1828.266	843.6
1832.591	837.6
1836.913	849.6
1841.23	852.6
1845.543	848.6
1849.852	841.6
1854.156	833.6
1858.457	842.6
1862.754	848.6
1867.047	845.6
1871.335	850.6
1875.62	853.6
1879.9	844.6
1884.177	842.6
1888.449	834.6
1892.718	838.6
1896.982	814.6
1901.243	801.6
1905.499	797.6
1909.752	790.6
1914	772.6
1918.245	766.6
1922.485	746.6
1926.722	762.6
1930.954	741.6
1935.183	746.6
1939.408	744.6
1943.628	741.6
1947.845	732.6
1952.058	715.6
1956.267	719.6
1960.472	729.6
1964.673	690.6
1968.87	679.6
1973.063	698.6
1977.252	672.6
1981.438	694.6
1985.619	680.6
1989.797	681.6
1993.971	686.6
1998.14	687.6
2002.306	683.6
2006.469	692.6
2010.627	695.6
2014.781	692.6
2018.932	691.6
2023.078	688.6
2027.221	678.6
2031.36	672.6
2035.495	664.6
2039.627	653.6
2043.754	650.6
2047.878	641.6
2051.998	644.6
2056.114	626.6
2060.226	637.6
2064.334	625.6
2068.439	626.6
2072.54	614.6
2076.637	627.6
2080.73	624.6
2084.82	615.6
2088.906	623.6
2092.988	615.6
2097.066	608.6
2101.14	597.6
2105.211	587.6
2109.278	586.6
2113.342	580.6
2117.401	561.6
2121.457	554.6
2125.509	553.6
2129.558	555.6
2133.602	560.6
2137.643	562.6
2141.681	567.6
2145.714	547.6
2149.744	541.6
2153.77	553.6
2157.793	543.6
2161.812	556.6
2165.827	542.6
2169.838	541.6
2173.846	527.6
2177.851	514.6
2181.851	504.6
2185.848	502.6
2189.841	495.6
2193.831	513.6
2197.817	496.6
2201.799	481.6
2205.778	493.6
2209.753	481.6
2213.725	486.6
2217.693	494.6
2221.657	489.6
2225.618	482.6
2229.575	477.6
2233.529	472.6
2237.479	470.6
2241.425	470.6
2245.368	463.6
2249.307	454.6
2253.243	447.6
2257.175	439.6
2261.104	447.6
2265.029	418.6
2268.95	420.6
2272.868	422.6
2276.783	415.6
2280.694	411.6
2284.601	411.6
2288.505	397.6
2292.405	397.6
2296.302	393.6
2300.195	387.6
2304.085	378.6
2307.971	371.6
2311.854	375.6
2315.734	365.6
2319.609	357.6
2323.482	361.6
2327.351	358.6
2331.216	378.6
2335.078	383.6
2338.937	373.6
2342.792	358.6
2346.643	349.6
2350.492	346.6
2354.336	347.6
2358.178	350.6
2362.015	358.6
2365.85	351.6
2369.681	357.6
2373.508	353.6
2377.333	359.6
2381.153	349.6
2384.971	351.6
2388.785	354.6
2392.595	348.6
2396.402	340.6
2400.206	332.6
2404.007	333.6
2407.804	342.6
2411.597	337.6
2415.388	329.6
2419.174	342.6
2422.958	326.6
2426.738	332.6
2430.515	324.6
2434.289	325.6
2438.059	325.6
2441.825	315.6
2445.589	313.6
2449.349	317.6
2453.106	307.6
2456.859	300.6
2460.61	294.6
2464.356	291.6
2468.1	292.6
2471.84	291.6
2475.577	293.6
2479.311	277.6
2483.041	280.6
2486.768	279.6
2490.492	277.6
2494.213	284.6
2497.93	272.6
2501.644	270.6
2505.355	263.6
2509.062	266.6
2512.766	265.6
2516.467	255.6
2520.165	259.6
2523.859	260.6
2527.551	244.6
2531.239	245.6
2534.923	237.6
2538.605	243.6
2542.283	241.6
2545.958	240.6
2549.63	227.6
2553.299	236.6
2556.964	237.6
2560.626	225.6
2564.285	230.6
2567.941	230.6
2571.594	227.6
2575.243	216.6
2578.89	221.6
2582.533	221.6
2586.173	202.6
2589.809	198.6
2593.443	217.6
2597.073	201.6
2600.701	193.6
2604.325	194.6
2607.946	196.6
2611.564	195.6
2615.178	203.6
2618.79	199.6
2622.398	196.6
2626.004	194.6
2629.606	187.6
2633.205	189.6
2636.801	181.6
2640.394	183.6
2643.983	177.6
2647.57	187.6
2651.153	178.6
2654.734	178.6
2658.311	162.6
2661.885	166.6
2665.456	173.6
2669.025	167.6
2672.589	161.6
2676.151	159.6
2679.71	164.6
2683.266	160.6
2686.819	167.6
2690.368	156.6
2693.915	153.6
2697.458	147.6
2700.999	149.6
2704.536	143.6
2708.071	135.6
2711.602	141.6
2715.13	141.6
2718.656	132.6
2722.178	129.6
2725.697	133.6
2729.214	116.6
2732.727	128.6
2736.237	126.6
2739.744	127.6
2743.249	124.6
2746.75	121.6
2750.248	124.6
2753.743	118.6
2757.236	116.6
2760.725	110.6
2764.211	109.6
2767.695	103.6
2771.175	102.6
2774.652	98.6
2778.127	107.6
2781.598	93.6
2785.067	110.6
2788.532	97.6
2791.995	104.6
2795.455	111.6
2798.911	103.6
2802.365	106.6
2805.816	116.6
2809.264	104.6
2812.709	106.6
2816.151	106.6
2819.59	111.6
2823.026	106.6
2826.46	107.6
2829.89	105.6
2833.318	100.6
2836.742	109.6
2840.164	110.6
2843.583	106.6
2846.999	118.6
2850.412	108.6
2853.822	110.6
2857.229	111.6
2860.634	110.6
2864.035	120.6
2867.434	122.6
2870.83	125.6
2874.223	127.6
2877.613	134.6
2881	145.6
2884.385	142.6
2887.766	135.6
2891.145	132.6
2894.521	137.6
2897.894	141.6
2901.264	137.6
2904.631	148.6
2907.996	137.6
2911.358	140.6
2914.717	143.6
2918.073	141.6
2921.426	153.6
2924.777	150.6
2928.124	160.6
2931.469	163.6
2934.811	168.6
2938.15	173.6
2941.487	173.6
2944.821	164.6
2948.152	174.6
2951.48	169.6
2954.805	182.6
2958.128	172.6
2961.447	162.6
2964.765	169.6
2968.079	159.6
2971.39	170.6
2974.699	171.6
2978.005	158.6
2981.308	173.6
2984.609	178.6
2987.907	160.6
2991.202	179.6
2994.494	170.6
2997.784	168.6
3001.07	177.6
3004.355	188.6
3007.636	190.6
3010.915	180.6
3014.191	188.6
3017.464	196.6
3020.734	195.6
3024.002	195.6
3027.267	203.6
3030.53	197.6
3033.789	203.6
3037.046	218.6
3040.301	204.6
3043.552	228.6
3046.801	226.6
3050.048	234.6
3053.291	245.6
3056.532	251.6
3059.771	262.6
3063.006	269.6
3066.239	271.6
3069.469	276.6
3072.697	294.6
3075.922	308.6
3079.144	314.6
3082.364	320.6
3085.581	330.6
3088.795	326.6
3092.007	341.6
3095.216	340.6
3098.423	353.6
3101.627	355.6
3104.828	372.6
3108.026	366.6
3111.222	384.6
3114.416	398.6
3117.607	402.6
3120.795	406.6
3123.98	410.6
3127.163	430.6
3130.344	441.6
3133.521	445.6
3136.696	463.6
3139.869	463.6
3143.039	460.6
3146.206	477.6
3149.371	485.6
3152.533	491.6
3155.693	494.6
3158.85	504.6
3162.005	502.6
3165.157	508.6
3168.306	503.6
3171.453	503.6
3174.597	504.6
3177.739	511.6
3180.878	519.6
3184.014	531.6
3187.149	517.6
3190.28	515.6
3193.409	517.6
3196.536	514.6
3199.659	525.6
3202.781	537.6
3205.9	531.6
3209.016	540.6
3212.13	524.6
3215.241	519.6
3218.35	514.6
3221.456	514.6
3224.56	501.6
3227.661	494.6
3230.76	504.6
3233.856	492.6
3236.95	471.6
3240.041	461.6
3243.13	459.6
3246.216	461.6
3249.3	446.6
3252.382	454.6
3255.46	445.6
3258.537	434.6
3261.611	427.6
3264.682	432.6
3267.751	432.6
3270.818	428.6
3273.882	419.6
3276.943	422.6
3280.002	423.6
3283.059	415.6
3286.113	407.6
3289.165	406.6
3292.214	400.6
3295.261	403.6
3298.306	391.6
3301.348	382.6
3304.387	388.6
3307.425	385.6
3310.459	372.6
3313.492	359.6
3316.521	356.6
3319.549	368.6
3322.574	355.6
3325.597	354.6
3328.617	365.6
3331.635	361.6
3334.65	345.6
3337.663	337.6
3340.674	347.6
3343.682	356.6
3346.688	346.6
3349.691	335.6
3352.692	335.6
3355.691	336.6
3358.687	333.6
3361.681	330.6
3364.673	332.6
3367.662	329.6
3370.649	323.6
3373.633	318.6
3376.615	318.6
3379.595	305.6
3382.572	303.6
3385.547	301.6
3388.52	293.6
3391.49	292.6
3394.458	285.6
3397.424	279.6
3400.387	265.6
3403.348	277.6
3406.307	274.6
3409.263	262.6
3412.217	265.6
3415.168	263.6
3418.118	253.6
3421.065	243.6
3424.009	245.6
3426.951	238.6
3429.891	235.6
3432.829	217.6
3435.764	224.6
3438.697	213.6
3441.628	208.6
3444.557	202.6
3447.483	193.6
3450.407	183.6
3453.328	178.6
3456.247	175.6
3459.164	161.6
3462.079	151.6
3464.991	152.6
3467.902	143.6
3470.809	146.6
3473.715	128.6
3476.618	120.6
3479.519	125.6
3482.418	117.6
3485.315	106.6
3488.209	88.6
3491.101	101.6
3493.99	99.6
3496.878	91.6
3499.763	90.6
3502.646	77.6
3505.527	65.6
3508.405	65.6
3511.281	72.6
3514.155	59.6
3517.027	51.6
3519.897	41.6
3522.764	41.6
3525.629	27.6
3528.492	25.6
3531.352	26.6
3534.211	11.6
3537.067	16.6
3539.921	16.6
3542.773	5.6
3545.622	3.6
3548.469	-4.4
3551.315	-0.4
3554.157	-13.4
3556.998	-14.4
3559.837	-10.4
3562.673	-15.4
3565.507	-14.4
3568.339	-26.4
3571.169	-36.4
3573.996	-28.4
3576.822	-32.4
3579.645	-33.4
3582.466	-35.4
3585.285	-40.4
3588.101	-30.4
3590.916	-45.4
3593.728	-53.4
3596.538	-47.4
3599.346	-52.4
3602.152	-49.4
3604.956	-46.4
3607.757	-50.4
3610.556	-59.4
3613.354	-56.4
3616.149	-64.4
3618.942	-66.4
3621.732	-66.4
3624.521	-62.4
3627.307	-63.4
3630.092	-64.4
3632.874	-71.4
3635.654	-78.4
3638.432	-71.4
3641.208	-71.4
3643.982	-76.4
3646.753	-77.4
3649.523	-83.4
3652.29	-80.4
3655.055	-80.4
3657.818	-84.4
3660.579	-83.4
3663.338	-80.4
3666.095	-85.4
3668.849	-87.4
3671.602	-87.4
3674.352	-86.4
3677.101	-92.4
3679.847	-92.4
3682.591	-96.4
3685.333	-90.4
3688.073	-85.4
3690.811	-93.4
3693.547	-101.4
3696.281	-97.4
3699.013	-96.4
3701.742	-97.4
3704.47	-99.4
3707.195	-94.4
3709.919	-99.4
3712.64	-100.4
3715.359	-108.4
3718.076	-101.4
3720.792	-105.4
3723.505	-105.4
3726.216	-101.4
3728.925	-102.4
3731.632	-101.4
3734.336	-113.4
3737.039	-103.4
3739.74	-111.4
3742.439	-115.4
3745.136	-100.4
3747.83	-109.4
3750.523	-104.4
3753.213	-101.4
3755.902	-104.4
3758.589	-113.4
3761.273	-102.4
3763.956	-104.4
3766.636	-106.4
3769.315	-102.4
3771.991	-103.4
3774.665	-108.4
3777.338	-105.4
3780.008	-107.4
3782.677	-111.4
3785.343	-105.4
3788.007	-108.4
3790.67	-110.4
3793.33	-103.4
3795.989	-109.4
3798.645	-107.4
3801.299	-110.4
3803.952	-109.4
3806.602	-101.4
3809.251	-114.4
3811.897	-116.4
3814.542	-114.4
3817.184	-101.4
3819.825	-108.4
3822.463	-114.4
3825.1	-105.4
3827.735	-111.4
3830.367	-114.4
3832.998	-115.4
3835.627	-111.4
3838.253	-111.4
3840.878	-111.4
3843.501	-107.4
3846.122	-108.4
3848.741	-113.4
3851.358	-108.4
3853.973	-114.4
3856.586	-110.4
3859.197	-113.4
3861.806	-114.4
3864.414	-112.4
3867.019	-108.4
3869.622	-111.4
3872.224	-99.4
3874.823	-92.4
3877.421	-88.4
3880.016	-66.4
3882.61	-54.4
3885.202	-53.4
3887.792	-61.4
3890.38	-87.4
3892.966	-98.4
3895.55	-104.4
3898.132	-110.4
3900.713	-106.4
3903.291	-111.4
3905.868	-118.4
3908.442	-107.4
3911.015	-110.4
3913.586	-110.4
3916.155	-113.4
3918.722	-110.4
3921.287	-114.4
3923.85	-113.4
3926.411	-116.4
3928.971	-114.4
3931.528	-117.4
3934.084	-113.4
3936.638	-109.4
3939.19	-119.4
3941.74	-119.4
3944.288	-113.4
3946.834	-113.4
3949.378	-111.4
3951.921	-114.4
3954.462	-113.4
3957	-112.4
3959.537	-115.4
3962.072	-122.4
3964.606	-110.4
3967.137	-114.4
3969.667	-116.4
3972.194	-114.4
3974.72	-109.4
3977.244	-109.4
3979.766	-119.4
3982.286	-114.4
3984.805	-117.4
3987.321	-113.4
3989.836	-104.4
3992.349	-109.4
3994.86	-116.4
3997.369	-116.4
3999.877	-111.4
4002.382	-110.4
4004.886	-113.4
4007.388	-111.4
4009.888	-112.4
4012.386	-109.4
4014.883	-111.4
4017.377	-112.4
4019.87	-109.4
4022.361	-111.4
4024.85	-114.4
4027.338	-110.4
4029.823	-107.4
4032.307	-108.4
4034.789	-112.4
4037.269	-111.4
4039.747	-110.4
4042.224	-111.4
4044.699	-113.4
4047.172	-113.4
4049.643	-103.4
4052.112	-114.4
4054.58	-111.4
4057.046	-111.4
4059.51	-109.4
4061.972	-108.4
4064.432	-112.4
4066.891	-114.4
4069.348	-111.4
4071.803	-112.4
4074.256	-110.4
4076.708	-109.4
4079.158	-112.4
4081.606	-106.4
4084.052	-111.4
4086.497	-112.4
4088.939	-111.4
4091.38	-112.4
4093.819	-107.4
4096.257	-116.4
4098.693	-113.4
4101.127	-115.4
4103.559	-115.4
4105.989	0.6
4108.418	0.6
4110.845	3.6
4113.27	-3.4
4115.694	-8.4
4118.115	-4.4
4120.535	-112.4
4122.954	-116.4
4125.37	-111.4
4127.785	-116.4
4130.198	-114.4
4132.609	-113.4
4135.019	-116.4
4137.427	-119.4
4139.833	-115.4
4142.237	-119.4
