Data from 2018-2-8_conc=5_n=6_RamanShift_02.txt Node
Date: Mon Mar 12 16:07:58 IST 2018
User: aro
Spectrometer: QEPB0276
Trigger mode: 0
Integration Time (sec): 3.000000E1
Scans to average: 1
Electric dark correction enabled: true
Nonlinearity correction enabled: false
Boxcar width: 0
XAxis mode: Raman Shifts
Number of Pixels in Spectrum: 1044
>>>>>Begin Spectral Data<<<<<
160.701	28.5
166.742	53.5
172.777	125.5
178.805	346.5
184.826	958.5
190.841	2014.5
196.849	3325.5
202.85	4358.5
208.845	4807.5
214.833	4784.5
220.815	4725.5
226.789	4674.5
232.758	4744.5
238.719	4709.5
244.674	4687.5
250.623	4620.5
256.565	4578.5
262.5	4553.5
268.429	4469.5
274.351	4473.5
280.267	4447.5
286.176	4393.5
292.079	4390.5
297.975	4390.5
303.865	4378.5
309.748	4359.5
315.625	4355.5
321.495	4349.5
327.359	4328.5
333.217	4315.5
339.068	4353.5
344.912	4341.5
350.751	4384.5
356.583	4382.5
362.408	4408.5
368.227	4428.5
374.04	4425.5
379.847	4426.5
385.647	4443.5
391.44	4478.5
397.228	4517.5
403.009	4523.5
408.784	4555.5
414.553	4573.5
420.315	4577.5
426.071	4603.5
431.821	4587.5
437.565	4555.5
443.302	4575.5
449.033	4556.5
454.758	4521.5
460.477	4481.5
466.189	4476.5
471.896	4426.5
477.596	4421.5
483.29	4389.5
488.978	4389.5
494.66	4355.5
500.335	4318.5
506.005	4187.5
511.668	4023.5
517.325	3889.5
522.977	3785.5
528.622	3703.5
534.261	3627.5
539.894	3583.5
545.521	3559.5
551.141	3541.5
556.756	3500.5
562.365	3470.5
567.968	3447.5
573.565	3409.5
579.155	3412.5
584.74	3404.5
590.319	3392.5
595.892	3379.5
601.459	3381.5
607.02	3363.5
612.575	3314.5
618.124	3301.5
623.667	3256.5
629.204	3212.5
634.735	3217.5
640.261	3191.5
645.781	3159.5
651.294	3152.5
656.802	3145.5
662.304	3140.5
667.8	3125.5
673.29	3126.5
678.775	3126.5
684.254	3103.5
689.726	3075.5
695.193	3074.5
700.655	3066.5
706.11	3052.5
711.56	3037.5
717.004	3005.5
722.442	2998.5
727.874	2974.5
733.301	2962.5
738.722	2960.5
744.137	2968.5
749.547	2940.5
754.951	2943.5
760.349	2928.5
765.741	2930.5
771.128	2979.5
776.509	2974.5
781.885	3036.5
787.254	3036.5
792.618	3021.5
797.977	2985.5
803.33	2993.5
808.677	2974.5
814.019	2953.5
819.355	2921.5
824.686	2908.5
830.011	2891.5
835.33	2890.5
840.644	2897.5
845.952	2868.5
851.255	2863.5
856.552	2839.5
861.844	2827.5
867.13	2802.5
872.41	2784.5
877.686	2765.5
882.955	2752.5
888.219	2726.5
893.478	2698.5
898.731	2664.5
903.979	2606.5
909.221	2596.5
914.458	2580.5
919.69	2569.5
924.916	2601.5
930.136	2597.5
935.351	2587.5
940.561	2598.5
945.766	2606.5
950.965	2573.5
956.158	2575.5
961.347	2523.5
966.529	2490.5
971.707	2470.5
976.879	2444.5
982.046	2405.5
987.208	2407.5
992.364	2401.5
997.515	2417.5
1002.66	2441.5
1007.801	2452.5
1012.936	2453.5
1018.066	2451.5
1023.19	2468.5
1028.309	2498.5
1033.423	2480.5
1038.532	2463.5
1043.636	2445.5
1048.734	2426.5
1053.827	2407.5
1058.915	2381.5
1063.998	2342.5
1069.075	2328.5
1074.147	2378.5
1079.214	2368.5
1084.276	2361.5
1089.333	2374.5
1094.385	2366.5
1099.431	2388.5
1104.472	2373.5
1109.509	2371.5
1114.54	2319.5
1119.565	2290.5
1124.586	2246.5
1129.602	2232.5
1134.613	2235.5
1139.618	2197.5
1144.619	2209.5
1149.614	2195.5
1154.604	2207.5
1159.589	2204.5
1164.57	2221.5
1169.545	2226.5
1174.515	2227.5
1179.48	2223.5
1184.44	2195.5
1189.395	2181.5
1194.345	2179.5
1199.29	2141.5
1204.23	2148.5
1209.165	2144.5
1214.095	2176.5
1219.021	2158.5
1223.941	2162.5
1228.856	2219.5
1233.766	2197.5
1238.672	2208.5
1243.572	2206.5
1248.467	2184.5
1253.358	2172.5
1258.244	2121.5
1263.124	2077.5
1268	2068.5
1272.871	2020.5
1277.737	2021.5
1282.599	1992.5
1287.455	1984.5
1292.306	2009.5
1297.153	2013.5
1301.995	2017.5
1306.832	2035.5
1311.664	2060.5
1316.491	2055.5
1321.314	2054.5
1326.132	2056.5
1330.945	2026.5
1335.753	1977.5
1340.556	1955.5
1345.354	1922.5
1350.148	1907.5
1354.937	1890.5
1359.722	1848.5
1364.501	1818.5
1369.276	1782.5
1374.046	1753.5
1378.811	1723.5
1383.572	1733.5
1388.327	1734.5
1393.079	1719.5
1397.825	1742.5
1402.567	1716.5
1407.304	1711.5
1412.036	1730.5
1416.764	1756.5
1421.487	1729.5
1426.205	1741.5
1430.919	1728.5
1435.628	1752.5
1440.333	1776.5
1445.032	1790.5
1449.727	1788.5
1454.418	1800.5
1459.104	1791.5
1463.785	1749.5
1468.462	1743.5
1473.134	1723.5
1477.802	1679.5
1482.465	1650.5
1487.123	1626.5
1491.777	1592.5
1496.426	1581.5
1501.071	1549.5
1505.711	1541.5
1510.347	1556.5
1514.978	1557.5
1519.604	1554.5
1524.226	1555.5
1528.844	1526.5
1533.457	1526.5
1538.065	1530.5
1542.669	1517.5
1547.269	1524.5
1551.864	1513.5
1556.454	1532.5
1561.041	1554.5
1565.622	1561.5
1570.199	1557.5
1574.772	1550.5
1579.34	1585.5
1583.904	1614.5
1588.464	1624.5
1593.019	1627.5
1597.569	1624.5
1602.115	1613.5
1606.657	1601.5
1611.195	1601.5
1615.728	1615.5
1620.256	1624.5
1624.78	1607.5
1629.3	1610.5
1633.816	1604.5
1638.327	1606.5
1642.834	1615.5
1647.336	1625.5
1651.834	1646.5
1656.328	1634.5
1660.817	1638.5
1665.302	1624.5
1669.783	1597.5
1674.259	1531.5
1678.732	1524.5
1683.199	1493.5
1687.663	1433.5
1692.122	1397.5
1696.577	1354.5
1701.028	1275.5
1705.474	1240.5
1709.917	1215.5
1714.355	1192.5
1718.788	1175.5
1723.218	1168.5
1727.643	1177.5
1732.064	1166.5
1736.481	1156.5
1740.893	1125.5
1745.301	1115.5
1749.705	1086.5
1754.105	1084.5
1758.501	1065.5
1762.893	1026.5
1767.28	1022.5
1771.663	1003.5
1776.042	1002.5
1780.417	1005.5
1784.787	977.5
1789.154	978.5
1793.516	975.5
1797.874	951.5
1802.228	947.5
1806.578	930.5
1810.924	915.5
1815.266	897.5
1819.603	909.5
1823.937	906.5
1828.266	904.5
1832.591	900.5
1836.913	905.5
1841.23	916.5
1845.543	905.5
1849.852	897.5
1854.156	893.5
1858.457	910.5
1862.754	914.5
1867.047	905.5
1871.335	908.5
1875.62	911.5
1879.9	911.5
1884.177	884.5
1888.449	882.5
1892.718	882.5
1896.982	863.5
1901.243	862.5
1905.499	842.5
1909.752	844.5
1914	834.5
1918.245	812.5
1922.485	807.5
1926.722	804.5
1930.954	813.5
1935.183	797.5
1939.408	789.5
1943.628	794.5
1947.845	784.5
1952.058	780.5
1956.267	768.5
1960.472	776.5
1964.673	763.5
1968.87	739.5
1973.063	751.5
1977.252	723.5
1981.438	736.5
1985.619	737.5
1989.797	739.5
1993.971	741.5
1998.14	745.5
2002.306	739.5
2006.469	732.5
2010.627	741.5
2014.781	737.5
2018.932	740.5
2023.078	734.5
2027.221	737.5
2031.36	723.5
2035.495	720.5
2039.627	702.5
2043.754	696.5
2047.878	695.5
2051.998	681.5
2056.114	685.5
2060.226	680.5
2064.334	682.5
2068.439	676.5
2072.54	675.5
2076.637	670.5
2080.73	679.5
2084.82	668.5
2088.906	664.5
2092.988	667.5
2097.066	643.5
2101.14	639.5
2105.211	633.5
2109.278	619.5
2113.342	614.5
2117.401	614.5
2121.457	610.5
2125.509	594.5
2129.558	602.5
2133.602	607.5
2137.643	593.5
2141.681	604.5
2145.714	600.5
2149.744	592.5
2153.77	595.5
2157.793	594.5
2161.812	583.5
2165.827	573.5
2169.838	564.5
2173.846	574.5
2177.851	560.5
2181.851	553.5
2185.848	541.5
2189.841	538.5
2193.831	532.5
2197.817	529.5
2201.799	526.5
2205.778	529.5
2209.753	512.5
2213.725	528.5
2217.693	518.5
2221.657	523.5
2225.618	519.5
2229.575	515.5
2233.529	509.5
2237.479	507.5
2241.425	497.5
2245.368	497.5
2249.307	491.5
2253.243	464.5
2257.175	460.5
2261.104	456.5
2265.029	451.5
2268.95	455.5
2272.868	454.5
2276.783	436.5
2280.694	431.5
2284.601	429.5
2288.505	423.5
2292.405	429.5
2296.302	419.5
2300.195	414.5
2304.085	404.5
2307.971	393.5
2311.854	401.5
2315.734	370.5
2319.609	378.5
2323.482	389.5
2327.351	378.5
2331.216	395.5
2335.078	400.5
2338.937	381.5
2342.792	358.5
2346.643	364.5
2350.492	357.5
2354.336	372.5
2358.178	374.5
2362.015	368.5
2365.85	367.5
2369.681	369.5
2373.508	372.5
2377.333	373.5
2381.153	355.5
2384.971	370.5
2388.785	365.5
2392.595	361.5
2396.402	342.5
2400.206	351.5
2404.007	352.5
2407.804	348.5
2411.597	346.5
2415.388	345.5
2419.174	344.5
2422.958	344.5
2426.738	340.5
2430.515	340.5
2434.289	332.5
2438.059	327.5
2441.825	333.5
2445.589	328.5
2449.349	314.5
2453.106	318.5
2456.859	319.5
2460.61	318.5
2464.356	306.5
2468.1	302.5
2471.84	297.5
2475.577	297.5
2479.311	279.5
2483.041	284.5
2486.768	284.5
2490.492	281.5
2494.213	296.5
2497.93	286.5
2501.644	281.5
2505.355	272.5
2509.062	281.5
2512.766	276.5
2516.467	276.5
2520.165	269.5
2523.859	273.5
2527.551	259.5
2531.239	247.5
2534.923	245.5
2538.605	255.5
2542.283	242.5
2545.958	242.5
2549.63	248.5
2553.299	239.5
2556.964	248.5
2560.626	234.5
2564.285	235.5
2567.941	226.5
2571.594	226.5
2575.243	226.5
2578.89	219.5
2582.533	213.5
2586.173	222.5
2589.809	210.5
2593.443	217.5
2597.073	201.5
2600.701	202.5
2604.325	197.5
2607.946	207.5
2611.564	214.5
2615.178	202.5
2618.79	203.5
2622.398	206.5
2626.004	194.5
2629.606	191.5
2633.205	189.5
2636.801	183.5
2640.394	177.5
2643.983	183.5
2647.57	187.5
2651.153	184.5
2654.734	183.5
2658.311	169.5
2661.885	162.5
2665.456	172.5
2669.025	175.5
2672.589	176.5
2676.151	174.5
2679.71	171.5
2683.266	149.5
2686.819	164.5
2690.368	161.5
2693.915	151.5
2697.458	151.5
2700.999	153.5
2704.536	145.5
2708.071	138.5
2711.602	144.5
2715.13	144.5
2718.656	126.5
2722.178	137.5
2725.697	132.5
2729.214	122.5
2732.727	136.5
2736.237	136.5
2739.744	131.5
2743.249	126.5
2746.75	125.5
2750.248	122.5
2753.743	116.5
2757.236	116.5
2760.725	112.5
2764.211	109.5
2767.695	100.5
2771.175	96.5
2774.652	92.5
2778.127	98.5
2781.598	97.5
2785.067	114.5
2788.532	107.5
2791.995	108.5
2795.455	106.5
2798.911	96.5
2802.365	111.5
2805.816	115.5
2809.264	94.5
2812.709	112.5
2816.151	107.5
2819.59	106.5
2823.026	110.5
2826.46	102.5
2829.89	101.5
2833.318	102.5
2836.742	111.5
2840.164	109.5
2843.583	112.5
2846.999	109.5
2850.412	101.5
2853.822	103.5
2857.229	105.5
2860.634	109.5
2864.035	115.5
2867.434	120.5
2870.83	132.5
2874.223	138.5
2877.613	139.5
2881	140.5
2884.385	137.5
2887.766	129.5
2891.145	132.5
2894.521	142.5
2897.894	145.5
2901.264	146.5
2904.631	141.5
2907.996	144.5
2911.358	145.5
2914.717	144.5
2918.073	147.5
2921.426	156.5
2924.777	160.5
2928.124	169.5
2931.469	170.5
2934.811	173.5
2938.15	176.5
2941.487	176.5
2944.821	182.5
2948.152	182.5
2951.48	179.5
2954.805	188.5
2958.128	178.5
2961.447	167.5
2964.765	182.5
2968.079	160.5
2971.39	167.5
2974.699	177.5
2978.005	173.5
2981.308	194.5
2984.609	180.5
2987.907	176.5
2991.202	190.5
2994.494	183.5
2997.784	181.5
3001.07	195.5
3004.355	202.5
3007.636	196.5
3010.915	202.5
3014.191	189.5
3017.464	197.5
3020.734	198.5
3024.002	202.5
3027.267	214.5
3030.53	206.5
3033.789	222.5
3037.046	226.5
3040.301	224.5
3043.552	245.5
3046.801	246.5
3050.048	258.5
3053.291	251.5
3056.532	271.5
3059.771	275.5
3063.006	293.5
3066.239	305.5
3069.469	308.5
3072.697	316.5
3075.922	337.5
3079.144	338.5
3082.364	339.5
3085.581	356.5
3088.795	354.5
3092.007	364.5
3095.216	368.5
3098.423	376.5
3101.627	387.5
3104.828	401.5
3108.026	400.5
3111.222	420.5
3114.416	423.5
3117.607	438.5
3120.795	432.5
3123.98	445.5
3127.163	459.5
3130.344	465.5
3133.521	478.5
3136.696	502.5
3139.869	499.5
3143.039	515.5
3146.206	518.5
3149.371	522.5
3152.533	531.5
3155.693	543.5
3158.85	551.5
3162.005	552.5
3165.157	552.5
3168.306	555.5
3171.453	555.5
3174.597	567.5
3177.739	555.5
3180.878	567.5
3184.014	565.5
3187.149	578.5
3190.28	565.5
3193.409	564.5
3196.536	564.5
3199.659	572.5
3202.781	578.5
3205.9	581.5
3209.016	665.5
3212.13	580.5
3215.241	570.5
3218.35	563.5
3221.456	562.5
3224.56	544.5
3227.661	544.5
3230.76	551.5
3233.856	537.5
3236.95	520.5
3240.041	519.5
3243.13	500.5
3246.216	502.5
3249.3	488.5
3252.382	493.5
3255.46	487.5
3258.537	471.5
3261.611	479.5
3264.682	471.5
3267.751	455.5
3270.818	469.5
3273.882	461.5
3276.943	459.5
3280.002	459.5
3283.059	450.5
3286.113	446.5
3289.165	451.5
3292.214	443.5
3295.261	425.5
3298.306	429.5
3301.348	415.5
3304.387	409.5
3307.425	418.5
3310.459	414.5
3313.492	400.5
3316.521	394.5
3319.549	389.5
3322.574	396.5
3325.597	390.5
3328.617	394.5
3331.635	386.5
3334.65	392.5
3337.663	373.5
3340.674	381.5
3343.682	373.5
3346.688	369.5
3349.691	379.5
3352.692	374.5
3355.691	373.5
3358.687	367.5
3361.681	370.5
3364.673	361.5
3367.662	363.5
3370.649	349.5
3373.633	337.5
3376.615	331.5
3379.595	323.5
3382.572	331.5
3385.547	331.5
3388.52	321.5
3391.49	310.5
3394.458	314.5
3397.424	298.5
3400.387	297.5
3403.348	294.5
3406.307	293.5
3409.263	285.5
3412.217	275.5
3415.168	273.5
3418.118	276.5
3421.065	257.5
3424.009	270.5
3426.951	263.5
3429.891	261.5
3432.829	242.5
3435.764	242.5
3438.697	232.5
3441.628	223.5
3444.557	218.5
3447.483	223.5
3450.407	199.5
3453.328	192.5
3456.247	183.5
3459.164	171.5
3462.079	159.5
3464.991	163.5
3467.902	152.5
3470.809	159.5
3473.715	137.5
3476.618	131.5
3479.519	126.5
3482.418	119.5
3485.315	116.5
3488.209	105.5
3491.101	109.5
3493.99	109.5
3496.878	93.5
3499.763	85.5
3502.646	72.5
3505.527	63.5
3508.405	71.5
3511.281	69.5
3514.155	61.5
3517.027	59.5
3519.897	43.5
3522.764	35.5
3525.629	25.5
3528.492	23.5
3531.352	27.5
3534.211	11.5
3537.067	17.5
3539.921	13.5
3542.773	2.5
3545.622	-4.5
3548.469	-14.5
3551.315	-9.5
3554.157	-18.5
3556.998	-16.5
3559.837	-23.5
3562.673	-27.5
3565.507	-24.5
3568.339	-33.5
3571.169	-47.5
3573.996	-33.5
3576.822	-40.5
3579.645	-40.5
3582.466	-42.5
3585.285	-48.5
3588.101	-46.5
3590.916	-54.5
3593.728	-61.5
3596.538	-61.5
3599.346	-65.5
3602.152	-68.5
3604.956	-69.5
3607.757	-63.5
3610.556	-72.5
3613.354	-72.5
3616.149	-78.5
3618.942	-80.5
3621.732	-78.5
3624.521	-90.5
3627.307	-80.5
3630.092	-82.5
3632.874	-83.5
3635.654	-87.5
3638.432	-85.5
3641.208	-88.5
3643.982	-94.5
3646.753	-91.5
3649.523	-95.5
3652.29	-94.5
3655.055	-98.5
3657.818	-95.5
3660.579	-98.5
3663.338	-99.5
3666.095	-107.5
3668.849	-109.5
3671.602	-107.5
3674.352	-104.5
3677.101	-107.5
3679.847	-107.5
3682.591	-107.5
3685.333	-107.5
3688.073	-113.5
3690.811	-112.5
3693.547	-120.5
3696.281	-116.5
3699.013	-113.5
3701.742	-116.5
3704.47	-117.5
3707.195	-115.5
3709.919	-123.5
3712.64	-124.5
3715.359	-125.5
3718.076	-119.5
3720.792	-125.5
3723.505	-122.5
3726.216	-121.5
3728.925	-127.5
3731.632	-123.5
3734.336	-131.5
3737.039	-122.5
3739.74	-126.5
3742.439	-128.5
3745.136	-119.5
3747.83	-130.5
3750.523	-127.5
3753.213	-129.5
3755.902	-123.5
3758.589	-131.5
3761.273	-123.5
3763.956	-121.5
3766.636	-130.5
3769.315	-121.5
3771.991	-123.5
3774.665	-129.5
3777.338	-125.5
3780.008	-128.5
3782.677	-130.5
3785.343	-129.5
3788.007	-127.5
3790.67	-132.5
3793.33	-129.5
3795.989	-132.5
3798.645	-125.5
3801.299	-129.5
3803.952	-130.5
3806.602	-124.5
3809.251	-133.5
3811.897	-139.5
3814.542	-132.5
3817.184	-129.5
3819.825	-128.5
3822.463	-132.5
3825.1	-128.5
3827.735	-134.5
3830.367	-130.5
3832.998	-129.5
3835.627	-130.5
3838.253	-130.5
3840.878	-125.5
3843.501	-124.5
3846.122	-127.5
3848.741	-135.5
3851.358	-125.5
3853.973	-139.5
3856.586	-130.5
3859.197	-138.5
3861.806	-127.5
3864.414	-132.5
3867.019	-126.5
3869.622	-128.5
3872.224	-112.5
3874.823	-110.5
3877.421	-99.5
3880.016	-78.5
3882.61	-44.5
3885.202	-41.5
3887.792	-60.5
3890.38	-88.5
3892.966	-112.5
3895.55	-127.5
3898.132	-125.5
3900.713	-131.5
3903.291	-133.5
3905.868	-136.5
3908.442	-127.5
3911.015	-131.5
3913.586	-132.5
3916.155	-136.5
3918.722	-135.5
3921.287	-135.5
3923.85	-132.5
3926.411	-136.5
3928.971	-131.5
3931.528	-135.5
3934.084	-131.5
3936.638	-130.5
3939.19	-140.5
3941.74	-138.5
3944.288	-139.5
3946.834	-130.5
3949.378	-131.5
3951.921	-132.5
3954.462	-137.5
3957	-132.5
3959.537	-129.5
3962.072	-135.5
3964.606	-132.5
3967.137	-132.5
3969.667	-133.5
3972.194	-135.5
3974.72	-135.5
3977.244	-127.5
3979.766	-134.5
3982.286	-135.5
3984.805	-134.5
3987.321	-134.5
3989.836	-125.5
3992.349	-135.5
3994.86	-129.5
3997.369	-136.5
3999.877	-133.5
4002.382	-131.5
4004.886	-133.5
4007.388	-137.5
4009.888	-128.5
4012.386	-130.5
4014.883	-132.5
4017.377	-133.5
4019.87	-131.5
4022.361	-133.5
4024.85	-137.5
4027.338	-135.5
4029.823	-131.5
4032.307	-130.5
4034.789	-129.5
4037.269	-131.5
4039.747	-129.5
4042.224	-129.5
4044.699	-132.5
4047.172	-132.5
4049.643	-126.5
4052.112	-131.5
4054.58	-130.5
4057.046	-134.5
4059.51	-129.5
4061.972	-131.5
4064.432	-135.5
4066.891	-131.5
4069.348	-128.5
4071.803	-135.5
4074.256	-129.5
4076.708	-131.5
4079.158	-131.5
4081.606	-125.5
4084.052	-139.5
4086.497	-133.5
4088.939	-128.5
4091.38	-134.5
4093.819	-133.5
4096.257	-141.5
4098.693	-137.5
4101.127	-137.5
4103.559	-133.5
4105.989	28.5
4108.418	25.5
4110.845	25.5
4113.27	13.5
4115.694	1.5
4118.115	3.5
4120.535	-130.5
4122.954	-136.5
4125.37	-130.5
4127.785	-135.5
4130.198	-135.5
4132.609	-132.5
4135.019	-138.5
4137.427	-138.5
4139.833	-137.5
4142.237	-139.5
