Data from 2018-2-8_conc=4_n=7_RamanShift_01.txt Node
Date: Mon Mar 12 15:28:28 IST 2018
User: aro
Spectrometer: QEPB0276
Trigger mode: 0
Integration Time (sec): 3.000000E1
Scans to average: 1
Electric dark correction enabled: true
Nonlinearity correction enabled: false
Boxcar width: 0
XAxis mode: Raman Shifts
Number of Pixels in Spectrum: 1044
>>>>>Begin Spectral Data<<<<<
160.701	16.4
166.742	45.4
172.777	113.4
178.805	329.4
184.826	918.4
190.841	1954.4
196.849	3240.4
202.85	4236.4
208.845	4620.4
214.833	4636.4
220.815	4564.4
226.789	4566.4
232.758	4548.4
238.719	4580.4
244.674	4549.4
250.623	4487.4
256.565	4442.4
262.5	4369.4
268.429	4304.4
274.351	4275.4
280.267	4239.4
286.176	4222.4
292.079	4214.4
297.975	4169.4
303.865	4196.4
309.748	4185.4
315.625	4156.4
321.495	4168.4
327.359	4132.4
333.217	4127.4
339.068	4175.4
344.912	4181.4
350.751	4165.4
356.583	4192.4
362.408	4184.4
368.227	4198.4
374.04	4213.4
379.847	4240.4
385.647	4252.4
391.44	4254.4
397.228	4290.4
403.009	4295.4
408.784	4311.4
414.553	4341.4
420.315	4368.4
426.071	4374.4
431.821	4322.4
437.565	4370.4
443.302	4338.4
449.033	4316.4
454.758	4293.4
460.477	4260.4
466.189	4279.4
471.896	4215.4
477.596	4201.4
483.29	4182.4
488.978	4155.4
494.66	4164.4
500.335	4101.4
506.005	3993.4
511.668	3871.4
517.325	3723.4
522.977	3641.4
528.622	3578.4
534.261	3519.4
539.894	3449.4
545.521	3430.4
551.141	3416.4
556.756	3400.4
562.365	3374.4
567.968	3336.4
573.565	3321.4
579.155	3297.4
584.74	3305.4
590.319	3290.4
595.892	3264.4
601.459	3271.4
607.02	3267.4
612.575	3241.4
618.124	3214.4
623.667	3171.4
629.204	3142.4
634.735	3112.4
640.261	3103.4
645.781	3096.4
651.294	3081.4
656.802	3068.4
662.304	3067.4
667.8	3046.4
673.29	3029.4
678.775	3007.4
684.254	3031.4
689.726	3019.4
695.193	2981.4
700.655	2982.4
706.11	2957.4
711.56	2933.4
717.004	2933.4
722.442	2916.4
727.874	2886.4
733.301	2888.4
738.722	2902.4
744.137	2859.4
749.547	2855.4
754.951	2869.4
760.349	2880.4
765.741	2868.4
771.128	2879.4
776.509	2895.4
781.885	2951.4
787.254	2924.4
792.618	2919.4
797.977	2922.4
803.33	2893.4
808.677	2873.4
814.019	2858.4
819.355	2836.4
824.686	2853.4
830.011	2813.4
835.33	2791.4
840.644	2787.4
845.952	2774.4
851.255	2779.4
856.552	2747.4
861.844	2730.4
867.13	2744.4
872.41	2729.4
877.686	2709.4
882.955	2669.4
888.219	2663.4
893.478	2607.4
898.731	2597.4
903.979	2534.4
909.221	2530.4
914.458	2528.4
919.69	2525.4
924.916	2525.4
930.136	2515.4
935.351	2537.4
940.561	2524.4
945.766	2544.4
950.965	2535.4
956.158	2507.4
961.347	2489.4
966.529	2429.4
971.707	2384.4
976.879	2387.4
982.046	2359.4
987.208	2349.4
992.364	2343.4
997.515	2362.4
1002.66	2373.4
1007.801	2380.4
1012.936	2392.4
1018.066	2424.4
1023.19	2397.4
1028.309	2408.4
1033.423	2414.4
1038.532	2409.4
1043.636	2394.4
1048.734	2359.4
1053.827	2339.4
1058.915	2299.4
1063.998	2306.4
1069.075	2295.4
1074.147	2288.4
1079.214	2295.4
1084.276	2293.4
1089.333	2301.4
1094.385	2317.4
1099.431	2295.4
1104.472	2300.4
1109.509	2289.4
1114.54	2267.4
1119.565	2226.4
1124.586	2210.4
1129.602	2192.4
1134.613	2163.4
1139.618	2141.4
1144.619	2150.4
1149.614	2122.4
1154.604	2173.4
1159.589	2165.4
1164.57	2168.4
1169.545	2170.4
1174.515	2177.4
1179.48	2169.4
1184.44	2128.4
1189.395	2110.4
1194.345	2099.4
1199.29	2076.4
1204.23	2100.4
1209.165	2107.4
1214.095	2129.4
1219.021	2124.4
1223.941	2120.4
1228.856	2144.4
1233.766	2152.4
1238.672	2134.4
1243.572	2126.4
1248.467	2140.4
1253.358	2109.4
1258.244	2075.4
1263.124	2035.4
1268	1987.4
1272.871	1970.4
1277.737	1973.4
1282.599	1969.4
1287.455	1959.4
1292.306	1958.4
1297.153	1983.4
1301.995	1971.4
1306.832	1987.4
1311.664	2019.4
1316.491	2024.4
1321.314	1992.4
1326.132	2002.4
1330.945	1974.4
1335.753	1937.4
1340.556	1907.4
1345.354	1870.4
1350.148	1861.4
1354.937	1827.4
1359.722	1815.4
1364.501	1784.4
1369.276	1753.4
1374.046	1713.4
1378.811	1707.4
1383.572	1689.4
1388.327	1687.4
1393.079	1678.4
1397.825	1694.4
1402.567	1700.4
1407.304	1678.4
1412.036	1686.4
1416.764	1684.4
1421.487	1696.4
1426.205	1698.4
1430.919	1695.4
1435.628	1711.4
1440.333	1723.4
1445.032	1740.4
1449.727	1755.4
1454.418	1762.4
1459.104	1770.4
1463.785	1738.4
1468.462	1710.4
1473.134	1669.4
1477.802	1652.4
1482.465	1592.4
1487.123	1582.4
1491.777	1568.4
1496.426	1578.4
1501.071	1531.4
1505.711	1527.4
1510.347	1531.4
1514.978	1525.4
1519.604	1529.4
1524.226	1534.4
1528.844	1506.4
1533.457	1514.4
1538.065	1500.4
1542.669	1489.4
1547.269	1483.4
1551.864	1489.4
1556.454	1498.4
1561.041	1513.4
1565.622	1515.4
1570.199	1515.4
1574.772	1547.4
1579.34	1556.4
1583.904	1573.4
1588.464	1577.4
1593.019	1591.4
1597.569	1599.4
1602.115	1598.4
1606.657	1583.4
1611.195	1567.4
1615.728	1579.4
1620.256	1591.4
1624.78	1575.4
1629.3	1564.4
1633.816	1555.4
1638.327	1603.4
1642.834	1606.4
1647.336	1596.4
1651.834	1603.4
1656.328	1605.4
1660.817	1601.4
1665.302	1589.4
1669.783	1563.4
1674.259	1532.4
1678.732	1493.4
1683.199	1455.4
1687.663	1413.4
1692.122	1352.4
1696.577	1320.4
1701.028	1258.4
1705.474	1229.4
1709.917	1190.4
1714.355	1159.4
1718.788	1147.4
1723.218	1148.4
1727.643	1158.4
1732.064	1133.4
1736.481	1152.4
1740.893	1107.4
1745.301	1091.4
1749.705	1069.4
1754.105	1043.4
1758.501	1026.4
1762.893	1024.4
1767.28	999.4
1771.663	986.4
1776.042	976.4
1780.417	983.4
1784.787	966.4
1789.154	973.4
1793.516	962.4
1797.874	938.4
1802.228	944.4
1806.578	928.4
1810.924	919.4
1815.266	897.4
1819.603	893.4
1823.937	887.4
1828.266	888.4
1832.591	890.4
1836.913	880.4
1841.23	882.4
1845.543	891.4
1849.852	882.4
1854.156	887.4
1858.457	905.4
1862.754	891.4
1867.047	890.4
1871.335	890.4
1875.62	904.4
1879.9	895.4
1884.177	894.4
1888.449	877.4
1892.718	874.4
1896.982	853.4
1901.243	846.4
1905.499	847.4
1909.752	827.4
1914	813.4
1918.245	816.4
1922.485	794.4
1926.722	795.4
1930.954	800.4
1935.183	796.4
1939.408	791.4
1943.628	791.4
1947.845	776.4
1952.058	775.4
1956.267	758.4
1960.472	753.4
1964.673	742.4
1968.87	734.4
1973.063	734.4
1977.252	724.4
1981.438	718.4
1985.619	733.4
1989.797	719.4
1993.971	728.4
1998.14	741.4
2002.306	717.4
2006.469	734.4
2010.627	727.4
2014.781	739.4
2018.932	727.4
2023.078	722.4
2027.221	726.4
2031.36	705.4
2035.495	712.4
2039.627	688.4
2043.754	686.4
2047.878	697.4
2051.998	671.4
2056.114	667.4
2060.226	683.4
2064.334	675.4
2068.439	678.4
2072.54	657.4
2076.637	664.4
2080.73	662.4
2084.82	659.4
2088.906	657.4
2092.988	654.4
2097.066	656.4
2101.14	633.4
2105.211	622.4
2109.278	610.4
2113.342	619.4
2117.401	598.4
2121.457	598.4
2125.509	597.4
2129.558	591.4
2133.602	612.4
2137.643	591.4
2141.681	596.4
2145.714	595.4
2149.744	607.4
2153.77	596.4
2157.793	579.4
2161.812	578.4
2165.827	576.4
2169.838	570.4
2173.846	559.4
2177.851	545.4
2181.851	539.4
2185.848	541.4
2189.841	530.4
2193.831	527.4
2197.817	520.4
2201.799	515.4
2205.778	514.4
2209.753	518.4
2213.725	518.4
2217.693	515.4
2221.657	523.4
2225.618	512.4
2229.575	517.4
2233.529	505.4
2237.479	496.4
2241.425	490.4
2245.368	494.4
2249.307	468.4
2253.243	470.4
2257.175	457.4
2261.104	456.4
2265.029	447.4
2268.95	452.4
2272.868	441.4
2276.783	434.4
2280.694	423.4
2284.601	420.4
2288.505	418.4
2292.405	421.4
2296.302	417.4
2300.195	409.4
2304.085	396.4
2307.971	389.4
2311.854	387.4
2315.734	372.4
2319.609	372.4
2323.482	370.4
2327.351	370.4
2331.216	389.4
2335.078	395.4
2338.937	371.4
2342.792	365.4
2346.643	359.4
2350.492	352.4
2354.336	354.4
2358.178	357.4
2362.015	365.4
2365.85	360.4
2369.681	347.4
2373.508	353.4
2377.333	352.4
2381.153	353.4
2384.971	355.4
2388.785	362.4
2392.595	346.4
2396.402	334.4
2400.206	348.4
2404.007	341.4
2407.804	343.4
2411.597	336.4
2415.388	330.4
2419.174	340.4
2422.958	327.4
2426.738	334.4
2430.515	325.4
2434.289	332.4
2438.059	323.4
2441.825	310.4
2445.589	319.4
2449.349	301.4
2453.106	313.4
2456.859	305.4
2460.61	300.4
2464.356	284.4
2468.1	285.4
2471.84	288.4
2475.577	285.4
2479.311	275.4
2483.041	290.4
2486.768	284.4
2490.492	270.4
2494.213	281.4
2497.93	284.4
2501.644	271.4
2505.355	267.4
2509.062	264.4
2512.766	273.4
2516.467	264.4
2520.165	261.4
2523.859	254.4
2527.551	256.4
2531.239	238.4
2534.923	246.4
2538.605	244.4
2542.283	251.4
2545.958	240.4
2549.63	240.4
2553.299	242.4
2556.964	240.4
2560.626	230.4
2564.285	227.4
2567.941	224.4
2571.594	223.4
2575.243	233.4
2578.89	215.4
2582.533	212.4
2586.173	206.4
2589.809	203.4
2593.443	209.4
2597.073	196.4
2600.701	202.4
2604.325	193.4
2607.946	202.4
2611.564	199.4
2615.178	200.4
2618.79	199.4
2622.398	189.4
2626.004	188.4
2629.606	190.4
2633.205	179.4
2636.801	188.4
2640.394	184.4
2643.983	180.4
2647.57	185.4
2651.153	174.4
2654.734	176.4
2658.311	166.4
2661.885	156.4
2665.456	177.4
2669.025	180.4
2672.589	170.4
2676.151	160.4
2679.71	158.4
2683.266	167.4
2686.819	154.4
2690.368	154.4
2693.915	152.4
2697.458	153.4
2700.999	152.4
2704.536	152.4
2708.071	136.4
2711.602	132.4
2715.13	142.4
2718.656	135.4
2722.178	140.4
2725.697	133.4
2729.214	129.4
2732.727	136.4
2736.237	128.4
2739.744	120.4
2743.249	121.4
2746.75	127.4
2750.248	120.4
2753.743	113.4
2757.236	110.4
2760.725	112.4
2764.211	106.4
2767.695	107.4
2771.175	97.4
2774.652	92.4
2778.127	106.4
2781.598	98.4
2785.067	109.4
2788.532	106.4
2791.995	107.4
2795.455	103.4
2798.911	107.4
2802.365	103.4
2805.816	108.4
2809.264	106.4
2812.709	113.4
2816.151	114.4
2819.59	107.4
2823.026	102.4
2826.46	96.4
2829.89	111.4
2833.318	93.4
2836.742	105.4
2840.164	99.4
2843.583	105.4
2846.999	119.4
2850.412	110.4
2853.822	107.4
2857.229	100.4
2860.634	122.4
2864.035	118.4
2867.434	120.4
2870.83	126.4
2874.223	148.4
2877.613	140.4
2881	145.4
2884.385	141.4
2887.766	137.4
2891.145	136.4
2894.521	139.4
2897.894	149.4
2901.264	152.4
2904.631	147.4
2907.996	144.4
2911.358	144.4
2914.717	143.4
2918.073	149.4
2921.426	159.4
2924.777	160.4
2928.124	163.4
2931.469	164.4
2934.811	172.4
2938.15	173.4
2941.487	174.4
2944.821	181.4
2948.152	178.4
2951.48	186.4
2954.805	185.4
2958.128	177.4
2961.447	169.4
2964.765	171.4
2968.079	176.4
2971.39	169.4
2974.699	195.4
2978.005	188.4
2981.308	191.4
2984.609	178.4
2987.907	170.4
2991.202	185.4
2994.494	181.4
2997.784	193.4
3001.07	202.4
3004.355	204.4
3007.636	202.4
3010.915	198.4
3014.191	200.4
3017.464	202.4
3020.734	197.4
3024.002	199.4
3027.267	216.4
3030.53	218.4
3033.789	224.4
3037.046	226.4
3040.301	225.4
3043.552	236.4
3046.801	245.4
3050.048	257.4
3053.291	269.4
3056.532	270.4
3059.771	278.4
3063.006	290.4
3066.239	300.4
3069.469	314.4
3072.697	317.4
3075.922	327.4
3079.144	330.4
3082.364	342.4
3085.581	358.4
3088.795	350.4
3092.007	366.4
3095.216	375.4
3098.423	381.4
3101.627	376.4
3104.828	390.4
3108.026	412.4
3111.222	421.4
3114.416	418.4
3117.607	437.4
3120.795	441.4
3123.98	454.4
3127.163	459.4
3130.344	480.4
3133.521	478.4
3136.696	500.4
3139.869	502.4
3143.039	507.4
3146.206	513.4
3149.371	517.4
3152.533	523.4
3155.693	542.4
3158.85	538.4
3162.005	549.4
3165.157	551.4
3168.306	550.4
3171.453	548.4
3174.597	556.4
3177.739	557.4
3180.878	567.4
3184.014	578.4
3187.149	565.4
3190.28	569.4
3193.409	574.4
3196.536	560.4
3199.659	575.4
3202.781	577.4
3205.9	589.4
3209.016	584.4
3212.13	575.4
3215.241	571.4
3218.35	566.4
3221.456	560.4
3224.56	559.4
3227.661	546.4
3230.76	550.4
3233.856	542.4
3236.95	517.4
3240.041	518.4
3243.13	498.4
3246.216	509.4
3249.3	487.4
3252.382	505.4
3255.46	495.4
3258.537	481.4
3261.611	485.4
3264.682	465.4
3267.751	484.4
3270.818	464.4
3273.882	465.4
3276.943	469.4
3280.002	472.4
3283.059	467.4
3286.113	456.4
3289.165	459.4
3292.214	443.4
3295.261	438.4
3298.306	427.4
3301.348	426.4
3304.387	427.4
3307.425	424.4
3310.459	413.4
3313.492	409.4
3316.521	407.4
3319.549	404.4
3322.574	400.4
3325.597	404.4
3328.617	397.4
3331.635	391.4
3334.65	390.4
3337.663	381.4
3340.674	394.4
3343.682	388.4
3346.688	376.4
3349.691	389.4
3352.692	383.4
3355.691	386.4
3358.687	377.4
3361.681	373.4
3364.673	365.4
3367.662	364.4
3370.649	349.4
3373.633	349.4
3376.615	347.4
3379.595	336.4
3382.572	334.4
3385.547	323.4
3388.52	330.4
3391.49	323.4
3394.458	322.4
3397.424	309.4
3400.387	305.4
3403.348	301.4
3406.307	303.4
3409.263	284.4
3412.217	289.4
3415.168	291.4
3418.118	285.4
3421.065	275.4
3424.009	274.4
3426.951	268.4
3429.891	261.4
3432.829	247.4
3435.764	243.4
3438.697	242.4
3441.628	231.4
3444.557	234.4
3447.483	223.4
3450.407	206.4
3453.328	203.4
3456.247	193.4
3459.164	181.4
3462.079	180.4
3464.991	173.4
3467.902	158.4
3470.809	160.4
3473.715	143.4
3476.618	146.4
3479.519	134.4
3482.418	132.4
3485.315	124.4
3488.209	111.4
3491.101	118.4
3493.99	117.4
3496.878	109.4
3499.763	97.4
3502.646	83.4
3505.527	77.4
3508.405	81.4
3511.281	75.4
3514.155	67.4
3517.027	60.4
3519.897	50.4
3522.764	49.4
3525.629	37.4
3528.492	40.4
3531.352	37.4
3534.211	25.4
3537.067	27.4
3539.921	20.4
3542.773	8.4
3545.622	9.4
3548.469	-1.6
3551.315	1.4
3554.157	-4.6
3556.998	-10.6
3559.837	-9.6
3562.673	-15.6
3565.507	-14.6
3568.339	-19.6
3571.169	-32.6
3573.996	-31.6
3576.822	-27.6
3579.645	-31.6
3582.466	-38.6
3585.285	-48.6
3588.101	-33.6
3590.916	-47.6
3593.728	-53.6
3596.538	-48.6
3599.346	-54.6
3602.152	-56.6
3604.956	-57.6
3607.757	-56.6
3610.556	-62.6
3613.354	-53.6
3616.149	-70.6
3618.942	-73.6
3621.732	-74.6
3624.521	-71.6
3627.307	-76.6
3630.092	-76.6
3632.874	-71.6
3635.654	-76.6
3638.432	-70.6
3641.208	-77.6
3643.982	-82.6
3646.753	-91.6
3649.523	-90.6
3652.29	-79.6
3655.055	-81.6
3657.818	-86.6
3660.579	-86.6
3663.338	-89.6
3666.095	-94.6
3668.849	-90.6
3671.602	-98.6
3674.352	-93.6
3677.101	-99.6
3679.847	-95.6
3682.591	-104.6
3685.333	-100.6
3688.073	-105.6
3690.811	-106.6
3693.547	-110.6
3696.281	-104.6
3699.013	-102.6
3701.742	-106.6
3704.47	-107.6
3707.195	-108.6
3709.919	-104.6
3712.64	-114.6
3715.359	-113.6
3718.076	-107.6
3720.792	-110.6
3723.505	-115.6
3726.216	-106.6
3728.925	-118.6
3731.632	-112.6
3734.336	-117.6
3737.039	-110.6
3739.74	-110.6
3742.439	-122.6
3745.136	-112.6
3747.83	-119.6
3750.523	-119.6
3753.213	-115.6
3755.902	-114.6
3758.589	-113.6
3761.273	-112.6
3763.956	-111.6
3766.636	-116.6
3769.315	-114.6
3771.991	-116.6
3774.665	-122.6
3777.338	-113.6
3780.008	-117.6
3782.677	-113.6
3785.343	-118.6
3788.007	-123.6
3790.67	-120.6
3793.33	-112.6
3795.989	-124.6
3798.645	-115.6
3801.299	-115.6
3803.952	-125.6
3806.602	-119.6
3809.251	-124.6
3811.897	-126.6
3814.542	-124.6
3817.184	-113.6
3819.825	-119.6
3822.463	-118.6
3825.1	-116.6
3827.735	-119.6
3830.367	-124.6
3832.998	-119.6
3835.627	-118.6
3838.253	-118.6
3840.878	-122.6
3843.501	-117.6
3846.122	-121.6
3848.741	-122.6
3851.358	-118.6
3853.973	-122.6
3856.586	-120.6
3859.197	-123.6
3861.806	-118.6
3864.414	-119.6
3867.019	-112.6
3869.622	-120.6
3872.224	-109.6
3874.823	-100.6
3877.421	-91.6
3880.016	-70.6
3882.61	-47.6
3885.202	-49.6
3887.792	-63.6
3890.38	-85.6
3892.966	-109.6
3895.55	-115.6
3898.132	-118.6
3900.713	-122.6
3903.291	-123.6
3905.868	-125.6
3908.442	-117.6
3911.015	-123.6
3913.586	-130.6
3916.155	-123.6
3918.722	-123.6
3921.287	-124.6
3923.85	-125.6
3926.411	-125.6
3928.971	-123.6
3931.528	-125.6
3934.084	-124.6
3936.638	-114.6
3939.19	-123.6
3941.74	-125.6
3944.288	-130.6
3946.834	-119.6
3949.378	-122.6
3951.921	-119.6
3954.462	-127.6
3957	-122.6
3959.537	-121.6
3962.072	-128.6
3964.606	-118.6
3967.137	-120.6
3969.667	-120.6
3972.194	-125.6
3974.72	-120.6
3977.244	-121.6
3979.766	-127.6
3982.286	-123.6
3984.805	-123.6
3987.321	-123.6
3989.836	-118.6
3992.349	-125.6
3994.86	-116.6
3997.369	-126.6
3999.877	-124.6
4002.382	-118.6
4004.886	-121.6
4007.388	-120.6
4009.888	-120.6
4012.386	-121.6
4014.883	-121.6
4017.377	-121.6
4019.87	-114.6
4022.361	-123.6
4024.85	-123.6
4027.338	-124.6
4029.823	-118.6
4032.307	-117.6
4034.789	-120.6
4037.269	-124.6
4039.747	-115.6
4042.224	-118.6
4044.699	-121.6
4047.172	-116.6
4049.643	-115.6
4052.112	-120.6
4054.58	-119.6
4057.046	-119.6
4059.51	-119.6
4061.972	-121.6
4064.432	-120.6
4066.891	-123.6
4069.348	-120.6
4071.803	-119.6
4074.256	-121.6
4076.708	-116.6
4079.158	-123.6
4081.606	-114.6
4084.052	-128.6
4086.497	-121.6
4088.939	-113.6
4091.38	-122.6
4093.819	-122.6
4096.257	-125.6
4098.693	-124.6
4101.127	-126.6
4103.559	-126.6
4105.989	7.4
4108.418	3.4
4110.845	9.4
4113.27	-4.6
4115.694	-7.6
4118.115	-2.6
4120.535	-120.6
4122.954	-124.6
4125.37	-117.6
4127.785	-119.6
4130.198	-124.6
4132.609	-124.6
4135.019	-123.6
4137.427	-127.6
4139.833	-125.6
4142.237	-127.6
