Data from 2018-2-8_conc=2_n=8_RamanShift_04.txt Node
Date: Mon Mar 12 14:20:28 IST 2018
User: aro
Spectrometer: QEPB0276
Trigger mode: 0
Integration Time (sec): 3.000000E1
Scans to average: 1
Electric dark correction enabled: true
Nonlinearity correction enabled: false
Boxcar width: 0
XAxis mode: Raman Shifts
Number of Pixels in Spectrum: 1044
>>>>>Begin Spectral Data<<<<<
160.701	14.5
166.742	46.5
172.777	135.5
178.805	409.5
184.826	1122.5
190.841	2421.5
196.849	4035.5
202.85	5357.5
208.845	5844.5
214.833	5845.5
220.815	5759.5
226.789	5747.5
232.758	5731.5
238.719	5736.5
244.674	5698.5
250.623	5614.5
256.565	5548.5
262.5	5453.5
268.429	5396.5
274.351	5338.5
280.267	5257.5
286.176	5260.5
292.079	5251.5
297.975	5198.5
303.865	5185.5
309.748	5175.5
315.625	5131.5
321.495	5142.5
327.359	5150.5
333.217	5138.5
339.068	5126.5
344.912	5134.5
350.751	5122.5
356.583	5146.5
362.408	5147.5
368.227	5149.5
374.04	5166.5
379.847	5184.5
385.647	5215.5
391.44	5210.5
397.228	5209.5
403.009	5273.5
408.784	5319.5
414.553	5300.5
420.315	5316.5
426.071	5341.5
431.821	5318.5
437.565	5289.5
443.302	5296.5
449.033	5297.5
454.758	5278.5
460.477	5283.5
466.189	5171.5
471.896	5223.5
477.596	5176.5
483.29	5135.5
488.978	5120.5
494.66	5104.5
500.335	5081.5
506.005	4938.5
511.668	4801.5
517.325	4655.5
522.977	4564.5
528.622	4490.5
534.261	4434.5
539.894	4389.5
545.521	4370.5
551.141	4306.5
556.756	4299.5
562.365	4283.5
567.968	4264.5
573.565	4229.5
579.155	4220.5
584.74	4199.5
590.319	4149.5
595.892	4143.5
601.459	4135.5
607.02	4146.5
612.575	4093.5
618.124	4084.5
623.667	4022.5
629.204	4015.5
634.735	3961.5
640.261	3955.5
645.781	3912.5
651.294	3921.5
656.802	3893.5
662.304	3898.5
667.8	3880.5
673.29	3858.5
678.775	3875.5
684.254	3848.5
689.726	3848.5
695.193	3820.5
700.655	3781.5
706.11	3776.5
711.56	3755.5
717.004	3737.5
722.442	3717.5
727.874	3716.5
733.301	3703.5
738.722	3687.5
744.137	3654.5
749.547	3633.5
754.951	3655.5
760.349	3652.5
765.741	3669.5
771.128	3677.5
776.509	3683.5
781.885	3720.5
787.254	3725.5
792.618	3696.5
797.977	3701.5
803.33	3654.5
808.677	3649.5
814.019	3614.5
819.355	3606.5
824.686	3568.5
830.011	3567.5
835.33	3549.5
840.644	3535.5
845.952	3524.5
851.255	3522.5
856.552	3516.5
861.844	3482.5
867.13	3505.5
872.41	3468.5
877.686	3436.5
882.955	3389.5
888.219	3397.5
893.478	3357.5
898.731	3313.5
903.979	3244.5
909.221	3238.5
914.458	3232.5
919.69	3213.5
924.916	3225.5
930.136	3214.5
935.351	3235.5
940.561	3220.5
945.766	3213.5
950.965	3222.5
956.158	3184.5
961.347	3166.5
966.529	3103.5
971.707	3082.5
976.879	3045.5
982.046	2998.5
987.208	2985.5
992.364	2984.5
997.515	3024.5
1002.66	3024.5
1007.801	3053.5
1012.936	3101.5
1018.066	3091.5
1023.19	3098.5
1028.309	3075.5
1033.423	3094.5
1038.532	3065.5
1043.636	3051.5
1048.734	3022.5
1053.827	2990.5
1058.915	2943.5
1063.998	2930.5
1069.075	2908.5
1074.147	2901.5
1079.214	2920.5
1084.276	2933.5
1089.333	2935.5
1094.385	2939.5
1099.431	2969.5
1104.472	2970.5
1109.509	2937.5
1114.54	2887.5
1119.565	2876.5
1124.586	2817.5
1129.602	2766.5
1134.613	2782.5
1139.618	2754.5
1144.619	2737.5
1149.614	2750.5
1154.604	2746.5
1159.589	2764.5
1164.57	2767.5
1169.545	2777.5
1174.515	2756.5
1179.48	2741.5
1184.44	2719.5
1189.395	2723.5
1194.345	2672.5
1199.29	2661.5
1204.23	2664.5
1209.165	2672.5
1214.095	2689.5
1219.021	2703.5
1223.941	2703.5
1228.856	2706.5
1233.766	2735.5
1238.672	2754.5
1243.572	2758.5
1248.467	2724.5
1253.358	2690.5
1258.244	2646.5
1263.124	2600.5
1268	2557.5
1272.871	2503.5
1277.737	2521.5
1282.599	2493.5
1287.455	2504.5
1292.306	2489.5
1297.153	2522.5
1301.995	2542.5
1306.832	2554.5
1311.664	2560.5
1316.491	2564.5
1321.314	2553.5
1326.132	2549.5
1330.945	2502.5
1335.753	2463.5
1340.556	2430.5
1345.354	2409.5
1350.148	2359.5
1354.937	2330.5
1359.722	2272.5
1364.501	2247.5
1369.276	2194.5
1374.046	2150.5
1378.811	2140.5
1383.572	2133.5
1388.327	2124.5
1393.079	2131.5
1397.825	2136.5
1402.567	2133.5
1407.304	2127.5
1412.036	2126.5
1416.764	2147.5
1421.487	2138.5
1426.205	2149.5
1430.919	2153.5
1435.628	2165.5
1440.333	2173.5
1445.032	2196.5
1449.727	2223.5
1454.418	2247.5
1459.104	2208.5
1463.785	2196.5
1468.462	2168.5
1473.134	2125.5
1477.802	2065.5
1482.465	2033.5
1487.123	1977.5
1491.777	1960.5
1496.426	1947.5
1501.071	1920.5
1505.711	1908.5
1510.347	1904.5
1514.978	1897.5
1519.604	1895.5
1524.226	1895.5
1528.844	1892.5
1533.457	1869.5
1538.065	1854.5
1542.669	1836.5
1547.269	1846.5
1551.864	1826.5
1556.454	1886.5
1561.041	1897.5
1565.622	1910.5
1570.199	1885.5
1574.772	1927.5
1579.34	1949.5
1583.904	1979.5
1588.464	2010.5
1593.019	1986.5
1597.569	2006.5
1602.115	2003.5
1606.657	1988.5
1611.195	1972.5
1615.728	1965.5
1620.256	1966.5
1624.78	1968.5
1629.3	1979.5
1633.816	1995.5
1638.327	2001.5
1642.834	1994.5
1647.336	2012.5
1651.834	2016.5
1656.328	2015.5
1660.817	1993.5
1665.302	1988.5
1669.783	1939.5
1674.259	1919.5
1678.732	1860.5
1683.199	1792.5
1687.663	1741.5
1692.122	1694.5
1696.577	1613.5
1701.028	1553.5
1705.474	1496.5
1709.917	1437.5
1714.355	1407.5
1718.788	1401.5
1723.218	1411.5
1727.643	1408.5
1732.064	1402.5
1736.481	1398.5
1740.893	1366.5
1745.301	1338.5
1749.705	1303.5
1754.105	1270.5
1758.501	1256.5
1762.893	1241.5
1767.28	1219.5
1771.663	1226.5
1776.042	1207.5
1780.417	1169.5
1784.787	1188.5
1789.154	1163.5
1793.516	1151.5
1797.874	1122.5
1802.228	1135.5
1806.578	1107.5
1810.924	1097.5
1815.266	1088.5
1819.603	1093.5
1823.937	1080.5
1828.266	1088.5
1832.591	1097.5
1836.913	1089.5
1841.23	1085.5
1845.543	1098.5
1849.852	1081.5
1854.156	1078.5
1858.457	1085.5
1862.754	1087.5
1867.047	1089.5
1871.335	1085.5
1875.62	1095.5
1879.9	1084.5
1884.177	1082.5
1888.449	1054.5
1892.718	1051.5
1896.982	1042.5
1901.243	1026.5
1905.499	1010.5
1909.752	1005.5
1914	989.5
1918.245	978.5
1922.485	965.5
1926.722	958.5
1930.954	950.5
1935.183	946.5
1939.408	934.5
1943.628	931.5
1947.845	920.5
1952.058	922.5
1956.267	910.5
1960.472	897.5
1964.673	896.5
1968.87	884.5
1973.063	866.5
1977.252	860.5
1981.438	867.5
1985.619	870.5
1989.797	856.5
1993.971	883.5
1998.14	893.5
2002.306	874.5
2006.469	879.5
2010.627	880.5
2014.781	902.5
2018.932	884.5
2023.078	892.5
2027.221	870.5
2031.36	863.5
2035.495	847.5
2039.627	845.5
2043.754	816.5
2047.878	818.5
2051.998	814.5
2056.114	810.5
2060.226	835.5
2064.334	826.5
2068.439	800.5
2072.54	795.5
2076.637	815.5
2080.73	800.5
2084.82	780.5
2088.906	791.5
2092.988	771.5
2097.066	776.5
2101.14	750.5
2105.211	761.5
2109.278	730.5
2113.342	728.5
2117.401	719.5
2121.457	719.5
2125.509	709.5
2129.558	714.5
2133.602	716.5
2137.643	724.5
2141.681	713.5
2145.714	697.5
2149.744	705.5
2153.77	714.5
2157.793	704.5
2161.812	705.5
2165.827	696.5
2169.838	688.5
2173.846	662.5
2177.851	666.5
2181.851	652.5
2185.848	657.5
2189.841	648.5
2193.831	649.5
2197.817	628.5
2201.799	634.5
2205.778	629.5
2209.753	632.5
2213.725	631.5
2217.693	626.5
2221.657	636.5
2225.618	634.5
2229.575	630.5
2233.529	614.5
2237.479	625.5
2241.425	604.5
2245.368	607.5
2249.307	592.5
2253.243	579.5
2257.175	574.5
2261.104	572.5
2265.029	548.5
2268.95	549.5
2272.868	542.5
2276.783	526.5
2280.694	532.5
2284.601	521.5
2288.505	527.5
2292.405	515.5
2296.302	512.5
2300.195	518.5
2304.085	494.5
2307.971	476.5
2311.854	486.5
2315.734	466.5
2319.609	467.5
2323.482	466.5
2327.351	463.5
2331.216	480.5
2335.078	477.5
2338.937	465.5
2342.792	455.5
2346.643	449.5
2350.492	454.5
2354.336	451.5
2358.178	456.5
2362.015	450.5
2365.85	453.5
2369.681	448.5
2373.508	465.5
2377.333	456.5
2381.153	452.5
2384.971	464.5
2388.785	456.5
2392.595	450.5
2396.402	430.5
2400.206	441.5
2404.007	446.5
2407.804	432.5
2411.597	432.5
2415.388	430.5
2419.174	427.5
2422.958	425.5
2426.738	417.5
2430.515	419.5
2434.289	420.5
2438.059	402.5
2441.825	409.5
2445.589	399.5
2449.349	394.5
2453.106	393.5
2456.859	390.5
2460.61	392.5
2464.356	382.5
2468.1	364.5
2471.84	363.5
2475.577	370.5
2479.311	361.5
2483.041	355.5
2486.768	357.5
2490.492	349.5
2494.213	361.5
2497.93	355.5
2501.644	350.5
2505.355	345.5
2509.062	337.5
2512.766	331.5
2516.467	334.5
2520.165	340.5
2523.859	328.5
2527.551	325.5
2531.239	309.5
2534.923	310.5
2538.605	312.5
2542.283	310.5
2545.958	299.5
2549.63	308.5
2553.299	305.5
2556.964	310.5
2560.626	298.5
2564.285	287.5
2567.941	282.5
2571.594	281.5
2575.243	277.5
2578.89	273.5
2582.533	268.5
2586.173	269.5
2589.809	257.5
2593.443	260.5
2597.073	258.5
2600.701	252.5
2604.325	253.5
2607.946	252.5
2611.564	247.5
2615.178	248.5
2618.79	251.5
2622.398	245.5
2626.004	247.5
2629.606	242.5
2633.205	247.5
2636.801	231.5
2640.394	234.5
2643.983	237.5
2647.57	241.5
2651.153	231.5
2654.734	218.5
2658.311	215.5
2661.885	218.5
2665.456	219.5
2669.025	217.5
2672.589	221.5
2676.151	217.5
2679.71	206.5
2683.266	214.5
2686.819	212.5
2690.368	195.5
2693.915	195.5
2697.458	190.5
2700.999	191.5
2704.536	186.5
2708.071	171.5
2711.602	181.5
2715.13	181.5
2718.656	177.5
2722.178	175.5
2725.697	170.5
2729.214	158.5
2732.727	163.5
2736.237	164.5
2739.744	152.5
2743.249	166.5
2746.75	165.5
2750.248	151.5
2753.743	144.5
2757.236	139.5
2760.725	140.5
2764.211	139.5
2767.695	140.5
2771.175	129.5
2774.652	128.5
2778.127	137.5
2781.598	126.5
2785.067	137.5
2788.532	130.5
2791.995	136.5
2795.455	141.5
2798.911	134.5
2802.365	131.5
2805.816	143.5
2809.264	131.5
2812.709	144.5
2816.151	138.5
2819.59	132.5
2823.026	139.5
2826.46	140.5
2829.89	138.5
2833.318	128.5
2836.742	137.5
2840.164	140.5
2843.583	137.5
2846.999	138.5
2850.412	140.5
2853.822	142.5
2857.229	139.5
2860.634	148.5
2864.035	156.5
2867.434	160.5
2870.83	161.5
2874.223	173.5
2877.613	175.5
2881	189.5
2884.385	187.5
2887.766	174.5
2891.145	179.5
2894.521	181.5
2897.894	178.5
2901.264	190.5
2904.631	192.5
2907.996	183.5
2911.358	194.5
2914.717	199.5
2918.073	200.5
2921.426	212.5
2924.777	214.5
2928.124	222.5
2931.469	228.5
2934.811	230.5
2938.15	236.5
2941.487	236.5
2944.821	234.5
2948.152	239.5
2951.48	237.5
2954.805	245.5
2958.128	230.5
2961.447	231.5
2964.765	229.5
2968.079	231.5
2971.39	227.5
2974.699	238.5
2978.005	232.5
2981.308	231.5
2984.609	233.5
2987.907	235.5
2991.202	239.5
2994.494	236.5
2997.784	248.5
3001.07	244.5
3004.355	252.5
3007.636	257.5
3010.915	253.5
3014.191	265.5
3017.464	272.5
3020.734	260.5
3024.002	256.5
3027.267	277.5
3030.53	279.5
3033.789	287.5
3037.046	291.5
3040.301	289.5
3043.552	313.5
3046.801	319.5
3050.048	313.5
3053.291	339.5
3056.532	342.5
3059.771	360.5
3063.006	367.5
3066.239	388.5
3069.469	399.5
3072.697	412.5
3075.922	428.5
3079.144	431.5
3082.364	442.5
3085.581	455.5
3088.795	447.5
3092.007	457.5
3095.216	467.5
3098.423	488.5
3101.627	499.5
3104.828	516.5
3108.026	514.5
3111.222	531.5
3114.416	534.5
3117.607	551.5
3120.795	561.5
3123.98	575.5
3127.163	578.5
3130.344	603.5
3133.521	619.5
3136.696	629.5
3139.869	628.5
3143.039	649.5
3146.206	655.5
3149.371	659.5
3152.533	668.5
3155.693	676.5
3158.85	681.5
3162.005	695.5
3165.157	699.5
3168.306	692.5
3171.453	695.5
3174.597	699.5
3177.739	710.5
3180.878	707.5
3184.014	732.5
3187.149	715.5
3190.28	714.5
3193.409	717.5
3196.536	716.5
3199.659	713.5
3202.781	722.5
3205.9	725.5
3209.016	727.5
3212.13	727.5
3215.241	716.5
3218.35	723.5
3221.456	702.5
3224.56	712.5
3227.661	685.5
3230.76	695.5
3233.856	678.5
3236.95	648.5
3240.041	654.5
3243.13	646.5
3246.216	635.5
3249.3	625.5
3252.382	627.5
3255.46	629.5
3258.537	621.5
3261.611	607.5
3264.682	600.5
3267.751	591.5
3270.818	586.5
3273.882	595.5
3276.943	585.5
3280.002	599.5
3283.059	583.5
3286.113	575.5
3289.165	586.5
3292.214	570.5
3295.261	554.5
3298.306	537.5
3301.348	544.5
3304.387	543.5
3307.425	532.5
3310.459	538.5
3313.492	518.5
3316.521	517.5
3319.549	506.5
3322.574	506.5
3325.597	503.5
3328.617	503.5
3331.635	491.5
3334.65	497.5
3337.663	476.5
3340.674	494.5
3343.682	493.5
3346.688	482.5
3349.691	493.5
3352.692	490.5
3355.691	475.5
3358.687	490.5
3361.681	480.5
3364.673	473.5
3367.662	460.5
3370.649	460.5
3373.633	449.5
3376.615	437.5
3379.595	437.5
3382.572	426.5
3385.547	423.5
3388.52	423.5
3391.49	402.5
3394.458	403.5
3397.424	389.5
3400.387	390.5
3403.348	387.5
3406.307	379.5
3409.263	374.5
3412.217	373.5
3415.168	375.5
3418.118	365.5
3421.065	352.5
3424.009	348.5
3426.951	352.5
3429.891	336.5
3432.829	330.5
3435.764	309.5
3438.697	307.5
3441.628	294.5
3444.557	286.5
3447.483	284.5
3450.407	267.5
3453.328	250.5
3456.247	251.5
3459.164	235.5
3462.079	230.5
3464.991	220.5
3467.902	211.5
3470.809	212.5
3473.715	188.5
3476.618	186.5
3479.519	180.5
3482.418	181.5
3485.315	168.5
3488.209	154.5
3491.101	151.5
3493.99	146.5
3496.878	136.5
3499.763	133.5
3502.646	122.5
3505.527	102.5
3508.405	106.5
3511.281	95.5
3514.155	88.5
3517.027	84.5
3519.897	73.5
3522.764	63.5
3525.629	60.5
3528.492	50.5
3531.352	46.5
3534.211	36.5
3537.067	29.5
3539.921	30.5
3542.773	22.5
3545.622	16.5
3548.469	3.5
3551.315	8.5
3554.157	-3.5
3556.998	-10.5
3559.837	-11.5
3562.673	-16.5
3565.507	-20.5
3568.339	-21.5
3571.169	-25.5
3573.996	-29.5
3576.822	-31.5
3579.645	-37.5
3582.466	-36.5
3585.285	-49.5
3588.101	-39.5
3590.916	-49.5
3593.728	-55.5
3596.538	-54.5
3599.346	-60.5
3602.152	-59.5
3604.956	-62.5
3607.757	-61.5
3610.556	-69.5
3613.354	-68.5
3616.149	-76.5
3618.942	-83.5
3621.732	-82.5
3624.521	-81.5
3627.307	-77.5
3630.092	-84.5
3632.874	-82.5
3635.654	-90.5
3638.432	-88.5
3641.208	-87.5
3643.982	-94.5
3646.753	-96.5
3649.523	-100.5
3652.29	-95.5
3655.055	-97.5
3657.818	-95.5
3660.579	-102.5
3663.338	-103.5
3666.095	-105.5
3668.849	-106.5
3671.602	-109.5
3674.352	-108.5
3677.101	-113.5
3679.847	-112.5
3682.591	-120.5
3685.333	-114.5
3688.073	-117.5
3690.811	-116.5
3693.547	-124.5
3696.281	-123.5
3699.013	-124.5
3701.742	-116.5
3704.47	-124.5
3707.195	-121.5
3709.919	-125.5
3712.64	-120.5
3715.359	-134.5
3718.076	-123.5
3720.792	-129.5
3723.505	-131.5
3726.216	-130.5
3728.925	-129.5
3731.632	-128.5
3734.336	-142.5
3737.039	-134.5
3739.74	-134.5
3742.439	-134.5
3745.136	-129.5
3747.83	-137.5
3750.523	-133.5
3753.213	-142.5
3755.902	-135.5
3758.589	-140.5
3761.273	-130.5
3763.956	-129.5
3766.636	-137.5
3769.315	-133.5
3771.991	-131.5
3774.665	-142.5
3777.338	-131.5
3780.008	-136.5
3782.677	-137.5
3785.343	-130.5
3788.007	-136.5
3790.67	-135.5
3793.33	-139.5
3795.989	-137.5
3798.645	-138.5
3801.299	-138.5
3803.952	-144.5
3806.602	-133.5
3809.251	-140.5
3811.897	-144.5
3814.542	-139.5
3817.184	-140.5
3819.825	-138.5
3822.463	-136.5
3825.1	-138.5
3827.735	-140.5
3830.367	-138.5
3832.998	-142.5
3835.627	-139.5
3838.253	-138.5
3840.878	-139.5
3843.501	-136.5
3846.122	-141.5
3848.741	-143.5
3851.358	-138.5
3853.973	-145.5
3856.586	-142.5
3859.197	-148.5
3861.806	-133.5
3864.414	-142.5
3867.019	-138.5
3869.622	-141.5
3872.224	-127.5
3874.823	-126.5
3877.421	-116.5
3880.016	-95.5
3882.61	-75.5
3885.202	-76.5
3887.792	-81.5
3890.38	-106.5
3892.966	-130.5
3895.55	-138.5
3898.132	-139.5
3900.713	-137.5
3903.291	-144.5
3905.868	-141.5
3908.442	-138.5
3911.015	-140.5
3913.586	-146.5
3916.155	-142.5
3918.722	-144.5
3921.287	-141.5
3923.85	-145.5
3926.411	-142.5
3928.971	-141.5
3931.528	-142.5
3934.084	-145.5
3936.638	-139.5
3939.19	-146.5
3941.74	-147.5
3944.288	-146.5
3946.834	-136.5
3949.378	-138.5
3951.921	-143.5
3954.462	-149.5
3957	-151.5
3959.537	-141.5
3962.072	-141.5
3964.606	-137.5
3967.137	-139.5
3969.667	-146.5
3972.194	-146.5
3974.72	-147.5
3977.244	-143.5
3979.766	-145.5
3982.286	-143.5
3984.805	-145.5
3987.321	-139.5
3989.836	-129.5
3992.349	-142.5
3994.86	-143.5
3997.369	-142.5
3999.877	-144.5
4002.382	-133.5
4004.886	-142.5
4007.388	-136.5
4009.888	-141.5
4012.386	-145.5
4014.883	-143.5
4017.377	-143.5
4019.87	-136.5
4022.361	-140.5
4024.85	-140.5
4027.338	-138.5
4029.823	-141.5
4032.307	-137.5
4034.789	-148.5
4037.269	-142.5
4039.747	-136.5
4042.224	-143.5
4044.699	-143.5
4047.172	-132.5
4049.643	-135.5
4052.112	-139.5
4054.58	-141.5
4057.046	-140.5
4059.51	-142.5
4061.972	-140.5
4064.432	-137.5
4066.891	-135.5
4069.348	-137.5
4071.803	-141.5
4074.256	-138.5
4076.708	-140.5
4079.158	-140.5
4081.606	-136.5
4084.052	-142.5
4086.497	-144.5
4088.939	-138.5
4091.38	-138.5
4093.819	-140.5
4096.257	-145.5
4098.693	-146.5
4101.127	-146.5
4103.559	-144.5
4105.989	-15.5
4108.418	-13.5
4110.845	-9.5
4113.27	-13.5
4115.694	-14.5
4118.115	-19.5
4120.535	-144.5
4122.954	-144.5
4125.37	-137.5
4127.785	-140.5
4130.198	-140.5
4132.609	-139.5
4135.019	-151.5
4137.427	-153.5
4139.833	-151.5
4142.237	-149.5
