Data from 2018-2-8_conc=4_n=2_RamanShift_05.txt Node
Date: Mon Mar 12 15:13:58 IST 2018
User: aro
Spectrometer: QEPB0276
Trigger mode: 0
Integration Time (sec): 3.000000E1
Scans to average: 1
Electric dark correction enabled: true
Nonlinearity correction enabled: false
Boxcar width: 0
XAxis mode: Raman Shifts
Number of Pixels in Spectrum: 1044
>>>>>Begin Spectral Data<<<<<
160.701	18.6
166.742	54.6
172.777	135.6
178.805	436.6
184.826	1185.6
190.841	2538.6
196.849	4231.6
202.85	5553.6
208.845	6100.6
214.833	6071.6
220.815	6015.6
226.789	5981.6
232.758	5950.6
238.719	5967.6
244.674	5909.6
250.623	5891.6
256.565	5805.6
262.5	5679.6
268.429	5638.6
274.351	5582.6
280.267	5510.6
286.176	5472.6
292.079	5471.6
297.975	5452.6
303.865	5408.6
309.748	5394.6
315.625	5365.6
321.495	5372.6
327.359	5360.6
333.217	5396.6
339.068	5363.6
344.912	5359.6
350.751	5372.6
356.583	5381.6
362.408	5387.6
368.227	5363.6
374.04	5397.6
379.847	5398.6
385.647	5449.6
391.44	5477.6
397.228	5466.6
403.009	5542.6
408.784	5562.6
414.553	5567.6
420.315	5611.6
426.071	5585.6
431.821	5581.6
437.565	5558.6
443.302	5585.6
449.033	5551.6
454.758	5538.6
460.477	5482.6
466.189	5430.6
471.896	5442.6
477.596	5399.6
483.29	5403.6
488.978	5383.6
494.66	5370.6
500.335	5292.6
506.005	5181.6
511.668	5036.6
517.325	4888.6
522.977	4780.6
528.622	4708.6
534.261	4657.6
539.894	4564.6
545.521	4547.6
551.141	4502.6
556.756	4485.6
562.365	4479.6
567.968	4436.6
573.565	4397.6
579.155	4354.6
584.74	4356.6
590.319	4356.6
595.892	4349.6
601.459	4324.6
607.02	4321.6
612.575	4266.6
618.124	4255.6
623.667	4212.6
629.204	4184.6
634.735	4143.6
640.261	4124.6
645.781	4109.6
651.294	4106.6
656.802	4081.6
662.304	4058.6
667.8	4088.6
673.29	4060.6
678.775	4038.6
684.254	4033.6
689.726	4011.6
695.193	4003.6
700.655	3998.6
706.11	3974.6
711.56	3955.6
717.004	3925.6
722.442	3903.6
727.874	3878.6
733.301	3858.6
738.722	3841.6
744.137	3822.6
749.547	3832.6
754.951	3816.6
760.349	3829.6
765.741	3799.6
771.128	3840.6
776.509	3866.6
781.885	3880.6
787.254	3894.6
792.618	3861.6
797.977	3858.6
803.33	3833.6
808.677	3813.6
814.019	3820.6
819.355	3761.6
824.686	3743.6
830.011	3725.6
835.33	3719.6
840.644	3705.6
845.952	3678.6
851.255	3721.6
856.552	3690.6
861.844	3666.6
867.13	3639.6
872.41	3634.6
877.686	3614.6
882.955	3560.6
888.219	3558.6
893.478	3492.6
898.731	3462.6
903.979	3416.6
909.221	3383.6
914.458	3356.6
919.69	3388.6
924.916	3341.6
930.136	3396.6
935.351	3388.6
940.561	3400.6
945.766	3376.6
950.965	3353.6
956.158	3325.6
961.347	3304.6
966.529	3273.6
971.707	3214.6
976.879	3158.6
982.046	3151.6
987.208	3131.6
992.364	3139.6
997.515	3138.6
1002.66	3179.6
1007.801	3202.6
1012.936	3224.6
1018.066	3240.6
1023.19	3221.6
1028.309	3257.6
1033.423	3212.6
1038.532	3217.6
1043.636	3191.6
1048.734	3153.6
1053.827	3093.6
1058.915	3065.6
1063.998	3068.6
1069.075	3059.6
1074.147	3072.6
1079.214	3032.6
1084.276	3071.6
1089.333	3100.6
1094.385	3078.6
1099.431	3116.6
1104.472	3086.6
1109.509	3059.6
1114.54	3020.6
1119.565	2987.6
1124.586	2947.6
1129.602	2912.6
1134.613	2889.6
1139.618	2869.6
1144.619	2884.6
1149.614	2856.6
1154.604	2887.6
1159.589	2874.6
1164.57	2862.6
1169.545	2893.6
1174.515	2890.6
1179.48	2885.6
1184.44	2863.6
1189.395	2821.6
1194.345	2822.6
1199.29	2790.6
1204.23	2793.6
1209.165	2801.6
1214.095	2820.6
1219.021	2829.6
1223.941	2852.6
1228.856	2850.6
1233.766	2864.6
1238.672	2891.6
1243.572	2869.6
1248.467	2822.6
1253.358	2795.6
1258.244	2768.6
1263.124	2704.6
1268	2682.6
1272.871	2677.6
1277.737	2638.6
1282.599	2619.6
1287.455	2616.6
1292.306	2595.6
1297.153	2611.6
1301.995	2649.6
1306.832	2648.6
1311.664	2666.6
1316.491	2678.6
1321.314	2679.6
1326.132	2655.6
1330.945	2616.6
1335.753	2576.6
1340.556	2538.6
1345.354	2492.6
1350.148	2461.6
1354.937	2431.6
1359.722	2379.6
1364.501	2348.6
1369.276	2330.6
1374.046	2283.6
1378.811	2264.6
1383.572	2243.6
1388.327	2238.6
1393.079	2232.6
1397.825	2231.6
1402.567	2250.6
1407.304	2250.6
1412.036	2255.6
1416.764	2243.6
1421.487	2236.6
1426.205	2258.6
1430.919	2280.6
1435.628	2259.6
1440.333	2305.6
1445.032	2299.6
1449.727	2325.6
1454.418	2329.6
1459.104	2330.6
1463.785	2293.6
1468.462	2259.6
1473.134	2213.6
1477.802	2160.6
1482.465	2121.6
1487.123	2080.6
1491.777	2040.6
1496.426	2021.6
1501.071	2001.6
1505.711	1998.6
1510.347	2003.6
1514.978	1992.6
1519.604	1985.6
1524.226	1995.6
1528.844	1950.6
1533.457	1968.6
1538.065	1980.6
1542.669	1958.6
1547.269	1962.6
1551.864	1958.6
1556.454	1997.6
1561.041	2008.6
1565.622	2015.6
1570.199	2013.6
1574.772	2029.6
1579.34	2071.6
1583.904	2094.6
1588.464	2097.6
1593.019	2105.6
1597.569	2117.6
1602.115	2092.6
1606.657	2086.6
1611.195	2095.6
1615.728	2067.6
1620.256	2050.6
1624.78	2070.6
1629.3	2073.6
1633.816	2131.6
1638.327	2115.6
1642.834	2091.6
1647.336	2135.6
1651.834	2100.6
1656.328	2108.6
1660.817	2115.6
1665.302	2088.6
1669.783	2052.6
1674.259	1991.6
1678.732	1945.6
1683.199	1880.6
1687.663	1853.6
1692.122	1769.6
1696.577	1710.6
1701.028	1636.6
1705.474	1576.6
1709.917	1529.6
1714.355	1519.6
1718.788	1483.6
1723.218	1485.6
1727.643	1486.6
1732.064	1488.6
1736.481	1458.6
1740.893	1435.6
1745.301	1408.6
1749.705	1396.6
1754.105	1363.6
1758.501	1340.6
1762.893	1328.6
1767.28	1306.6
1771.663	1306.6
1776.042	1281.6
1780.417	1260.6
1784.787	1266.6
1789.154	1240.6
1793.516	1230.6
1797.874	1213.6
1802.228	1207.6
1806.578	1196.6
1810.924	1175.6
1815.266	1153.6
1819.603	1156.6
1823.937	1165.6
1828.266	1155.6
1832.591	1147.6
1836.913	1163.6
1841.23	1171.6
1845.543	1165.6
1849.852	1151.6
1854.156	1167.6
1858.457	1161.6
1862.754	1162.6
1867.047	1163.6
1871.335	1157.6
1875.62	1160.6
1879.9	1160.6
1884.177	1153.6
1888.449	1130.6
1892.718	1109.6
1896.982	1093.6
1901.243	1100.6
1905.499	1070.6
1909.752	1055.6
1914	1053.6
1918.245	1039.6
1922.485	1017.6
1926.722	1010.6
1930.954	1001.6
1935.183	997.6
1939.408	990.6
1943.628	994.6
1947.845	970.6
1952.058	969.6
1956.267	956.6
1960.472	961.6
1964.673	961.6
1968.87	950.6
1973.063	936.6
1977.252	927.6
1981.438	945.6
1985.619	944.6
1989.797	916.6
1993.971	944.6
1998.14	939.6
2002.306	943.6
2006.469	959.6
2010.627	937.6
2014.781	952.6
2018.932	939.6
2023.078	943.6
2027.221	940.6
2031.36	916.6
2035.495	912.6
2039.627	898.6
2043.754	885.6
2047.878	876.6
2051.998	883.6
2056.114	859.6
2060.226	853.6
2064.334	873.6
2068.439	860.6
2072.54	851.6
2076.637	852.6
2080.73	858.6
2084.82	852.6
2088.906	854.6
2092.988	837.6
2097.066	826.6
2101.14	806.6
2105.211	807.6
2109.278	790.6
2113.342	778.6
2117.401	777.6
2121.457	766.6
2125.509	772.6
2129.558	764.6
2133.602	770.6
2137.643	752.6
2141.681	771.6
2145.714	755.6
2149.744	760.6
2153.77	766.6
2157.793	755.6
2161.812	757.6
2165.827	734.6
2169.838	739.6
2173.846	723.6
2177.851	698.6
2181.851	692.6
2185.848	678.6
2189.841	685.6
2193.831	685.6
2197.817	684.6
2201.799	673.6
2205.778	683.6
2209.753	668.6
2213.725	675.6
2217.693	674.6
2221.657	664.6
2225.618	666.6
2229.575	667.6
2233.529	670.6
2237.479	660.6
2241.425	640.6
2245.368	633.6
2249.307	617.6
2253.243	612.6
2257.175	597.6
2261.104	600.6
2265.029	593.6
2268.95	589.6
2272.868	578.6
2276.783	573.6
2280.694	566.6
2284.601	554.6
2288.505	556.6
2292.405	538.6
2296.302	542.6
2300.195	523.6
2304.085	524.6
2307.971	509.6
2311.854	518.6
2315.734	499.6
2319.609	498.6
2323.482	501.6
2327.351	494.6
2331.216	500.6
2335.078	512.6
2338.937	492.6
2342.792	470.6
2346.643	476.6
2350.492	470.6
2354.336	473.6
2358.178	478.6
2362.015	471.6
2365.85	470.6
2369.681	483.6
2373.508	483.6
2377.333	472.6
2381.153	466.6
2384.971	490.6
2388.785	465.6
2392.595	462.6
2396.402	454.6
2400.206	456.6
2404.007	453.6
2407.804	447.6
2411.597	457.6
2415.388	443.6
2419.174	459.6
2422.958	431.6
2426.738	438.6
2430.515	436.6
2434.289	452.6
2438.059	423.6
2441.825	428.6
2445.589	419.6
2449.349	417.6
2453.106	418.6
2456.859	404.6
2460.61	406.6
2464.356	398.6
2468.1	388.6
2471.84	387.6
2475.577	388.6
2479.311	373.6
2483.041	372.6
2486.768	377.6
2490.492	378.6
2494.213	382.6
2497.93	367.6
2501.644	372.6
2505.355	371.6
2509.062	368.6
2512.766	358.6
2516.467	348.6
2520.165	341.6
2523.859	339.6
2527.551	342.6
2531.239	342.6
2534.923	324.6
2538.605	325.6
2542.283	314.6
2545.958	307.6
2549.63	317.6
2553.299	304.6
2556.964	311.6
2560.626	299.6
2564.285	298.6
2567.941	297.6
2571.594	296.6
2575.243	287.6
2578.89	291.6
2582.533	274.6
2586.173	274.6
2589.809	276.6
2593.443	281.6
2597.073	268.6
2600.701	262.6
2604.325	261.6
2607.946	259.6
2611.564	269.6
2615.178	263.6
2618.79	261.6
2622.398	259.6
2626.004	249.6
2629.606	247.6
2633.205	246.6
2636.801	252.6
2640.394	252.6
2643.983	243.6
2647.57	239.6
2651.153	232.6
2654.734	234.6
2658.311	227.6
2661.885	238.6
2665.456	229.6
2669.025	232.6
2672.589	221.6
2676.151	220.6
2679.71	219.6
2683.266	219.6
2686.819	216.6
2690.368	213.6
2693.915	200.6
2697.458	207.6
2700.999	198.6
2704.536	192.6
2708.071	188.6
2711.602	182.6
2715.13	191.6
2718.656	183.6
2722.178	176.6
2725.697	170.6
2729.214	168.6
2732.727	180.6
2736.237	172.6
2739.744	164.6
2743.249	167.6
2746.75	166.6
2750.248	155.6
2753.743	155.6
2757.236	156.6
2760.725	153.6
2764.211	137.6
2767.695	142.6
2771.175	140.6
2774.652	129.6
2778.127	145.6
2781.598	131.6
2785.067	144.6
2788.532	141.6
2791.995	148.6
2795.455	138.6
2798.911	132.6
2802.365	148.6
2805.816	146.6
2809.264	133.6
2812.709	150.6
2816.151	149.6
2819.59	146.6
2823.026	142.6
2826.46	130.6
2829.89	136.6
2833.318	145.6
2836.742	141.6
2840.164	139.6
2843.583	144.6
2846.999	144.6
2850.412	146.6
2853.822	154.6
2857.229	149.6
2860.634	158.6
2864.035	157.6
2867.434	157.6
2870.83	163.6
2874.223	180.6
2877.613	183.6
2881	192.6
2884.385	203.6
2887.766	186.6
2891.145	188.6
2894.521	187.6
2897.894	200.6
2901.264	190.6
2904.631	197.6
2907.996	202.6
2911.358	199.6
2914.717	207.6
2918.073	207.6
2921.426	219.6
2924.777	220.6
2928.124	228.6
2931.469	231.6
2934.811	228.6
2938.15	239.6
2941.487	250.6
2944.821	246.6
2948.152	250.6
2951.48	244.6
2954.805	247.6
2958.128	243.6
2961.447	229.6
2964.765	245.6
2968.079	224.6
2971.39	242.6
2974.699	243.6
2978.005	236.6
2981.308	242.6
2984.609	244.6
2987.907	241.6
2991.202	250.6
2994.494	253.6
2997.784	255.6
3001.07	267.6
3004.355	271.6
3007.636	265.6
3010.915	265.6
3014.191	274.6
3017.464	277.6
3020.734	280.6
3024.002	280.6
3027.267	295.6
3030.53	290.6
3033.789	308.6
3037.046	315.6
3040.301	293.6
3043.552	327.6
3046.801	333.6
3050.048	349.6
3053.291	356.6
3056.532	356.6
3059.771	383.6
3063.006	399.6
3066.239	401.6
3069.469	410.6
3072.697	423.6
3075.922	438.6
3079.144	450.6
3082.364	466.6
3085.581	484.6
3088.795	472.6
3092.007	487.6
3095.216	498.6
3098.423	507.6
3101.627	524.6
3104.828	537.6
3108.026	537.6
3111.222	557.6
3114.416	560.6
3117.607	576.6
3120.795	580.6
3123.98	601.6
3127.163	619.6
3130.344	638.6
3133.521	658.6
3136.696	665.6
3139.869	673.6
3143.039	681.6
3146.206	693.6
3149.371	710.6
3152.533	694.6
3155.693	711.6
3158.85	731.6
3162.005	726.6
3165.157	735.6
3168.306	740.6
3171.453	742.6
3174.597	735.6
3177.739	744.6
3180.878	739.6
3184.014	758.6
3187.149	752.6
3190.28	768.6
3193.409	763.6
3196.536	762.6
3199.659	762.6
3202.781	767.6
3205.9	772.6
3209.016	782.6
3212.13	772.6
3215.241	761.6
3218.35	759.6
3221.456	754.6
3224.56	740.6
3227.661	739.6
3230.76	733.6
3233.856	714.6
3236.95	704.6
3240.041	701.6
3243.13	680.6
3246.216	680.6
3249.3	663.6
3252.382	657.6
3255.46	654.6
3258.537	656.6
3261.611	653.6
3264.682	628.6
3267.751	641.6
3270.818	630.6
3273.882	627.6
3276.943	627.6
3280.002	629.6
3283.059	606.6
3286.113	607.6
3289.165	596.6
3292.214	603.6
3295.261	579.6
3298.306	588.6
3301.348	583.6
3304.387	579.6
3307.425	562.6
3310.459	549.6
3313.492	555.6
3316.521	546.6
3319.549	537.6
3322.574	532.6
3325.597	530.6
3328.617	544.6
3331.635	525.6
3334.65	527.6
3337.663	520.6
3340.674	522.6
3343.682	519.6
3346.688	514.6
3349.691	526.6
3352.692	518.6
3355.691	509.6
3358.687	502.6
3361.681	501.6
3364.673	493.6
3367.662	489.6
3370.649	484.6
3373.633	476.6
3376.615	461.6
3379.595	452.6
3382.572	455.6
3385.547	446.6
3388.52	442.6
3391.49	438.6
3394.458	419.6
3397.424	415.6
3400.387	400.6
3403.348	402.6
3406.307	402.6
3409.263	409.6
3412.217	386.6
3415.168	376.6
3418.118	378.6
3421.065	378.6
3424.009	364.6
3426.951	353.6
3429.891	359.6
3432.829	340.6
3435.764	338.6
3438.697	320.6
3441.628	315.6
3444.557	309.6
3447.483	299.6
3450.407	281.6
3453.328	276.6
3456.247	264.6
3459.164	251.6
3462.079	240.6
3464.991	229.6
3467.902	223.6
3470.809	216.6
3473.715	208.6
3476.618	193.6
3479.519	183.6
3482.418	177.6
3485.315	166.6
3488.209	167.6
3491.101	163.6
3493.99	152.6
3496.878	151.6
3499.763	143.6
3502.646	138.6
3505.527	117.6
3508.405	112.6
3511.281	111.6
3514.155	97.6
3517.027	94.6
3519.897	78.6
3522.764	66.6
3525.629	64.6
3528.492	55.6
3531.352	48.6
3534.211	36.6
3537.067	32.6
3539.921	32.6
3542.773	24.6
3545.622	18.6
3548.469	8.6
3551.315	13.6
3554.157	-5.4
3556.998	-14.4
3559.837	-4.4
3562.673	-11.4
3565.507	-14.4
3568.339	-25.4
3571.169	-32.4
3573.996	-37.4
3576.822	-36.4
3579.645	-34.4
3582.466	-36.4
3585.285	-39.4
3588.101	-40.4
3590.916	-50.4
3593.728	-63.4
3596.538	-58.4
3599.346	-65.4
3602.152	-63.4
3604.956	-66.4
3607.757	-65.4
3610.556	-71.4
3613.354	-75.4
3616.149	-86.4
3618.942	-89.4
3621.732	-87.4
3624.521	-87.4
3627.307	-86.4
3630.092	-82.4
3632.874	-85.4
3635.654	-97.4
3638.432	-96.4
3641.208	-91.4
3643.982	-98.4
3646.753	-102.4
3649.523	-102.4
3652.29	-95.4
3655.055	-106.4
3657.818	-109.4
3660.579	-107.4
3663.338	-110.4
3666.095	-112.4
3668.849	-115.4
3671.602	-114.4
3674.352	-116.4
3677.101	-118.4
3679.847	-120.4
3682.591	-125.4
3685.333	-120.4
3688.073	-124.4
3690.811	-124.4
3693.547	-135.4
3696.281	-129.4
3699.013	-127.4
3701.742	-137.4
3704.47	-139.4
3707.195	-130.4
3709.919	-134.4
3712.64	-137.4
3715.359	-138.4
3718.076	-135.4
3720.792	-137.4
3723.505	-143.4
3726.216	-141.4
3728.925	-140.4
3731.632	-136.4
3734.336	-143.4
3737.039	-140.4
3739.74	-141.4
3742.439	-149.4
3745.136	-141.4
3747.83	-147.4
3750.523	-143.4
3753.213	-150.4
3755.902	-142.4
3758.589	-150.4
3761.273	-145.4
3763.956	-142.4
3766.636	-151.4
3769.315	-140.4
3771.991	-139.4
3774.665	-156.4
3777.338	-138.4
3780.008	-142.4
3782.677	-148.4
3785.343	-145.4
3788.007	-157.4
3790.67	-151.4
3793.33	-143.4
3795.989	-147.4
3798.645	-143.4
3801.299	-149.4
3803.952	-149.4
3806.602	-145.4
3809.251	-153.4
3811.897	-155.4
3814.542	-148.4
3817.184	-147.4
3819.825	-146.4
3822.463	-152.4
3825.1	-150.4
3827.735	-154.4
3830.367	-151.4
3832.998	-152.4
3835.627	-149.4
3838.253	-147.4
3840.878	-145.4
3843.501	-146.4
3846.122	-151.4
3848.741	-151.4
3851.358	-145.4
3853.973	-153.4
3856.586	-147.4
3859.197	-152.4
3861.806	-149.4
3864.414	-155.4
3867.019	-148.4
3869.622	-156.4
3872.224	-133.4
3874.823	-128.4
3877.421	-116.4
3880.016	-97.4
3882.61	-77.4
3885.202	-79.4
3887.792	-89.4
3890.38	-117.4
3892.966	-140.4
3895.55	-146.4
3898.132	-149.4
3900.713	-154.4
3903.291	-157.4
3905.868	-157.4
3908.442	-151.4
3911.015	-148.4
3913.586	-155.4
3916.155	-154.4
3918.722	-157.4
3921.287	-154.4
3923.85	-159.4
3926.411	-154.4
3928.971	-151.4
3931.528	-154.4
3934.084	-150.4
3936.638	-151.4
3939.19	-159.4
3941.74	-160.4
3944.288	-153.4
3946.834	-151.4
3949.378	-150.4
3951.921	-159.4
3954.462	-162.4
3957	-155.4
3959.537	-148.4
3962.072	-159.4
3964.606	-150.4
3967.137	-153.4
3969.667	-154.4
3972.194	-160.4
3974.72	-155.4
3977.244	-157.4
3979.766	-152.4
3982.286	-149.4
3984.805	-155.4
3987.321	-150.4
3989.836	-144.4
3992.349	-155.4
3994.86	-154.4
3997.369	-153.4
3999.877	-154.4
4002.382	-149.4
4004.886	-151.4
4007.388	-147.4
4009.888	-148.4
4012.386	-153.4
4014.883	-157.4
4017.377	-154.4
4019.87	-150.4
4022.361	-153.4
4024.85	-149.4
4027.338	-151.4
4029.823	-151.4
4032.307	-153.4
4034.789	-163.4
4037.269	-155.4
4039.747	-151.4
4042.224	-150.4
4044.699	-152.4
4047.172	-151.4
4049.643	-151.4
4052.112	-152.4
4054.58	-160.4
4057.046	-153.4
4059.51	-155.4
4061.972	-145.4
4064.432	-146.4
4066.891	-153.4
4069.348	-151.4
4071.803	-153.4
4074.256	-155.4
4076.708	-147.4
4079.158	-147.4
4081.606	-143.4
4084.052	-156.4
4086.497	-149.4
4088.939	-147.4
4091.38	-152.4
4093.819	-153.4
4096.257	-160.4
4098.693	-154.4
4101.127	-161.4
4103.559	-154.4
4105.989	1.6
4108.418	0.6
4110.845	-3.4
4113.27	-8.4
4115.694	-4.4
4118.115	-4.4
4120.535	-155.4
4122.954	-156.4
4125.37	-151.4
4127.785	-151.4
4130.198	-148.4
4132.609	-151.4
4135.019	-161.4
4137.427	-163.4
4139.833	-160.4
4142.237	-160.4
