Data from 2018-2-8_conc=4_n=5_RamanShift_03.txt Node
Date: Mon Mar 12 15:19:58 IST 2018
User: aro
Spectrometer: QEPB0276
Trigger mode: 0
Integration Time (sec): 3.000000E1
Scans to average: 1
Electric dark correction enabled: true
Nonlinearity correction enabled: false
Boxcar width: 0
XAxis mode: Raman Shifts
Number of Pixels in Spectrum: 1044
>>>>>Begin Spectral Data<<<<<
160.701	14.1
166.742	50.1
172.777	130.1
178.805	422.1
184.826	1144.1
190.841	2440.1
196.849	4049.1
202.85	5301.1
208.845	5807.1
214.833	5793.1
220.815	5727.1
226.789	5711.1
232.758	5738.1
238.719	5701.1
244.674	5685.1
250.623	5636.1
256.565	5514.1
262.5	5485.1
268.429	5406.1
274.351	5371.1
280.267	5293.1
286.176	5262.1
292.079	5270.1
297.975	5218.1
303.865	5238.1
309.748	5165.1
315.625	5189.1
321.495	5169.1
327.359	5192.1
333.217	5163.1
339.068	5143.1
344.912	5171.1
350.751	5181.1
356.583	5181.1
362.408	5196.1
368.227	5217.1
374.04	5192.1
379.847	5197.1
385.647	5247.1
391.44	5263.1
397.228	5268.1
403.009	5315.1
408.784	5369.1
414.553	5379.1
420.315	5372.1
426.071	5357.1
431.821	5378.1
437.565	5346.1
443.302	5337.1
449.033	5330.1
454.758	5319.1
460.477	5283.1
466.189	5257.1
471.896	5240.1
477.596	5197.1
483.29	5184.1
488.978	5161.1
494.66	5130.1
500.335	5101.1
506.005	4964.1
511.668	4841.1
517.325	4693.1
522.977	4608.1
528.622	4530.1
534.261	4460.1
539.894	4429.1
545.521	4357.1
551.141	4329.1
556.756	4313.1
562.365	4292.1
567.968	4263.1
573.565	4244.1
579.155	4229.1
584.74	4219.1
590.319	4175.1
595.892	4161.1
601.459	4174.1
607.02	4155.1
612.575	4101.1
618.124	4099.1
623.667	4068.1
629.204	4008.1
634.735	3988.1
640.261	3962.1
645.781	3955.1
651.294	3945.1
656.802	3925.1
662.304	3921.1
667.8	3895.1
673.29	3877.1
678.775	3884.1
684.254	3845.1
689.726	3867.1
695.193	3849.1
700.655	3823.1
706.11	3778.1
711.56	3793.1
717.004	3766.1
722.442	3722.1
727.874	3732.1
733.301	3717.1
738.722	3698.1
744.137	3687.1
749.547	3682.1
754.951	3680.1
760.349	3680.1
765.741	3686.1
771.128	3697.1
776.509	3721.1
781.885	3729.1
787.254	3752.1
792.618	3741.1
797.977	3719.1
803.33	3674.1
808.677	3682.1
814.019	3652.1
819.355	3599.1
824.686	3582.1
830.011	3573.1
835.33	3563.1
840.644	3592.1
845.952	3562.1
851.255	3557.1
856.552	3546.1
861.844	3528.1
867.13	3522.1
872.41	3500.1
877.686	3470.1
882.955	3438.1
888.219	3434.1
893.478	3371.1
898.731	3349.1
903.979	3277.1
909.221	3270.1
914.458	3271.1
919.69	3241.1
924.916	3249.1
930.136	3257.1
935.351	3254.1
940.561	3288.1
945.766	3255.1
950.965	3244.1
956.158	3211.1
961.347	3199.1
966.529	3170.1
971.707	3104.1
976.879	3070.1
982.046	3028.1
987.208	3002.1
992.364	3032.1
997.515	3034.1
1002.66	3052.1
1007.801	3087.1
1012.936	3095.1
1018.066	3091.1
1023.19	3096.1
1028.309	3108.1
1033.423	3127.1
1038.532	3096.1
1043.636	3083.1
1048.734	3049.1
1053.827	2988.1
1058.915	2996.1
1063.998	2960.1
1069.075	2966.1
1074.147	2939.1
1079.214	2947.1
1084.276	2956.1
1089.333	2991.1
1094.385	2995.1
1099.431	2989.1
1104.472	2974.1
1109.509	2986.1
1114.54	2911.1
1119.565	2901.1
1124.586	2839.1
1129.602	2811.1
1134.613	2779.1
1139.618	2771.1
1144.619	2767.1
1149.614	2758.1
1154.604	2778.1
1159.589	2801.1
1164.57	2796.1
1169.545	2795.1
1174.515	2796.1
1179.48	2773.1
1184.44	2778.1
1189.395	2731.1
1194.345	2736.1
1199.29	2709.1
1204.23	2683.1
1209.165	2699.1
1214.095	2707.1
1219.021	2753.1
1223.941	2733.1
1228.856	2739.1
1233.766	2759.1
1238.672	2761.1
1243.572	2746.1
1248.467	2754.1
1253.358	2733.1
1258.244	2673.1
1263.124	2630.1
1268	2600.1
1272.871	2572.1
1277.737	2548.1
1282.599	2531.1
1287.455	2540.1
1292.306	2521.1
1297.153	2514.1
1301.995	2542.1
1306.832	2576.1
1311.664	2588.1
1316.491	2600.1
1321.314	2572.1
1326.132	2569.1
1330.945	2541.1
1335.753	2505.1
1340.556	2457.1
1345.354	2431.1
1350.148	2390.1
1354.937	2360.1
1359.722	2304.1
1364.501	2284.1
1369.276	2237.1
1374.046	2203.1
1378.811	2184.1
1383.572	2169.1
1388.327	2177.1
1393.079	2172.1
1397.825	2180.1
1402.567	2161.1
1407.304	2176.1
1412.036	2190.1
1416.764	2155.1
1421.487	2188.1
1426.205	2183.1
1430.919	2187.1
1435.628	2217.1
1440.333	2213.1
1445.032	2233.1
1449.727	2264.1
1454.418	2256.1
1459.104	2246.1
1463.785	2228.1
1468.462	2192.1
1473.134	2148.1
1477.802	2118.1
1482.465	2047.1
1487.123	2009.1
1491.777	2008.1
1496.426	1985.1
1501.071	1951.1
1505.711	1967.1
1510.347	1940.1
1514.978	1933.1
1519.604	1937.1
1524.226	1945.1
1528.844	1920.1
1533.457	1917.1
1538.065	1893.1
1542.669	1902.1
1547.269	1910.1
1551.864	1902.1
1556.454	1914.1
1561.041	1935.1
1565.622	1938.1
1570.199	1952.1
1574.772	1971.1
1579.34	1997.1
1583.904	1997.1
1588.464	2037.1
1593.019	2028.1
1597.569	2040.1
1602.115	2038.1
1606.657	2022.1
1611.195	2019.1
1615.728	2003.1
1620.256	2012.1
1624.78	2003.1
1629.3	2024.1
1633.816	2013.1
1638.327	2027.1
1642.834	2030.1
1647.336	2046.1
1651.834	2041.1
1656.328	2041.1
1660.817	2029.1
1665.302	2039.1
1669.783	1971.1
1674.259	1939.1
1678.732	1911.1
1683.199	1836.1
1687.663	1784.1
1692.122	1727.1
1696.577	1670.1
1701.028	1591.1
1705.474	1535.1
1709.917	1502.1
1714.355	1449.1
1718.788	1450.1
1723.218	1455.1
1727.643	1462.1
1732.064	1454.1
1736.481	1431.1
1740.893	1397.1
1745.301	1375.1
1749.705	1362.1
1754.105	1318.1
1758.501	1320.1
1762.893	1281.1
1767.28	1265.1
1771.663	1269.1
1776.042	1249.1
1780.417	1242.1
1784.787	1222.1
1789.154	1215.1
1793.516	1204.1
1797.874	1184.1
1802.228	1168.1
1806.578	1153.1
1810.924	1154.1
1815.266	1131.1
1819.603	1126.1
1823.937	1137.1
1828.266	1121.1
1832.591	1133.1
1836.913	1131.1
1841.23	1120.1
1845.543	1134.1
1849.852	1130.1
1854.156	1118.1
1858.457	1151.1
1862.754	1136.1
1867.047	1132.1
1871.335	1122.1
1875.62	1131.1
1879.9	1121.1
1884.177	1108.1
1888.449	1096.1
1892.718	1080.1
1896.982	1059.1
1901.243	1062.1
1905.499	1048.1
1909.752	1030.1
1914	1014.1
1918.245	1022.1
1922.485	998.1
1926.722	999.1
1930.954	973.1
1935.183	998.1
1939.408	976.1
1943.628	976.1
1947.845	967.1
1952.058	959.1
1956.267	956.1
1960.472	943.1
1964.673	927.1
1968.87	916.1
1973.063	917.1
1977.252	909.1
1981.438	922.1
1985.619	916.1
1989.797	920.1
1993.971	930.1
1998.14	910.1
2002.306	919.1
2006.469	929.1
2010.627	920.1
2014.781	932.1
2018.932	932.1
2023.078	915.1
2027.221	915.1
2031.36	902.1
2035.495	893.1
2039.627	874.1
2043.754	868.1
2047.878	869.1
2051.998	852.1
2056.114	856.1
2060.226	849.1
2064.334	856.1
2068.439	838.1
2072.54	838.1
2076.637	835.1
2080.73	830.1
2084.82	820.1
2088.906	823.1
2092.988	820.1
2097.066	801.1
2101.14	791.1
2105.211	785.1
2109.278	775.1
2113.342	757.1
2117.401	762.1
2121.457	767.1
2125.509	748.1
2129.558	748.1
2133.602	745.1
2137.643	751.1
2141.681	748.1
2145.714	741.1
2149.744	749.1
2153.77	741.1
2157.793	737.1
2161.812	737.1
2165.827	715.1
2169.838	719.1
2173.846	711.1
2177.851	701.1
2181.851	689.1
2185.848	687.1
2189.841	678.1
2193.831	667.1
2197.817	670.1
2201.799	656.1
2205.778	655.1
2209.753	649.1
2213.725	652.1
2217.693	664.1
2221.657	666.1
2225.618	655.1
2229.575	646.1
2233.529	647.1
2237.479	644.1
2241.425	633.1
2245.368	617.1
2249.307	617.1
2253.243	602.1
2257.175	590.1
2261.104	599.1
2265.029	579.1
2268.95	578.1
2272.868	562.1
2276.783	556.1
2280.694	560.1
2284.601	544.1
2288.505	544.1
2292.405	535.1
2296.302	539.1
2300.195	532.1
2304.085	513.1
2307.971	509.1
2311.854	508.1
2315.734	486.1
2319.609	476.1
2323.482	485.1
2327.351	483.1
2331.216	490.1
2335.078	506.1
2338.937	484.1
2342.792	468.1
2346.643	468.1
2350.492	463.1
2354.336	466.1
2358.178	471.1
2362.015	464.1
2365.85	464.1
2369.681	464.1
2373.508	471.1
2377.333	472.1
2381.153	468.1
2384.971	464.1
2388.785	471.1
2392.595	455.1
2396.402	451.1
2400.206	459.1
2404.007	455.1
2407.804	455.1
2411.597	448.1
2415.388	435.1
2419.174	444.1
2422.958	435.1
2426.738	436.1
2430.515	436.1
2434.289	434.1
2438.059	424.1
2441.825	421.1
2445.589	418.1
2449.349	420.1
2453.106	411.1
2456.859	399.1
2460.61	401.1
2464.356	386.1
2468.1	385.1
2471.84	381.1
2475.577	391.1
2479.311	374.1
2483.041	362.1
2486.768	371.1
2490.492	361.1
2494.213	373.1
2497.93	369.1
2501.644	355.1
2505.355	357.1
2509.062	354.1
2512.766	355.1
2516.467	343.1
2520.165	348.1
2523.859	355.1
2527.551	338.1
2531.239	331.1
2534.923	311.1
2538.605	329.1
2542.283	310.1
2545.958	321.1
2549.63	310.1
2553.299	313.1
2556.964	317.1
2560.626	305.1
2564.285	298.1
2567.941	302.1
2571.594	295.1
2575.243	293.1
2578.89	278.1
2582.533	279.1
2586.173	273.1
2589.809	275.1
2593.443	273.1
2597.073	265.1
2600.701	253.1
2604.325	257.1
2607.946	257.1
2611.564	251.1
2615.178	268.1
2618.79	259.1
2622.398	257.1
2626.004	254.1
2629.606	249.1
2633.205	237.1
2636.801	246.1
2640.394	250.1
2643.983	247.1
2647.57	241.1
2651.153	232.1
2654.734	233.1
2658.311	228.1
2661.885	225.1
2665.456	240.1
2669.025	228.1
2672.589	228.1
2676.151	222.1
2679.71	222.1
2683.266	214.1
2686.819	214.1
2690.368	215.1
2693.915	202.1
2697.458	209.1
2700.999	200.1
2704.536	193.1
2708.071	191.1
2711.602	183.1
2715.13	196.1
2718.656	181.1
2722.178	181.1
2725.697	167.1
2729.214	174.1
2732.727	179.1
2736.237	173.1
2739.744	166.1
2743.249	165.1
2746.75	170.1
2750.248	155.1
2753.743	156.1
2757.236	156.1
2760.725	153.1
2764.211	145.1
2767.695	139.1
2771.175	139.1
2774.652	135.1
2778.127	139.1
2781.598	135.1
2785.067	142.1
2788.532	144.1
2791.995	149.1
2795.455	145.1
2798.911	141.1
2802.365	149.1
2805.816	150.1
2809.264	146.1
2812.709	145.1
2816.151	147.1
2819.59	143.1
2823.026	148.1
2826.46	140.1
2829.89	145.1
2833.318	146.1
2836.742	146.1
2840.164	148.1
2843.583	145.1
2846.999	151.1
2850.412	140.1
2853.822	148.1
2857.229	147.1
2860.634	154.1
2864.035	160.1
2867.434	164.1
2870.83	162.1
2874.223	177.1
2877.613	184.1
2881	190.1
2884.385	191.1
2887.766	184.1
2891.145	181.1
2894.521	180.1
2897.894	185.1
2901.264	197.1
2904.631	198.1
2907.996	198.1
2911.358	196.1
2914.717	195.1
2918.073	202.1
2921.426	204.1
2924.777	210.1
2928.124	221.1
2931.469	222.1
2934.811	239.1
2938.15	234.1
2941.487	250.1
2944.821	239.1
2948.152	242.1
2951.48	235.1
2954.805	252.1
2958.128	239.1
2961.447	234.1
2964.765	237.1
2968.079	236.1
2971.39	229.1
2974.699	237.1
2978.005	243.1
2981.308	249.1
2984.609	237.1
2987.907	239.1
2991.202	245.1
2994.494	244.1
2997.784	249.1
3001.07	251.1
3004.355	255.1
3007.636	253.1
3010.915	268.1
3014.191	261.1
3017.464	270.1
3020.734	261.1
3024.002	267.1
3027.267	278.1
3030.53	281.1
3033.789	291.1
3037.046	298.1
3040.301	301.1
3043.552	312.1
3046.801	319.1
3050.048	332.1
3053.291	333.1
3056.532	352.1
3059.771	373.1
3063.006	372.1
3066.239	381.1
3069.469	394.1
3072.697	406.1
3075.922	413.1
3079.144	425.1
3082.364	443.1
3085.581	455.1
3088.795	465.1
3092.007	459.1
3095.216	473.1
3098.423	489.1
3101.627	496.1
3104.828	504.1
3108.026	515.1
3111.222	520.1
3114.416	533.1
3117.607	555.1
3120.795	571.1
3123.98	579.1
3127.163	602.1
3130.344	604.1
3133.521	609.1
3136.696	632.1
3139.869	633.1
3143.039	660.1
3146.206	648.1
3149.371	661.1
3152.533	669.1
3155.693	673.1
3158.85	693.1
3162.005	692.1
3165.157	694.1
3168.306	700.1
3171.453	690.1
3174.597	702.1
3177.739	719.1
3180.878	716.1
3184.014	718.1
3187.149	717.1
3190.28	714.1
3193.409	729.1
3196.536	728.1
3199.659	736.1
3202.781	732.1
3205.9	728.1
3209.016	739.1
3212.13	733.1
3215.241	728.1
3218.35	725.1
3221.456	712.1
3224.56	707.1
3227.661	701.1
3230.76	691.1
3233.856	682.1
3236.95	666.1
3240.041	663.1
3243.13	654.1
3246.216	625.1
3249.3	616.1
3252.382	624.1
3255.46	615.1
3258.537	630.1
3261.611	613.1
3264.682	601.1
3267.751	602.1
3270.818	603.1
3273.882	597.1
3276.943	593.1
3280.002	592.1
3283.059	593.1
3286.113	582.1
3289.165	568.1
3292.214	574.1
3295.261	555.1
3298.306	551.1
3301.348	546.1
3304.387	541.1
3307.425	543.1
3310.459	534.1
3313.492	524.1
3316.521	524.1
3319.549	515.1
3322.574	578.1
3325.597	508.1
3328.617	506.1
3331.635	508.1
3334.65	502.1
3337.663	487.1
3340.674	510.1
3343.682	496.1
3346.688	487.1
3349.691	496.1
3352.692	491.1
3355.691	489.1
3358.687	471.1
3361.681	476.1
3364.673	478.1
3367.662	464.1
3370.649	455.1
3373.633	448.1
3376.615	437.1
3379.595	434.1
3382.572	425.1
3385.547	426.1
3388.52	420.1
3391.49	407.1
3394.458	396.1
3397.424	394.1
3400.387	384.1
3403.348	384.1
3406.307	370.1
3409.263	365.1
3412.217	368.1
3415.168	368.1
3418.118	367.1
3421.065	358.1
3424.009	349.1
3426.951	335.1
3429.891	334.1
3432.829	319.1
3435.764	322.1
3438.697	306.1
3441.628	304.1
3444.557	292.1
3447.483	279.1
3450.407	264.1
3453.328	253.1
3456.247	244.1
3459.164	239.1
3462.079	224.1
3464.991	220.1
3467.902	214.1
3470.809	207.1
3473.715	196.1
3476.618	174.1
3479.519	182.1
3482.418	176.1
3485.315	160.1
3488.209	148.1
3491.101	147.1
3493.99	151.1
3496.878	137.1
3499.763	116.1
3502.646	116.1
3505.527	109.1
3508.405	106.1
3511.281	93.1
3514.155	98.1
3517.027	82.1
3519.897	77.1
3522.764	61.1
3525.629	59.1
3528.492	51.1
3531.352	48.1
3534.211	39.1
3537.067	30.1
3539.921	28.1
3542.773	25.1
3545.622	6.1
3548.469	5.1
3551.315	5.1
3554.157	2.1
3556.998	-10.9
3559.837	-10.9
3562.673	-16.9
3565.507	-15.9
3568.339	-24.9
3571.169	-27.9
3573.996	-29.9
3576.822	-29.9
3579.645	-39.9
3582.466	-32.9
3585.285	-43.9
3588.101	-35.9
3590.916	-53.9
3593.728	-63.9
3596.538	-54.9
3599.346	-63.9
3602.152	-60.9
3604.956	-60.9
3607.757	-63.9
3610.556	-71.9
3613.354	-70.9
3616.149	-71.9
3618.942	-82.9
3621.732	-79.9
3624.521	-81.9
3627.307	-83.9
3630.092	-86.9
3632.874	-82.9
3635.654	-89.9
3638.432	-92.9
3641.208	-90.9
3643.982	-95.9
3646.753	-102.9
3649.523	-97.9
3652.29	-98.9
3655.055	-96.9
3657.818	-101.9
3660.579	-98.9
3663.338	-103.9
3666.095	-104.9
3668.849	-117.9
3671.602	-112.9
3674.352	-115.9
3677.101	-117.9
3679.847	-112.9
3682.591	-113.9
3685.333	-113.9
3688.073	-117.9
3690.811	-122.9
3693.547	-129.9
3696.281	-123.9
3699.013	-124.9
3701.742	-126.9
3704.47	-128.9
3707.195	-119.9
3709.919	-130.9
3712.64	-133.9
3715.359	-132.9
3718.076	-125.9
3720.792	-128.9
3723.505	-132.9
3726.216	-124.9
3728.925	-132.9
3731.632	-133.9
3734.336	-146.9
3737.039	-132.9
3739.74	-138.9
3742.439	-144.9
3745.136	-127.9
3747.83	-137.9
3750.523	-138.9
3753.213	-147.9
3755.902	-135.9
3758.589	-142.9
3761.273	-131.9
3763.956	-132.9
3766.636	-131.9
3769.315	-134.9
3771.991	-136.9
3774.665	-140.9
3777.338	-135.9
3780.008	-138.9
3782.677	-138.9
3785.343	-135.9
3788.007	-137.9
3790.67	-136.9
3793.33	-139.9
3795.989	-140.9
3798.645	-135.9
3801.299	-138.9
3803.952	-140.9
3806.602	-133.9
3809.251	-146.9
3811.897	-145.9
3814.542	-149.9
3817.184	-138.9
3819.825	-140.9
3822.463	-136.9
3825.1	-140.9
3827.735	-141.9
3830.367	-141.9
3832.998	-148.9
3835.627	-146.9
3838.253	-139.9
3840.878	-138.9
3843.501	-138.9
3846.122	-144.9
3848.741	-146.9
3851.358	-139.9
3853.973	-146.9
3856.586	-137.9
3859.197	-150.9
3861.806	-142.9
3864.414	-146.9
3867.019	-137.9
3869.622	-143.9
3872.224	-131.9
3874.823	-119.9
3877.421	-111.9
3880.016	-88.9
3882.61	-62.9
3885.202	-60.9
3887.792	-80.9
3890.38	-108.9
3892.966	-136.9
3895.55	-132.9
3898.132	-140.9
3900.713	-138.9
3903.291	-148.9
3905.868	-147.9
3908.442	-140.9
3911.015	-145.9
3913.586	-147.9
3916.155	-145.9
3918.722	-142.9
3921.287	-151.9
3923.85	-148.9
3926.411	-150.9
3928.971	-144.9
3931.528	-148.9
3934.084	-143.9
3936.638	-141.9
3939.19	-151.9
3941.74	-150.9
3944.288	-146.9
3946.834	-143.9
3949.378	-142.9
3951.921	-146.9
3954.462	-149.9
3957	-151.9
3959.537	-142.9
3962.072	-152.9
3964.606	-138.9
3967.137	-148.9
3969.667	-147.9
3972.194	-146.9
3974.72	-145.9
3977.244	-149.9
3979.766	-146.9
3982.286	-147.9
3984.805	-150.9
3987.321	-144.9
3989.836	-141.9
3992.349	-148.9
3994.86	-143.9
3997.369	-144.9
3999.877	-146.9
4002.382	-136.9
4004.886	-144.9
4007.388	-143.9
4009.888	-139.9
4012.386	-139.9
4014.883	-143.9
4017.377	-142.9
4019.87	-143.9
4022.361	-150.9
4024.85	-146.9
4027.338	-146.9
4029.823	-144.9
4032.307	-141.9
4034.789	-143.9
4037.269	-143.9
4039.747	-141.9
4042.224	-141.9
4044.699	-149.9
4047.172	-144.9
4049.643	-143.9
4052.112	-146.9
4054.58	-145.9
4057.046	-145.9
4059.51	-141.9
4061.972	-143.9
4064.432	-138.9
4066.891	-145.9
4069.348	-141.9
4071.803	-145.9
4074.256	-144.9
4076.708	-140.9
4079.158	-139.9
4081.606	-134.9
4084.052	-143.9
4086.497	-139.9
4088.939	-136.9
4091.38	-145.9
4093.819	-145.9
4096.257	-153.9
4098.693	-152.9
4101.127	-152.9
4103.559	-148.9
4105.989	-0.9
4108.418	-2.9
4110.845	-1.9
4113.27	0.1
4115.694	-10.9
4118.115	-7.9
4120.535	-147.9
4122.954	-146.9
4125.37	-139.9
4127.785	-145.9
4130.198	-144.9
4132.609	-143.9
4135.019	-152.9
4137.427	-153.9
4139.833	-154.9
4142.237	-154.9
