Data from 2018-2-8_conc=4_n=4_RamanShift_02.txt Node
Date: Mon Mar 12 15:22:28 IST 2018
User: aro
Spectrometer: QEPB0276
Trigger mode: 0
Integration Time (sec): 3.000000E1
Scans to average: 1
Electric dark correction enabled: true
Nonlinearity correction enabled: false
Boxcar width: 0
XAxis mode: Raman Shifts
Number of Pixels in Spectrum: 1044
>>>>>Begin Spectral Data<<<<<
160.701	13.5
166.742	46.5
172.777	123.5
178.805	375.5
184.826	1010.5
190.841	2142.5
196.849	3580.5
202.85	4696.5
208.845	5178.5
214.833	5128.5
220.815	5062.5
226.789	5070.5
232.758	5075.5
238.719	5059.5
244.674	5052.5
250.623	4999.5
256.565	4916.5
262.5	4864.5
268.429	4808.5
274.351	4766.5
280.267	4719.5
286.176	4668.5
292.079	4688.5
297.975	4667.5
303.865	4661.5
309.748	4647.5
315.625	4617.5
321.495	4628.5
327.359	4605.5
333.217	4622.5
339.068	4654.5
344.912	4616.5
350.751	4628.5
356.583	4640.5
362.408	4659.5
368.227	4683.5
374.04	4689.5
379.847	4694.5
385.647	4706.5
391.44	4742.5
397.228	4745.5
403.009	4789.5
408.784	4780.5
414.553	4841.5
420.315	4809.5
426.071	4840.5
431.821	4834.5
437.565	4820.5
443.302	4817.5
449.033	4808.5
454.758	4800.5
460.477	4754.5
466.189	4707.5
471.896	4717.5
477.596	4654.5
483.29	4647.5
488.978	4649.5
494.66	4624.5
500.335	4553.5
506.005	4453.5
511.668	4314.5
517.325	4179.5
522.977	4077.5
528.622	3999.5
534.261	3954.5
539.894	3883.5
545.521	3836.5
551.141	3875.5
556.756	3792.5
562.365	3789.5
567.968	3772.5
573.565	3753.5
579.155	3727.5
584.74	3696.5
590.319	3701.5
595.892	3683.5
601.459	3657.5
607.02	3657.5
612.575	3661.5
618.124	3628.5
623.667	3582.5
629.204	3545.5
634.735	3512.5
640.261	3502.5
645.781	3484.5
651.294	3484.5
656.802	3472.5
662.304	3424.5
667.8	3453.5
673.29	3414.5
678.775	3422.5
684.254	3416.5
689.726	3396.5
695.193	3373.5
700.655	3356.5
706.11	3339.5
711.56	3331.5
717.004	3326.5
722.442	3277.5
727.874	3256.5
733.301	3257.5
738.722	3247.5
744.137	3252.5
749.547	3232.5
754.951	3213.5
760.349	3222.5
765.741	3262.5
771.128	3279.5
776.509	3292.5
781.885	3267.5
787.254	3303.5
792.618	3310.5
797.977	3302.5
803.33	3253.5
808.677	3254.5
814.019	3199.5
819.355	3188.5
824.686	3173.5
830.011	3161.5
835.33	3143.5
840.644	3157.5
845.952	3131.5
851.255	3146.5
856.552	3119.5
861.844	3092.5
867.13	3088.5
872.41	3082.5
877.686	3051.5
882.955	3014.5
888.219	3014.5
893.478	2966.5
898.731	2928.5
903.979	2866.5
909.221	2862.5
914.458	2852.5
919.69	2846.5
924.916	2861.5
930.136	2861.5
935.351	2856.5
940.561	2839.5
945.766	2848.5
950.965	2843.5
956.158	2787.5
961.347	2791.5
966.529	2760.5
971.707	2703.5
976.879	2680.5
982.046	2633.5
987.208	2633.5
992.364	2661.5
997.515	2645.5
1002.66	2661.5
1007.801	2699.5
1012.936	2712.5
1018.066	2746.5
1023.19	2738.5
1028.309	2718.5
1033.423	2720.5
1038.532	2697.5
1043.636	2695.5
1048.734	2634.5
1053.827	2639.5
1058.915	2601.5
1063.998	2603.5
1069.075	2552.5
1074.147	2582.5
1079.214	2569.5
1084.276	2597.5
1089.333	2618.5
1094.385	2603.5
1099.431	2618.5
1104.472	2577.5
1109.509	2596.5
1114.54	2560.5
1119.565	2514.5
1124.586	2493.5
1129.602	2454.5
1134.613	2432.5
1139.618	2427.5
1144.619	2421.5
1149.614	2406.5
1154.604	2430.5
1159.589	2437.5
1164.57	2463.5
1169.545	2436.5
1174.515	2446.5
1179.48	2422.5
1184.44	2421.5
1189.395	2387.5
1194.345	2364.5
1199.29	2366.5
1204.23	2359.5
1209.165	2376.5
1214.095	2352.5
1219.021	2392.5
1223.941	2402.5
1228.856	2406.5
1233.766	2395.5
1238.672	2431.5
1243.572	2413.5
1248.467	2392.5
1253.358	2345.5
1258.244	2320.5
1263.124	2289.5
1268	2256.5
1272.871	2246.5
1277.737	2215.5
1282.599	2215.5
1287.455	2207.5
1292.306	2194.5
1297.153	2209.5
1301.995	2235.5
1306.832	2227.5
1311.664	2250.5
1316.491	2265.5
1321.314	2254.5
1326.132	2223.5
1330.945	2214.5
1335.753	2181.5
1340.556	2132.5
1345.354	2103.5
1350.148	2092.5
1354.937	2047.5
1359.722	2008.5
1364.501	1985.5
1369.276	1962.5
1374.046	1924.5
1378.811	1908.5
1383.572	1900.5
1388.327	1884.5
1393.079	1902.5
1397.825	1887.5
1402.567	1891.5
1407.304	1892.5
1412.036	1890.5
1416.764	1894.5
1421.487	1893.5
1426.205	1869.5
1430.919	1891.5
1435.628	1908.5
1440.333	1934.5
1445.032	1928.5
1449.727	1956.5
1454.418	1974.5
1459.104	1954.5
1463.785	1944.5
1468.462	1908.5
1473.134	1873.5
1477.802	1830.5
1482.465	1800.5
1487.123	1774.5
1491.777	1749.5
1496.426	1731.5
1501.071	1709.5
1505.711	1697.5
1510.347	1697.5
1514.978	1701.5
1519.604	1689.5
1524.226	1713.5
1528.844	1694.5
1533.457	1684.5
1538.065	1649.5
1542.669	1657.5
1547.269	1656.5
1551.864	1663.5
1556.454	1666.5
1561.041	1691.5
1565.622	1692.5
1570.199	1693.5
1574.772	1710.5
1579.34	1741.5
1583.904	1746.5
1588.464	1764.5
1593.019	1770.5
1597.569	1791.5
1602.115	1766.5
1606.657	1766.5
1611.195	1731.5
1615.728	1759.5
1620.256	1748.5
1624.78	1737.5
1629.3	1764.5
1633.816	1752.5
1638.327	1775.5
1642.834	1760.5
1647.336	1786.5
1651.834	1782.5
1656.328	1797.5
1660.817	1791.5
1665.302	1768.5
1669.783	1733.5
1674.259	1698.5
1678.732	1662.5
1683.199	1614.5
1687.663	1564.5
1692.122	1513.5
1696.577	1471.5
1701.028	1385.5
1705.474	1348.5
1709.917	1296.5
1714.355	1286.5
1718.788	1281.5
1723.218	1266.5
1727.643	1280.5
1732.064	1271.5
1736.481	1257.5
1740.893	1236.5
1745.301	1197.5
1749.705	1174.5
1754.105	1159.5
1758.501	1141.5
1762.893	1125.5
1767.28	1107.5
1771.663	1101.5
1776.042	1102.5
1780.417	1085.5
1784.787	1063.5
1789.154	1060.5
1793.516	1060.5
1797.874	1026.5
1802.228	1026.5
1806.578	1027.5
1810.924	1005.5
1815.266	990.5
1819.603	985.5
1823.937	998.5
1828.266	970.5
1832.591	982.5
1836.913	994.5
1841.23	981.5
1845.543	995.5
1849.852	963.5
1854.156	976.5
1858.457	997.5
1862.754	982.5
1867.047	966.5
1871.335	991.5
1875.62	990.5
1879.9	994.5
1884.177	977.5
1888.449	972.5
1892.718	947.5
1896.982	947.5
1901.243	927.5
1905.499	909.5
1909.752	921.5
1914	893.5
1918.245	894.5
1922.485	884.5
1926.722	866.5
1930.954	863.5
1935.183	861.5
1939.408	853.5
1943.628	866.5
1947.845	847.5
1952.058	839.5
1956.267	838.5
1960.472	822.5
1964.673	822.5
1968.87	802.5
1973.063	812.5
1977.252	797.5
1981.438	801.5
1985.619	805.5
1989.797	796.5
1993.971	796.5
1998.14	802.5
2002.306	789.5
2006.469	801.5
2010.627	815.5
2014.781	805.5
2018.932	803.5
2023.078	787.5
2027.221	779.5
2031.36	787.5
2035.495	770.5
2039.627	755.5
2043.754	751.5
2047.878	751.5
2051.998	745.5
2056.114	740.5
2060.226	738.5
2064.334	727.5
2068.439	745.5
2072.54	732.5
2076.637	745.5
2080.73	713.5
2084.82	728.5
2088.906	713.5
2092.988	710.5
2097.066	700.5
2101.14	686.5
2105.211	690.5
2109.278	674.5
2113.342	668.5
2117.401	669.5
2121.457	656.5
2125.509	667.5
2129.558	643.5
2133.602	648.5
2137.643	648.5
2141.681	633.5
2145.714	649.5
2149.744	646.5
2153.77	659.5
2157.793	637.5
2161.812	627.5
2165.827	628.5
2169.838	625.5
2173.846	621.5
2177.851	599.5
2181.851	586.5
2185.848	589.5
2189.841	575.5
2193.831	587.5
2197.817	573.5
2201.799	570.5
2205.778	562.5
2209.753	567.5
2213.725	566.5
2217.693	559.5
2221.657	557.5
2225.618	556.5
2229.575	563.5
2233.529	557.5
2237.479	553.5
2241.425	546.5
2245.368	537.5
2249.307	531.5
2253.243	521.5
2257.175	501.5
2261.104	500.5
2265.029	494.5
2268.95	499.5
2272.868	487.5
2276.783	481.5
2280.694	470.5
2284.601	468.5
2288.505	468.5
2292.405	459.5
2296.302	457.5
2300.195	457.5
2304.085	430.5
2307.971	433.5
2311.854	431.5
2315.734	408.5
2319.609	409.5
2323.482	410.5
2327.351	415.5
2331.216	423.5
2335.078	435.5
2338.937	416.5
2342.792	394.5
2346.643	396.5
2350.492	392.5
2354.336	393.5
2358.178	390.5
2362.015	398.5
2365.85	399.5
2369.681	396.5
2373.508	403.5
2377.333	397.5
2381.153	388.5
2384.971	403.5
2388.785	396.5
2392.595	384.5
2396.402	384.5
2400.206	377.5
2404.007	391.5
2407.804	368.5
2411.597	361.5
2415.388	363.5
2419.174	381.5
2422.958	361.5
2426.738	371.5
2430.515	365.5
2434.289	360.5
2438.059	362.5
2441.825	350.5
2445.589	353.5
2449.349	344.5
2453.106	339.5
2456.859	339.5
2460.61	334.5
2464.356	324.5
2468.1	320.5
2471.84	309.5
2475.577	332.5
2479.311	311.5
2483.041	316.5
2486.768	308.5
2490.492	302.5
2494.213	313.5
2497.93	309.5
2501.644	302.5
2505.355	294.5
2509.062	300.5
2512.766	302.5
2516.467	293.5
2520.165	286.5
2523.859	285.5
2527.551	276.5
2531.239	274.5
2534.923	269.5
2538.605	270.5
2542.283	267.5
2545.958	270.5
2549.63	260.5
2553.299	247.5
2556.964	255.5
2560.626	245.5
2564.285	252.5
2567.941	247.5
2571.594	247.5
2575.243	237.5
2578.89	241.5
2582.533	239.5
2586.173	222.5
2589.809	221.5
2593.443	234.5
2597.073	227.5
2600.701	220.5
2604.325	223.5
2607.946	201.5
2611.564	221.5
2615.178	225.5
2618.79	219.5
2622.398	213.5
2626.004	215.5
2629.606	204.5
2633.205	199.5
2636.801	199.5
2640.394	204.5
2643.983	208.5
2647.57	206.5
2651.153	193.5
2654.734	197.5
2658.311	189.5
2661.885	180.5
2665.456	186.5
2669.025	196.5
2672.589	193.5
2676.151	185.5
2679.71	175.5
2683.266	173.5
2686.819	175.5
2690.368	169.5
2693.915	159.5
2697.458	164.5
2700.999	168.5
2704.536	167.5
2708.071	147.5
2711.602	143.5
2715.13	143.5
2718.656	148.5
2722.178	141.5
2725.697	136.5
2729.214	139.5
2732.727	139.5
2736.237	143.5
2739.744	133.5
2743.249	129.5
2746.75	129.5
2750.248	133.5
2753.743	129.5
2757.236	126.5
2760.725	129.5
2764.211	113.5
2767.695	114.5
2771.175	111.5
2774.652	105.5
2778.127	112.5
2781.598	112.5
2785.067	118.5
2788.532	123.5
2791.995	115.5
2795.455	110.5
2798.911	105.5
2802.365	116.5
2805.816	122.5
2809.264	122.5
2812.709	126.5
2816.151	115.5
2819.59	118.5
2823.026	111.5
2826.46	107.5
2829.89	111.5
2833.318	112.5
2836.742	123.5
2840.164	109.5
2843.583	121.5
2846.999	122.5
2850.412	115.5
2853.822	120.5
2857.229	121.5
2860.634	123.5
2864.035	125.5
2867.434	140.5
2870.83	135.5
2874.223	147.5
2877.613	146.5
2881	155.5
2884.385	161.5
2887.766	157.5
2891.145	152.5
2894.521	153.5
2897.894	162.5
2901.264	157.5
2904.631	161.5
2907.996	155.5
2911.358	151.5
2914.717	158.5
2918.073	168.5
2921.426	179.5
2924.777	181.5
2928.124	192.5
2931.469	176.5
2934.811	188.5
2938.15	194.5
2941.487	201.5
2944.821	202.5
2948.152	206.5
2951.48	200.5
2954.805	203.5
2958.128	200.5
2961.447	189.5
2964.765	189.5
2968.079	187.5
2971.39	190.5
2974.699	192.5
2978.005	195.5
2981.308	193.5
2984.609	210.5
2987.907	193.5
2991.202	209.5
2994.494	207.5
2997.784	204.5
3001.07	217.5
3004.355	221.5
3007.636	223.5
3010.915	220.5
3014.191	221.5
3017.464	230.5
3020.734	219.5
3024.002	230.5
3027.267	232.5
3030.53	245.5
3033.789	261.5
3037.046	256.5
3040.301	253.5
3043.552	260.5
3046.801	269.5
3050.048	287.5
3053.291	279.5
3056.532	299.5
3059.771	314.5
3063.006	327.5
3066.239	328.5
3069.469	342.5
3072.697	345.5
3075.922	371.5
3079.144	371.5
3082.364	380.5
3085.581	377.5
3088.795	393.5
3092.007	393.5
3095.216	411.5
3098.423	415.5
3101.627	425.5
3104.828	433.5
3108.026	439.5
3111.222	451.5
3114.416	470.5
3117.607	478.5
3120.795	480.5
3123.98	487.5
3127.163	499.5
3130.344	530.5
3133.521	532.5
3136.696	554.5
3139.869	550.5
3143.039	569.5
3146.206	566.5
3149.371	576.5
3152.533	590.5
3155.693	589.5
3158.85	603.5
3162.005	594.5
3165.157	611.5
3168.306	603.5
3171.453	600.5
3174.597	601.5
3177.739	604.5
3180.878	612.5
3184.014	635.5
3187.149	636.5
3190.28	630.5
3193.409	616.5
3196.536	634.5
3199.659	634.5
3202.781	641.5
3205.9	633.5
3209.016	645.5
3212.13	642.5
3215.241	638.5
3218.35	621.5
3221.456	615.5
3224.56	602.5
3227.661	603.5
3230.76	584.5
3233.856	592.5
3236.95	580.5
3240.041	574.5
3243.13	565.5
3246.216	570.5
3249.3	556.5
3252.382	543.5
3255.46	549.5
3258.537	528.5
3261.611	528.5
3264.682	527.5
3267.751	528.5
3270.818	517.5
3273.882	524.5
3276.943	500.5
3280.002	513.5
3283.059	513.5
3286.113	506.5
3289.165	496.5
3292.214	498.5
3295.261	488.5
3298.306	482.5
3301.348	464.5
3304.387	465.5
3307.425	468.5
3310.459	455.5
3313.492	455.5
3316.521	444.5
3319.549	441.5
3322.574	438.5
3325.597	437.5
3328.617	440.5
3331.635	418.5
3334.65	425.5
3337.663	418.5
3340.674	431.5
3343.682	430.5
3346.688	427.5
3349.691	430.5
3352.692	427.5
3355.691	419.5
3358.687	417.5
3361.681	420.5
3364.673	410.5
3367.662	402.5
3370.649	387.5
3373.633	387.5
3376.615	381.5
3379.595	371.5
3382.572	368.5
3385.547	364.5
3388.52	363.5
3391.49	350.5
3394.458	350.5
3397.424	340.5
3400.387	337.5
3403.348	329.5
3406.307	331.5
3409.263	331.5
3412.217	317.5
3415.168	318.5
3418.118	315.5
3421.065	306.5
3424.009	300.5
3426.951	284.5
3429.891	282.5
3432.829	268.5
3435.764	274.5
3438.697	267.5
3441.628	258.5
3444.557	244.5
3447.483	228.5
3450.407	237.5
3453.328	224.5
3456.247	217.5
3459.164	202.5
3462.079	196.5
3464.991	188.5
3467.902	177.5
3470.809	170.5
3473.715	163.5
3476.618	156.5
3479.519	148.5
3482.418	138.5
3485.315	139.5
3488.209	124.5
3491.101	123.5
3493.99	127.5
3496.878	121.5
3499.763	103.5
3502.646	96.5
3505.527	97.5
3508.405	96.5
3511.281	82.5
3514.155	71.5
3517.027	73.5
3519.897	59.5
3522.764	47.5
3525.629	47.5
3528.492	46.5
3531.352	42.5
3534.211	28.5
3537.067	24.5
3539.921	21.5
3542.773	11.5
3545.622	2.5
3548.469	1.5
3551.315	-4.5
3554.157	-6.5
3556.998	-15.5
3559.837	-11.5
3562.673	-20.5
3565.507	-19.5
3568.339	-31.5
3571.169	-35.5
3573.996	-24.5
3576.822	-25.5
3579.645	-34.5
3582.466	-34.5
3585.285	-50.5
3588.101	-36.5
3590.916	-52.5
3593.728	-63.5
3596.538	-56.5
3599.346	-54.5
3602.152	-56.5
3604.956	-57.5
3607.757	-60.5
3610.556	-66.5
3613.354	-65.5
3616.149	-73.5
3618.942	-73.5
3621.732	-73.5
3624.521	-75.5
3627.307	-74.5
3630.092	-79.5
3632.874	-79.5
3635.654	-85.5
3638.432	-84.5
3641.208	-87.5
3643.982	-82.5
3646.753	-90.5
3649.523	-94.5
3652.29	-91.5
3655.055	-92.5
3657.818	-93.5
3660.579	-87.5
3663.338	-92.5
3666.095	-95.5
3668.849	-106.5
3671.602	-99.5
3674.352	-103.5
3677.101	-107.5
3679.847	-107.5
3682.591	-108.5
3685.333	-106.5
3688.073	-108.5
3690.811	-109.5
3693.547	-121.5
3696.281	-111.5
3699.013	-111.5
3701.742	-118.5
3704.47	-111.5
3707.195	-115.5
3709.919	-114.5
3712.64	-116.5
3715.359	-121.5
3718.076	-118.5
3720.792	-123.5
3723.505	-126.5
3726.216	-115.5
3728.925	-123.5
3731.632	-115.5
3734.336	-125.5
3737.039	-126.5
3739.74	-128.5
3742.439	-132.5
3745.136	-118.5
3747.83	-129.5
3750.523	-121.5
3753.213	-131.5
3755.902	-126.5
3758.589	-131.5
3761.273	-121.5
3763.956	-120.5
3766.636	-125.5
3769.315	-121.5
3771.991	-121.5
3774.665	-131.5
3777.338	-119.5
3780.008	-125.5
3782.677	-126.5
3785.343	-123.5
3788.007	-128.5
3790.67	-127.5
3793.33	-124.5
3795.989	-130.5
3798.645	-128.5
3801.299	-128.5
3803.952	-137.5
3806.602	-122.5
3809.251	-138.5
3811.897	-135.5
3814.542	-136.5
3817.184	-131.5
3819.825	-128.5
3822.463	-128.5
3825.1	-126.5
3827.735	-127.5
3830.367	-135.5
3832.998	-132.5
3835.627	-131.5
3838.253	-128.5
3840.878	-130.5
3843.501	-127.5
3846.122	-129.5
3848.741	-134.5
3851.358	-132.5
3853.973	-135.5
3856.586	-126.5
3859.197	-135.5
3861.806	-126.5
3864.414	-133.5
3867.019	-128.5
3869.622	-130.5
3872.224	-119.5
3874.823	-111.5
3877.421	-101.5
3880.016	-82.5
3882.61	-64.5
3885.202	-58.5
3887.792	-69.5
3890.38	-97.5
3892.966	-122.5
3895.55	-121.5
3898.132	-131.5
3900.713	-127.5
3903.291	-131.5
3905.868	-133.5
3908.442	-127.5
3911.015	-135.5
3913.586	-135.5
3916.155	-132.5
3918.722	-136.5
3921.287	-131.5
3923.85	-132.5
3926.411	-134.5
3928.971	-131.5
3931.528	-132.5
3934.084	-134.5
3936.638	-125.5
3939.19	-135.5
3941.74	-138.5
3944.288	-132.5
3946.834	-129.5
3949.378	-132.5
3951.921	-133.5
3954.462	-145.5
3957	-131.5
3959.537	-132.5
3962.072	-131.5
3964.606	-129.5
3967.137	-126.5
3969.667	-137.5
3972.194	-137.5
3974.72	-135.5
3977.244	-138.5
3979.766	-133.5
3982.286	-129.5
3984.805	-134.5
3987.321	-132.5
3989.836	-123.5
3992.349	-135.5
3994.86	-133.5
3997.369	-138.5
3999.877	-133.5
4002.382	-129.5
4004.886	-131.5
4007.388	-135.5
4009.888	-128.5
4012.386	-133.5
4014.883	-135.5
4017.377	-131.5
4019.87	-129.5
4022.361	-132.5
4024.85	-133.5
4027.338	-130.5
4029.823	-124.5
4032.307	-127.5
4034.789	-134.5
4037.269	-130.5
4039.747	-130.5
4042.224	-130.5
4044.699	-132.5
4047.172	-124.5
4049.643	-128.5
4052.112	-126.5
4054.58	-134.5
4057.046	-133.5
4059.51	-136.5
4061.972	-130.5
4064.432	-132.5
4066.891	-132.5
4069.348	-124.5
4071.803	-130.5
4074.256	-130.5
4076.708	-128.5
4079.158	-131.5
4081.606	-126.5
4084.052	-135.5
4086.497	-129.5
4088.939	-120.5
4091.38	-132.5
4093.819	-132.5
4096.257	-139.5
4098.693	-138.5
4101.127	-140.5
4103.559	-138.5
4105.989	7.5
4108.418	0.5
4110.845	2.5
4113.27	1.5
4115.694	-6.5
4118.115	-6.5
4120.535	-130.5
4122.954	-141.5
4125.37	-132.5
4127.785	-132.5
4130.198	-132.5
4132.609	-129.5
4135.019	-136.5
4137.427	-139.5
4139.833	-140.5
4142.237	-142.5
