Data from 2018-2-8_conc=4_n=6_RamanShift_01.txt Node
Date: Mon Mar 12 15:25:28 IST 2018
User: aro
Spectrometer: QEPB0276
Trigger mode: 0
Integration Time (sec): 3.000000E1
Scans to average: 1
Electric dark correction enabled: true
Nonlinearity correction enabled: false
Boxcar width: 0
XAxis mode: Raman Shifts
Number of Pixels in Spectrum: 1044
>>>>>Begin Spectral Data<<<<<
160.701	17.4
166.742	49.4
172.777	114.4
178.805	352.4
184.826	910.4
190.841	1970.4
196.849	3268.4
202.85	4282.4
208.845	4674.4
214.833	4658.4
220.815	4619.4
226.789	4567.4
232.758	4564.4
238.719	4582.4
244.674	4538.4
250.623	4506.4
256.565	4450.4
262.5	4334.4
268.429	4327.4
274.351	4290.4
280.267	4242.4
286.176	4215.4
292.079	4179.4
297.975	4180.4
303.865	4162.4
309.748	4172.4
315.625	4159.4
321.495	4150.4
327.359	4142.4
333.217	4101.4
339.068	4122.4
344.912	4141.4
350.751	4163.4
356.583	4162.4
362.408	4166.4
368.227	4181.4
374.04	4180.4
379.847	4201.4
385.647	4237.4
391.44	4237.4
397.228	4266.4
403.009	4301.4
408.784	4334.4
414.553	4331.4
420.315	4364.4
426.071	4368.4
431.821	4359.4
437.565	4329.4
443.302	4316.4
449.033	4303.4
454.758	4306.4
460.477	4264.4
466.189	4255.4
471.896	4205.4
477.596	4196.4
483.29	4166.4
488.978	4200.4
494.66	4123.4
500.335	4094.4
506.005	3986.4
511.668	3842.4
517.325	3691.4
522.977	3592.4
528.622	3527.4
534.261	3450.4
539.894	3433.4
545.521	3380.4
551.141	3375.4
556.756	3319.4
562.365	3305.4
567.968	3264.4
573.565	3252.4
579.155	3232.4
584.74	3205.4
590.319	3204.4
595.892	3215.4
601.459	3205.4
607.02	3182.4
612.575	3168.4
618.124	3150.4
623.667	3087.4
629.204	3085.4
634.735	3048.4
640.261	3023.4
645.781	3022.4
651.294	2995.4
656.802	3000.4
662.304	2991.4
667.8	2960.4
673.29	2944.4
678.775	2933.4
684.254	2953.4
689.726	2935.4
695.193	2948.4
700.655	2912.4
706.11	2898.4
711.56	2860.4
717.004	2821.4
722.442	2831.4
727.874	2827.4
733.301	2785.4
738.722	2806.4
744.137	2791.4
749.547	2799.4
754.951	2792.4
760.349	2811.4
765.741	2804.4
771.128	2821.4
776.509	2826.4
781.885	2848.4
787.254	2869.4
792.618	2874.4
797.977	2859.4
803.33	2823.4
808.677	2818.4
814.019	2783.4
819.355	2788.4
824.686	2759.4
830.011	2732.4
835.33	2701.4
840.644	2716.4
845.952	2722.4
851.255	2705.4
856.552	2713.4
861.844	2682.4
867.13	2659.4
872.41	2640.4
877.686	2612.4
882.955	2602.4
888.219	2571.4
893.478	2561.4
898.731	2493.4
903.979	2476.4
909.221	2445.4
914.458	2451.4
919.69	2447.4
924.916	2445.4
930.136	2487.4
935.351	2452.4
940.561	2462.4
945.766	2463.4
950.965	2449.4
956.158	2416.4
961.347	2417.4
966.529	2377.4
971.707	2323.4
976.879	2304.4
982.046	2281.4
987.208	2275.4
992.364	2272.4
997.515	2266.4
1002.66	2325.4
1007.801	2333.4
1012.936	2347.4
1018.066	2344.4
1023.19	2325.4
1028.309	2363.4
1033.423	2353.4
1038.532	2335.4
1043.636	2320.4
1048.734	2290.4
1053.827	2277.4
1058.915	2261.4
1063.998	2242.4
1069.075	2217.4
1074.147	2232.4
1079.214	2256.4
1084.276	2230.4
1089.333	2247.4
1094.385	2252.4
1099.431	2224.4
1104.472	2248.4
1109.509	2209.4
1114.54	2188.4
1119.565	2193.4
1124.586	2136.4
1129.602	2117.4
1134.613	2098.4
1139.618	2087.4
1144.619	2087.4
1149.614	2090.4
1154.604	2096.4
1159.589	2094.4
1164.57	2094.4
1169.545	2107.4
1174.515	2105.4
1179.48	2099.4
1184.44	2092.4
1189.395	2052.4
1194.345	2049.4
1199.29	2036.4
1204.23	2044.4
1209.165	2033.4
1214.095	2051.4
1219.021	2063.4
1223.941	2081.4
1228.856	2081.4
1233.766	2088.4
1238.672	2076.4
1243.572	2074.4
1248.467	2086.4
1253.358	2048.4
1258.244	2000.4
1263.124	1966.4
1268	1925.4
1272.871	1936.4
1277.737	1906.4
1282.599	1903.4
1287.455	1904.4
1292.306	1915.4
1297.153	1925.4
1301.995	1914.4
1306.832	1924.4
1311.664	1942.4
1316.491	1948.4
1321.314	1936.4
1326.132	1937.4
1330.945	1908.4
1335.753	1881.4
1340.556	1849.4
1345.354	1825.4
1350.148	1799.4
1354.937	1769.4
1359.722	1781.4
1364.501	1718.4
1369.276	1698.4
1374.046	1680.4
1378.811	1650.4
1383.572	1651.4
1388.327	1654.4
1393.079	1644.4
1397.825	1629.4
1402.567	1653.4
1407.304	1650.4
1412.036	1646.4
1416.764	1648.4
1421.487	1649.4
1426.205	1643.4
1430.919	1636.4
1435.628	1665.4
1440.333	1668.4
1445.032	1682.4
1449.727	1699.4
1454.418	1699.4
1459.104	1720.4
1463.785	1698.4
1468.462	1668.4
1473.134	1655.4
1477.802	1602.4
1482.465	1550.4
1487.123	1541.4
1491.777	1528.4
1496.426	1510.4
1501.071	1495.4
1505.711	1489.4
1510.347	1485.4
1514.978	1489.4
1519.604	1481.4
1524.226	1478.4
1528.844	1469.4
1533.457	1470.4
1538.065	1462.4
1542.669	1451.4
1547.269	1458.4
1551.864	1465.4
1556.454	1464.4
1561.041	1488.4
1565.622	1501.4
1570.199	1484.4
1574.772	1493.4
1579.34	1536.4
1583.904	1546.4
1588.464	1553.4
1593.019	1570.4
1597.569	1556.4
1602.115	1559.4
1606.657	1571.4
1611.195	1533.4
1615.728	1542.4
1620.256	1535.4
1624.78	1556.4
1629.3	1540.4
1633.816	1550.4
1638.327	1559.4
1642.834	1573.4
1647.336	1573.4
1651.834	1602.4
1656.328	1590.4
1660.817	1588.4
1665.302	1565.4
1669.783	1524.4
1674.259	1506.4
1678.732	1469.4
1683.199	1425.4
1687.663	1385.4
1692.122	1349.4
1696.577	1288.4
1701.028	1248.4
1705.474	1195.4
1709.917	1154.4
1714.355	1142.4
1718.788	1119.4
1723.218	1108.4
1727.643	1121.4
1732.064	1110.4
1736.481	1109.4
1740.893	1078.4
1745.301	1065.4
1749.705	1033.4
1754.105	1005.4
1758.501	998.4
1762.893	979.4
1767.28	984.4
1771.663	972.4
1776.042	963.4
1780.417	947.4
1784.787	946.4
1789.154	917.4
1793.516	936.4
1797.874	929.4
1802.228	901.4
1806.578	898.4
1810.924	876.4
1815.266	860.4
1819.603	878.4
1823.937	861.4
1828.266	869.4
1832.591	858.4
1836.913	873.4
1841.23	871.4
1845.543	868.4
1849.852	870.4
1854.156	855.4
1858.457	860.4
1862.754	859.4
1867.047	872.4
1871.335	871.4
1875.62	860.4
1879.9	854.4
1884.177	853.4
1888.449	842.4
1892.718	843.4
1896.982	844.4
1901.243	818.4
1905.499	819.4
1909.752	816.4
1914	790.4
1918.245	795.4
1922.485	778.4
1926.722	784.4
1930.954	781.4
1935.183	784.4
1939.408	765.4
1943.628	768.4
1947.845	761.4
1952.058	754.4
1956.267	727.4
1960.472	739.4
1964.673	726.4
1968.87	716.4
1973.063	726.4
1977.252	714.4
1981.438	702.4
1985.619	704.4
1989.797	705.4
1993.971	710.4
1998.14	708.4
2002.306	713.4
2006.469	714.4
2010.627	715.4
2014.781	718.4
2018.932	705.4
2023.078	700.4
2027.221	696.4
2031.36	687.4
2035.495	704.4
2039.627	675.4
2043.754	666.4
2047.878	658.4
2051.998	664.4
2056.114	656.4
2060.226	659.4
2064.334	649.4
2068.439	664.4
2072.54	660.4
2076.637	653.4
2080.73	646.4
2084.82	641.4
2088.906	640.4
2092.988	645.4
2097.066	626.4
2101.14	607.4
2105.211	603.4
2109.278	610.4
2113.342	608.4
2117.401	587.4
2121.457	588.4
2125.509	569.4
2129.558	587.4
2133.602	579.4
2137.643	585.4
2141.681	574.4
2145.714	580.4
2149.744	575.4
2153.77	573.4
2157.793	569.4
2161.812	565.4
2165.827	547.4
2169.838	563.4
2173.846	530.4
2177.851	535.4
2181.851	512.4
2185.848	510.4
2189.841	522.4
2193.831	521.4
2197.817	510.4
2201.799	507.4
2205.778	506.4
2209.753	498.4
2213.725	494.4
2217.693	496.4
2221.657	503.4
2225.618	491.4
2229.575	502.4
2233.529	496.4
2237.479	474.4
2241.425	485.4
2245.368	471.4
2249.307	466.4
2253.243	458.4
2257.175	449.4
2261.104	453.4
2265.029	429.4
2268.95	440.4
2272.868	427.4
2276.783	416.4
2280.694	421.4
2284.601	418.4
2288.505	411.4
2292.405	408.4
2296.302	397.4
2300.195	390.4
2304.085	391.4
2307.971	378.4
2311.854	369.4
2315.734	369.4
2319.609	353.4
2323.482	367.4
2327.351	366.4
2331.216	367.4
2335.078	380.4
2338.937	369.4
2342.792	356.4
2346.643	345.4
2350.492	333.4
2354.336	351.4
2358.178	334.4
2362.015	337.4
2365.85	350.4
2369.681	343.4
2373.508	347.4
2377.333	340.4
2381.153	329.4
2384.971	348.4
2388.785	335.4
2392.595	329.4
2396.402	334.4
2400.206	329.4
2404.007	330.4
2407.804	318.4
2411.597	314.4
2415.388	314.4
2419.174	312.4
2422.958	308.4
2426.738	322.4
2430.515	319.4
2434.289	309.4
2438.059	310.4
2441.825	300.4
2445.589	308.4
2449.349	298.4
2453.106	294.4
2456.859	293.4
2460.61	294.4
2464.356	278.4
2468.1	281.4
2471.84	267.4
2475.577	271.4
2479.311	268.4
2483.041	257.4
2486.768	272.4
2490.492	274.4
2494.213	269.4
2497.93	263.4
2501.644	259.4
2505.355	252.4
2509.062	245.4
2512.766	262.4
2516.467	251.4
2520.165	254.4
2523.859	245.4
2527.551	242.4
2531.239	226.4
2534.923	223.4
2538.605	223.4
2542.283	230.4
2545.958	231.4
2549.63	239.4
2553.299	223.4
2556.964	226.4
2560.626	226.4
2564.285	217.4
2567.941	216.4
2571.594	206.4
2575.243	215.4
2578.89	206.4
2582.533	208.4
2586.173	200.4
2589.809	188.4
2593.443	192.4
2597.073	193.4
2600.701	195.4
2604.325	180.4
2607.946	190.4
2611.564	191.4
2615.178	181.4
2618.79	184.4
2622.398	183.4
2626.004	184.4
2629.606	183.4
2633.205	172.4
2636.801	175.4
2640.394	172.4
2643.983	171.4
2647.57	182.4
2651.153	162.4
2654.734	160.4
2658.311	160.4
2661.885	159.4
2665.456	157.4
2669.025	160.4
2672.589	157.4
2676.151	161.4
2679.71	158.4
2683.266	144.4
2686.819	146.4
2690.368	143.4
2693.915	139.4
2697.458	131.4
2700.999	151.4
2704.536	144.4
2708.071	128.4
2711.602	124.4
2715.13	129.4
2718.656	124.4
2722.178	120.4
2725.697	119.4
2729.214	121.4
2732.727	132.4
2736.237	120.4
2739.744	115.4
2743.249	118.4
2746.75	110.4
2750.248	113.4
2753.743	100.4
2757.236	101.4
2760.725	112.4
2764.211	95.4
2767.695	103.4
2771.175	88.4
2774.652	87.4
2778.127	99.4
2781.598	100.4
2785.067	102.4
2788.532	96.4
2791.995	95.4
2795.455	100.4
2798.911	88.4
2802.365	98.4
2805.816	106.4
2809.264	94.4
2812.709	100.4
2816.151	106.4
2819.59	102.4
2823.026	102.4
2826.46	93.4
2829.89	90.4
2833.318	90.4
2836.742	103.4
2840.164	105.4
2843.583	101.4
2846.999	107.4
2850.412	104.4
2853.822	97.4
2857.229	97.4
2860.634	105.4
2864.035	109.4
2867.434	111.4
2870.83	128.4
2874.223	131.4
2877.613	133.4
2881	135.4
2884.385	139.4
2887.766	125.4
2891.145	137.4
2894.521	143.4
2897.894	145.4
2901.264	147.4
2904.631	148.4
2907.996	141.4
2911.358	138.4
2914.717	144.4
2918.073	152.4
2921.426	162.4
2924.777	163.4
2928.124	170.4
2931.469	163.4
2934.811	170.4
2938.15	173.4
2941.487	185.4
2944.821	176.4
2948.152	185.4
2951.48	179.4
2954.805	183.4
2958.128	180.4
2961.447	175.4
2964.765	174.4
2968.079	168.4
2971.39	172.4
2974.699	186.4
2978.005	178.4
2981.308	187.4
2984.609	186.4
2987.907	186.4
2991.202	185.4
2994.494	188.4
2997.784	186.4
3001.07	202.4
3004.355	208.4
3007.636	200.4
3010.915	200.4
3014.191	203.4
3017.464	216.4
3020.734	209.4
3024.002	211.4
3027.267	214.4
3030.53	219.4
3033.789	235.4
3037.046	239.4
3040.301	236.4
3043.552	250.4
3046.801	245.4
3050.048	263.4
3053.291	260.4
3056.532	282.4
3059.771	295.4
3063.006	298.4
3066.239	308.4
3069.469	315.4
3072.697	320.4
3075.922	325.4
3079.144	337.4
3082.364	355.4
3085.581	367.4
3088.795	371.4
3092.007	376.4
3095.216	383.4
3098.423	393.4
3101.627	392.4
3104.828	413.4
3108.026	420.4
3111.222	426.4
3114.416	444.4
3117.607	450.4
3120.795	456.4
3123.98	472.4
3127.163	482.4
3130.344	507.4
3133.521	498.4
3136.696	520.4
3139.869	518.4
3143.039	534.4
3146.206	525.4
3149.371	528.4
3152.533	549.4
3155.693	565.4
3158.85	558.4
3162.005	565.4
3165.157	574.4
3168.306	568.4
3171.453	567.4
3174.597	576.4
3177.739	576.4
3180.878	586.4
3184.014	594.4
3187.149	599.4
3190.28	592.4
3193.409	576.4
3196.536	589.4
3199.659	590.4
3202.781	595.4
3205.9	595.4
3209.016	610.4
3212.13	611.4
3215.241	597.4
3218.35	592.4
3221.456	580.4
3224.56	575.4
3227.661	565.4
3230.76	557.4
3233.856	560.4
3236.95	544.4
3240.041	540.4
3243.13	528.4
3246.216	531.4
3249.3	504.4
3252.382	517.4
3255.46	509.4
3258.537	507.4
3261.611	501.4
3264.682	496.4
3267.751	496.4
3270.818	485.4
3273.882	484.4
3276.943	486.4
3280.002	468.4
3283.059	477.4
3286.113	476.4
3289.165	464.4
3292.214	465.4
3295.261	441.4
3298.306	449.4
3301.348	449.4
3304.387	438.4
3307.425	444.4
3310.459	433.4
3313.492	418.4
3316.521	423.4
3319.549	417.4
3322.574	409.4
3325.597	408.4
3328.617	404.4
3331.635	397.4
3334.65	408.4
3337.663	399.4
3340.674	409.4
3343.682	402.4
3346.688	381.4
3349.691	404.4
3352.692	396.4
3355.691	390.4
3358.687	402.4
3361.681	392.4
3364.673	392.4
3367.662	378.4
3370.649	379.4
3373.633	357.4
3376.615	357.4
3379.595	349.4
3382.572	350.4
3385.547	341.4
3388.52	328.4
3391.49	334.4
3394.458	335.4
3397.424	325.4
3400.387	315.4
3403.348	323.4
3406.307	314.4
3409.263	304.4
3412.217	304.4
3415.168	297.4
3418.118	297.4
3421.065	281.4
3424.009	288.4
3426.951	278.4
3429.891	271.4
3432.829	258.4
3435.764	257.4
3438.697	243.4
3441.628	244.4
3444.557	240.4
3447.483	223.4
3450.407	215.4
3453.328	207.4
3456.247	201.4
3459.164	191.4
3462.079	175.4
3464.991	168.4
3467.902	167.4
3470.809	174.4
3473.715	153.4
3476.618	144.4
3479.519	147.4
3482.418	135.4
3485.315	126.4
3488.209	116.4
3491.101	129.4
3493.99	121.4
3496.878	111.4
3499.763	102.4
3502.646	93.4
3505.527	75.4
3508.405	83.4
3511.281	70.4
3514.155	70.4
3517.027	69.4
3519.897	55.4
3522.764	46.4
3525.629	42.4
3528.492	35.4
3531.352	31.4
3534.211	26.4
3537.067	20.4
3539.921	18.4
3542.773	10.4
3545.622	0.4
3548.469	-2.6
3551.315	-2.6
3554.157	-5.6
3556.998	-10.6
3559.837	-13.6
3562.673	-18.6
3565.507	-21.6
3568.339	-23.6
3571.169	-39.6
3573.996	-33.6
3576.822	-30.6
3579.645	-27.6
3582.466	-39.6
3585.285	-48.6
3588.101	-38.6
3590.916	-49.6
3593.728	-63.6
3596.538	-51.6
3599.346	-59.6
3602.152	-60.6
3604.956	-53.6
3607.757	-56.6
3610.556	-66.6
3613.354	-65.6
3616.149	-75.6
3618.942	-77.6
3621.732	-69.6
3624.521	-75.6
3627.307	-73.6
3630.092	-73.6
3632.874	-78.6
3635.654	-81.6
3638.432	-78.6
3641.208	-79.6
3643.982	-91.6
3646.753	-88.6
3649.523	-86.6
3652.29	-88.6
3655.055	-88.6
3657.818	-94.6
3660.579	-94.6
3663.338	-96.6
3666.095	-98.6
3668.849	-96.6
3671.602	-93.6
3674.352	-101.6
3677.101	-101.6
3679.847	-106.6
3682.591	-106.6
3685.333	-103.6
3688.073	-106.6
3690.811	-105.6
3693.547	-116.6
3696.281	-110.6
3699.013	-110.6
3701.742	-114.6
3704.47	-111.6
3707.195	-110.6
3709.919	-112.6
3712.64	-114.6
3715.359	-110.6
3718.076	-114.6
3720.792	-114.6
3723.505	-119.6
3726.216	-114.6
3728.925	-122.6
3731.632	-119.6
3734.336	-118.6
3737.039	-111.6
3739.74	-120.6
3742.439	-123.6
3745.136	-115.6
3747.83	-123.6
3750.523	-124.6
3753.213	-130.6
3755.902	-119.6
3758.589	-125.6
3761.273	-120.6
3763.956	-118.6
3766.636	-122.6
3769.315	-118.6
3771.991	-121.6
3774.665	-129.6
3777.338	-115.6
3780.008	-120.6
3782.677	-126.6
3785.343	-114.6
3788.007	-124.6
3790.67	-123.6
3793.33	-118.6
3795.989	-123.6
3798.645	-116.6
3801.299	-121.6
3803.952	-130.6
3806.602	-120.6
3809.251	-125.6
3811.897	-127.6
3814.542	-127.6
3817.184	-122.6
3819.825	-122.6
3822.463	-125.6
3825.1	-122.6
3827.735	-123.6
3830.367	-124.6
3832.998	-122.6
3835.627	-128.6
3838.253	-123.6
3840.878	-124.6
3843.501	-118.6
3846.122	-128.6
3848.741	-128.6
3851.358	-121.6
3853.973	-131.6
3856.586	-128.6
3859.197	-133.6
3861.806	-121.6
3864.414	-120.6
3867.019	-117.6
3869.622	-126.6
3872.224	-113.6
3874.823	-105.6
3877.421	-98.6
3880.016	-69.6
3882.61	-43.6
3885.202	-49.6
3887.792	-59.6
3890.38	-90.6
3892.966	-115.6
3895.55	-118.6
3898.132	-124.6
3900.713	-123.6
3903.291	-132.6
3905.868	-126.6
3908.442	-119.6
3911.015	-126.6
3913.586	-124.6
3916.155	-128.6
3918.722	-130.6
3921.287	-127.6
3923.85	-126.6
3926.411	-133.6
3928.971	-124.6
3931.528	-122.6
3934.084	-131.6
3936.638	-121.6
3939.19	-137.6
3941.74	-132.6
3944.288	-129.6
3946.834	-127.6
3949.378	-126.6
3951.921	-126.6
3954.462	-133.6
3957	-128.6
3959.537	-121.6
3962.072	-129.6
3964.606	-122.6
3967.137	-129.6
3969.667	-129.6
3972.194	-134.6
3974.72	-122.6
3977.244	-131.6
3979.766	-130.6
3982.286	-128.6
3984.805	-128.6
3987.321	-128.6
3989.836	-119.6
3992.349	-131.6
3994.86	-125.6
3997.369	-126.6
3999.877	-124.6
4002.382	-122.6
4004.886	-127.6
4007.388	-126.6
4009.888	-123.6
4012.386	-132.6
4014.883	-128.6
4017.377	-125.6
4019.87	-126.6
4022.361	-128.6
4024.85	-130.6
4027.338	-127.6
4029.823	-123.6
4032.307	-124.6
4034.789	-129.6
4037.269	-128.6
4039.747	-125.6
4042.224	-124.6
4044.699	-130.6
4047.172	-129.6
4049.643	-126.6
4052.112	-122.6
4054.58	-129.6
4057.046	-127.6
4059.51	-129.6
4061.972	-127.6
4064.432	-123.6
4066.891	-125.6
4069.348	-125.6
4071.803	-133.6
4074.256	-124.6
4076.708	-123.6
4079.158	-125.6
4081.606	-116.6
4084.052	-134.6
4086.497	-125.6
4088.939	-122.6
4091.38	-125.6
4093.819	-124.6
4096.257	-134.6
4098.693	-135.6
4101.127	-130.6
4103.559	-129.6
4105.989	17.4
4108.418	9.4
4110.845	9.4
4113.27	3.4
4115.694	-4.6
4118.115	-5.6
4120.535	-126.6
4122.954	-128.6
4125.37	-121.6
4127.785	-127.6
4130.198	-127.6
4132.609	-124.6
4135.019	-131.6
4137.427	-135.6
4139.833	-133.6
4142.237	-132.6
