Data from 2018-2-8_conc=5_n=6_RamanShift_01.txt Node
Date: Mon Mar 12 16:07:28 IST 2018
User: aro
Spectrometer: QEPB0276
Trigger mode: 0
Integration Time (sec): 3.000000E1
Scans to average: 1
Electric dark correction enabled: true
Nonlinearity correction enabled: false
Boxcar width: 0
XAxis mode: Raman Shifts
Number of Pixels in Spectrum: 1044
>>>>>Begin Spectral Data<<<<<
160.701	24.6
166.742	48.6
172.777	112.6
178.805	330.6
184.826	861.6
190.841	1822.6
196.849	3014.6
202.85	3939.6
208.845	4313.6
214.833	4313.6
220.815	4274.6
226.789	4226.6
232.758	4235.6
238.719	4233.6
244.674	4230.6
250.623	4212.6
256.565	4147.6
262.5	4094.6
268.429	4063.6
274.351	4008.6
280.267	3987.6
286.176	3957.6
292.079	3975.6
297.975	3913.6
303.865	3942.6
309.748	3946.6
315.625	3918.6
321.495	3914.6
327.359	3905.6
333.217	3929.6
339.068	3929.6
344.912	3938.6
350.751	3960.6
356.583	3969.6
362.408	3956.6
368.227	4002.6
374.04	3974.6
379.847	4009.6
385.647	4045.6
391.44	4055.6
397.228	4081.6
403.009	4091.6
408.784	4119.6
414.553	4114.6
420.315	4141.6
426.071	4165.6
431.821	4150.6
437.565	4124.6
443.302	4134.6
449.033	4130.6
454.758	4112.6
460.477	4084.6
466.189	4040.6
471.896	4016.6
477.596	3979.6
483.29	3965.6
488.978	3971.6
494.66	3965.6
500.335	3877.6
506.005	3781.6
511.668	3644.6
517.325	3499.6
522.977	3389.6
528.622	3291.6
534.261	3239.6
539.894	3206.6
545.521	3157.6
551.141	3126.6
556.756	3102.6
562.365	3085.6
567.968	3060.6
573.565	3040.6
579.155	3015.6
584.74	3005.6
590.319	2981.6
595.892	3006.6
601.459	2991.6
607.02	2993.6
612.575	2971.6
618.124	2936.6
623.667	2890.6
629.204	2843.6
634.735	2839.6
640.261	2798.6
645.781	2809.6
651.294	2799.6
656.802	2804.6
662.304	2781.6
667.8	2773.6
673.29	2772.6
678.775	2774.6
684.254	2730.6
689.726	2750.6
695.193	2724.6
700.655	2704.6
706.11	2687.6
711.56	2692.6
717.004	2654.6
722.442	2641.6
727.874	2657.6
733.301	2619.6
738.722	2629.6
744.137	2602.6
749.547	2604.6
754.951	2581.6
760.349	2606.6
765.741	2628.6
771.128	2642.6
776.509	2667.6
781.885	2665.6
787.254	2695.6
792.618	2708.6
797.977	2660.6
803.33	2673.6
808.677	2648.6
814.019	2608.6
819.355	2634.6
824.686	2581.6
830.011	2582.6
835.33	2565.6
840.644	2556.6
845.952	2538.6
851.255	2528.6
856.552	2520.6
861.844	2500.6
867.13	2474.6
872.41	2459.6
877.686	2473.6
882.955	2434.6
888.219	2399.6
893.478	2386.6
898.731	2349.6
903.979	2297.6
909.221	2299.6
914.458	2279.6
919.69	2279.6
924.916	2312.6
930.136	2301.6
935.351	2283.6
940.561	2303.6
945.766	2309.6
950.965	2274.6
956.158	2271.6
961.347	2243.6
966.529	2207.6
971.707	2174.6
976.879	2165.6
982.046	2136.6
987.208	2123.6
992.364	2129.6
997.515	2129.6
1002.66	2149.6
1007.801	2157.6
1012.936	2181.6
1018.066	2205.6
1023.19	2173.6
1028.309	2196.6
1033.423	2213.6
1038.532	2182.6
1043.636	2168.6
1048.734	2152.6
1053.827	2149.6
1058.915	2089.6
1063.998	2087.6
1069.075	2093.6
1074.147	2085.6
1079.214	2082.6
1084.276	2086.6
1089.333	2106.6
1094.385	2105.6
1099.431	2103.6
1104.472	2080.6
1109.509	2077.6
1114.54	2053.6
1119.565	2014.6
1124.586	1979.6
1129.602	1961.6
1134.613	1964.6
1139.618	1963.6
1144.619	1928.6
1149.614	1953.6
1154.604	1976.6
1159.589	1952.6
1164.57	1966.6
1169.545	1974.6
1174.515	1962.6
1179.48	1953.6
1184.44	1937.6
1189.395	1932.6
1194.345	1930.6
1199.29	1886.6
1204.23	1911.6
1209.165	1915.6
1214.095	1926.6
1219.021	1931.6
1223.941	1921.6
1228.856	1952.6
1233.766	1954.6
1238.672	1945.6
1243.572	1954.6
1248.467	1934.6
1253.358	1909.6
1258.244	1886.6
1263.124	1850.6
1268	1818.6
1272.871	1799.6
1277.737	1792.6
1282.599	1777.6
1287.455	1771.6
1292.306	1780.6
1297.153	1799.6
1301.995	1809.6
1306.832	1799.6
1311.664	1824.6
1316.491	1814.6
1321.314	1819.6
1326.132	1830.6
1330.945	1796.6
1335.753	1774.6
1340.556	1741.6
1345.354	1731.6
1350.148	1691.6
1354.937	1662.6
1359.722	1657.6
1364.501	1602.6
1369.276	1585.6
1374.046	1579.6
1378.811	1558.6
1383.572	1538.6
1388.327	1532.6
1393.079	1522.6
1397.825	1533.6
1402.567	1536.6
1407.304	1534.6
1412.036	1538.6
1416.764	1515.6
1421.487	1553.6
1426.205	1534.6
1430.919	1549.6
1435.628	1548.6
1440.333	1571.6
1445.032	1582.6
1449.727	1613.6
1454.418	1613.6
1459.104	1601.6
1463.785	1592.6
1468.462	1546.6
1473.134	1524.6
1477.802	1505.6
1482.465	1467.6
1487.123	1423.6
1491.777	1417.6
1496.426	1416.6
1501.071	1396.6
1505.711	1396.6
1510.347	1404.6
1514.978	1379.6
1519.604	1400.6
1524.226	1400.6
1528.844	1379.6
1533.457	1362.6
1538.065	1375.6
1542.669	1357.6
1547.269	1349.6
1551.864	1366.6
1556.454	1383.6
1561.041	1393.6
1565.622	1391.6
1570.199	1390.6
1574.772	1396.6
1579.34	1405.6
1583.904	1438.6
1588.464	1455.6
1593.019	1454.6
1597.569	1442.6
1602.115	1465.6
1606.657	1432.6
1611.195	1444.6
1615.728	1433.6
1620.256	1434.6
1624.78	1414.6
1629.3	1457.6
1633.816	1445.6
1638.327	1445.6
1642.834	1463.6
1647.336	1476.6
1651.834	1482.6
1656.328	1466.6
1660.817	1477.6
1665.302	1454.6
1669.783	1440.6
1674.259	1396.6
1678.732	1388.6
1683.199	1343.6
1687.663	1296.6
1692.122	1257.6
1696.577	1211.6
1701.028	1165.6
1705.474	1133.6
1709.917	1107.6
1714.355	1077.6
1718.788	1060.6
1723.218	1053.6
1727.643	1049.6
1732.064	1033.6
1736.481	1040.6
1740.893	1022.6
1745.301	1002.6
1749.705	977.6
1754.105	964.6
1758.501	941.6
1762.893	941.6
1767.28	923.6
1771.663	917.6
1776.042	912.6
1780.417	910.6
1784.787	893.6
1789.154	884.6
1793.516	886.6
1797.874	870.6
1802.228	863.6
1806.578	854.6
1810.924	834.6
1815.266	825.6
1819.603	822.6
1823.937	827.6
1828.266	820.6
1832.591	810.6
1836.913	810.6
1841.23	828.6
1845.543	831.6
1849.852	817.6
1854.156	818.6
1858.457	811.6
1862.754	810.6
1867.047	809.6
1871.335	822.6
1875.62	822.6
1879.9	830.6
1884.177	807.6
1888.449	804.6
1892.718	785.6
1896.982	792.6
1901.243	781.6
1905.499	768.6
1909.752	766.6
1914	760.6
1918.245	752.6
1922.485	736.6
1926.722	748.6
1930.954	737.6
1935.183	726.6
1939.408	738.6
1943.628	737.6
1947.845	707.6
1952.058	715.6
1956.267	711.6
1960.472	689.6
1964.673	684.6
1968.87	687.6
1973.063	696.6
1977.252	671.6
1981.438	680.6
1985.619	665.6
1989.797	671.6
1993.971	670.6
1998.14	675.6
2002.306	669.6
2006.469	675.6
2010.627	673.6
2014.781	671.6
2018.932	655.6
2023.078	673.6
2027.221	670.6
2031.36	671.6
2035.495	658.6
2039.627	644.6
2043.754	628.6
2047.878	621.6
2051.998	620.6
2056.114	626.6
2060.226	624.6
2064.334	619.6
2068.439	617.6
2072.54	619.6
2076.637	615.6
2080.73	605.6
2084.82	607.6
2088.906	604.6
2092.988	609.6
2097.066	597.6
2101.14	579.6
2105.211	581.6
2109.278	576.6
2113.342	560.6
2117.401	558.6
2121.457	557.6
2125.509	544.6
2129.558	551.6
2133.602	549.6
2137.643	551.6
2141.681	547.6
2145.714	542.6
2149.744	543.6
2153.77	537.6
2157.793	528.6
2161.812	546.6
2165.827	535.6
2169.838	514.6
2173.846	506.6
2177.851	502.6
2181.851	495.6
2185.848	498.6
2189.841	495.6
2193.831	488.6
2197.817	474.6
2201.799	474.6
2205.778	484.6
2209.753	469.6
2213.725	471.6
2217.693	474.6
2221.657	472.6
2225.618	472.6
2229.575	454.6
2233.529	458.6
2237.479	445.6
2241.425	445.6
2245.368	443.6
2249.307	446.6
2253.243	422.6
2257.175	429.6
2261.104	426.6
2265.029	405.6
2268.95	413.6
2272.868	414.6
2276.783	415.6
2280.694	392.6
2284.601	379.6
2288.505	379.6
2292.405	375.6
2296.302	385.6
2300.195	376.6
2304.085	373.6
2307.971	349.6
2311.854	353.6
2315.734	336.6
2319.609	338.6
2323.482	343.6
2327.351	346.6
2331.216	351.6
2335.078	367.6
2338.937	355.6
2342.792	331.6
2346.643	324.6
2350.492	326.6
2354.336	322.6
2358.178	323.6
2362.015	325.6
2365.85	325.6
2369.681	330.6
2373.508	325.6
2377.333	329.6
2381.153	320.6
2384.971	328.6
2388.785	321.6
2392.595	320.6
2396.402	313.6
2400.206	314.6
2404.007	312.6
2407.804	314.6
2411.597	308.6
2415.388	309.6
2419.174	298.6
2422.958	296.6
2426.738	305.6
2430.515	294.6
2434.289	309.6
2438.059	297.6
2441.825	297.6
2445.589	285.6
2449.349	275.6
2453.106	284.6
2456.859	288.6
2460.61	274.6
2464.356	275.6
2468.1	266.6
2471.84	253.6
2475.577	257.6
2479.311	249.6
2483.041	259.6
2486.768	261.6
2490.492	249.6
2494.213	259.6
2497.93	250.6
2501.644	248.6
2505.355	246.6
2509.062	241.6
2512.766	236.6
2516.467	244.6
2520.165	240.6
2523.859	240.6
2527.551	230.6
2531.239	216.6
2534.923	218.6
2538.605	210.6
2542.283	218.6
2545.958	221.6
2549.63	222.6
2553.299	220.6
2556.964	224.6
2560.626	207.6
2564.285	202.6
2567.941	210.6
2571.594	206.6
2575.243	198.6
2578.89	200.6
2582.533	202.6
2586.173	190.6
2589.809	188.6
2593.443	184.6
2597.073	187.6
2600.701	175.6
2604.325	176.6
2607.946	176.6
2611.564	188.6
2615.178	172.6
2618.79	183.6
2622.398	176.6
2626.004	178.6
2629.606	174.6
2633.205	164.6
2636.801	165.6
2640.394	170.6
2643.983	165.6
2647.57	164.6
2651.153	160.6
2654.734	154.6
2658.311	154.6
2661.885	148.6
2665.456	166.6
2669.025	160.6
2672.589	154.6
2676.151	151.6
2679.71	153.6
2683.266	139.6
2686.819	148.6
2690.368	140.6
2693.915	135.6
2697.458	132.6
2700.999	133.6
2704.536	129.6
2708.071	127.6
2711.602	119.6
2715.13	123.6
2718.656	117.6
2722.178	123.6
2725.697	122.6
2729.214	106.6
2732.727	118.6
2736.237	123.6
2739.744	109.6
2743.249	112.6
2746.75	114.6
2750.248	108.6
2753.743	100.6
2757.236	103.6
2760.725	105.6
2764.211	96.6
2767.695	92.6
2771.175	97.6
2774.652	92.6
2778.127	96.6
2781.598	95.6
2785.067	100.6
2788.532	97.6
2791.995	94.6
2795.455	94.6
2798.911	86.6
2802.365	96.6
2805.816	99.6
2809.264	94.6
2812.709	96.6
2816.151	92.6
2819.59	98.6
2823.026	91.6
2826.46	87.6
2829.89	89.6
2833.318	87.6
2836.742	94.6
2840.164	98.6
2843.583	96.6
2846.999	99.6
2850.412	96.6
2853.822	100.6
2857.229	95.6
2860.634	98.6
2864.035	109.6
2867.434	106.6
2870.83	118.6
2874.223	121.6
2877.613	124.6
2881	130.6
2884.385	125.6
2887.766	123.6
2891.145	117.6
2894.521	118.6
2897.894	124.6
2901.264	135.6
2904.631	127.6
2907.996	135.6
2911.358	130.6
2914.717	130.6
2918.073	142.6
2921.426	137.6
2924.777	146.6
2928.124	155.6
2931.469	147.6
2934.811	159.6
2938.15	152.6
2941.487	161.6
2944.821	158.6
2948.152	167.6
2951.48	166.6
2954.805	167.6
2958.128	156.6
2961.447	148.6
2964.765	165.6
2968.079	153.6
2971.39	159.6
2974.699	158.6
2978.005	156.6
2981.308	165.6
2984.609	169.6
2987.907	159.6
2991.202	171.6
2994.494	163.6
2997.784	161.6
3001.07	169.6
3004.355	186.6
3007.636	181.6
3010.915	173.6
3014.191	185.6
3017.464	190.6
3020.734	180.6
3024.002	178.6
3027.267	190.6
3030.53	194.6
3033.789	206.6
3037.046	207.6
3040.301	199.6
3043.552	221.6
3046.801	226.6
3050.048	233.6
3053.291	234.6
3056.532	247.6
3059.771	260.6
3063.006	265.6
3066.239	265.6
3069.469	278.6
3072.697	286.6
3075.922	300.6
3079.144	307.6
3082.364	315.6
3085.581	320.6
3088.795	325.6
3092.007	329.6
3095.216	344.6
3098.423	348.6
3101.627	356.6
3104.828	360.6
3108.026	368.6
3111.222	376.6
3114.416	386.6
3117.607	392.6
3120.795	408.6
3123.98	408.6
3127.163	428.6
3130.344	442.6
3133.521	426.6
3136.696	461.6
3139.869	460.6
3143.039	470.6
3146.206	480.6
3149.371	488.6
3152.533	488.6
3155.693	498.6
3158.85	498.6
3162.005	505.6
3165.157	510.6
3168.306	509.6
3171.453	507.6
3174.597	509.6
3177.739	523.6
3180.878	508.6
3184.014	526.6
3187.149	513.6
3190.28	522.6
3193.409	526.6
3196.536	534.6
3199.659	534.6
3202.781	536.6
3205.9	536.6
3209.016	522.6
3212.13	523.6
3215.241	535.6
3218.35	519.6
3221.456	514.6
3224.56	510.6
3227.661	506.6
3230.76	488.6
3233.856	485.6
3236.95	488.6
3240.041	463.6
3243.13	461.6
3246.216	458.6
3249.3	453.6
3252.382	449.6
3255.46	448.6
3258.537	441.6
3261.611	433.6
3264.682	426.6
3267.751	436.6
3270.818	429.6
3273.882	424.6
3276.943	424.6
3280.002	430.6
3283.059	427.6
3286.113	407.6
3289.165	414.6
3292.214	404.6
3295.261	390.6
3298.306	398.6
3301.348	388.6
3304.387	382.6
3307.425	380.6
3310.459	375.6
3313.492	365.6
3316.521	366.6
3319.549	370.6
3322.574	360.6
3325.597	360.6
3328.617	365.6
3331.635	360.6
3334.65	353.6
3337.663	350.6
3340.674	348.6
3343.682	349.6
3346.688	337.6
3349.691	348.6
3352.692	348.6
3355.691	346.6
3358.687	341.6
3361.681	338.6
3364.673	338.6
3367.662	323.6
3370.649	327.6
3373.633	305.6
3376.615	302.6
3379.595	306.6
3382.572	306.6
3385.547	296.6
3388.52	287.6
3391.49	282.6
3394.458	284.6
3397.424	280.6
3400.387	273.6
3403.348	268.6
3406.307	265.6
3409.263	250.6
3412.217	258.6
3415.168	263.6
3418.118	254.6
3421.065	241.6
3424.009	244.6
3426.951	242.6
3429.891	237.6
3432.829	219.6
3435.764	218.6
3438.697	215.6
3441.628	213.6
3444.557	207.6
3447.483	203.6
3450.407	181.6
3453.328	173.6
3456.247	177.6
3459.164	158.6
3462.079	150.6
3464.991	146.6
3467.902	140.6
3470.809	143.6
3473.715	131.6
3476.618	116.6
3479.519	117.6
3482.418	114.6
3485.315	105.6
3488.209	93.6
3491.101	100.6
3493.99	102.6
3496.878	90.6
3499.763	69.6
3502.646	70.6
3505.527	57.6
3508.405	68.6
3511.281	56.6
3514.155	55.6
3517.027	47.6
3519.897	42.6
3522.764	32.6
3525.629	31.6
3528.492	17.6
3531.352	20.6
3534.211	9.6
3537.067	7.6
3539.921	11.6
3542.773	4.6
3545.622	1.6
3548.469	-12.4
3551.315	-12.4
3554.157	-18.4
3556.998	-20.4
3559.837	-16.4
3562.673	-24.4
3565.507	-23.4
3568.339	-34.4
3571.169	-31.4
3573.996	-36.4
3576.822	-42.4
3579.645	-31.4
3582.466	-44.4
3585.285	-45.4
3588.101	-39.4
3590.916	-49.4
3593.728	-55.4
3596.538	-58.4
3599.346	-62.4
3602.152	-60.4
3604.956	-59.4
3607.757	-53.4
3610.556	-66.4
3613.354	-64.4
3616.149	-74.4
3618.942	-77.4
3621.732	-75.4
3624.521	-79.4
3627.307	-71.4
3630.092	-77.4
3632.874	-73.4
3635.654	-86.4
3638.432	-79.4
3641.208	-84.4
3643.982	-88.4
3646.753	-96.4
3649.523	-88.4
3652.29	-86.4
3655.055	-87.4
3657.818	-91.4
3660.579	-89.4
3663.338	-96.4
3666.095	-96.4
3668.849	-98.4
3671.602	-100.4
3674.352	-94.4
3677.101	-103.4
3679.847	-99.4
3682.591	-102.4
3685.333	-100.4
3688.073	-98.4
3690.811	-104.4
3693.547	-113.4
3696.281	-106.4
3699.013	-107.4
3701.742	-114.4
3704.47	-110.4
3707.195	-109.4
3709.919	-107.4
3712.64	-116.4
3715.359	-116.4
3718.076	-116.4
3720.792	-115.4
3723.505	-115.4
3726.216	-112.4
3728.925	-120.4
3731.632	-115.4
3734.336	-127.4
3737.039	-112.4
3739.74	-121.4
3742.439	-124.4
3745.136	-110.4
3747.83	-125.4
3750.523	-118.4
3753.213	-114.4
3755.902	-119.4
3758.589	-122.4
3761.273	-113.4
3763.956	-114.4
3766.636	-119.4
3769.315	-110.4
3771.991	-122.4
3774.665	-124.4
3777.338	-109.4
3780.008	-115.4
3782.677	-118.4
3785.343	-115.4
3788.007	-122.4
3790.67	-118.4
3793.33	-117.4
3795.989	-119.4
3798.645	-115.4
3801.299	-117.4
3803.952	-121.4
3806.602	-115.4
3809.251	-119.4
3811.897	-123.4
3814.542	-126.4
3817.184	-119.4
3819.825	-120.4
3822.463	-121.4
3825.1	-120.4
3827.735	-122.4
3830.367	-124.4
3832.998	-125.4
3835.627	-123.4
3838.253	-125.4
3840.878	-120.4
3843.501	-115.4
3846.122	-119.4
3848.741	-125.4
3851.358	-121.4
3853.973	-123.4
3856.586	-121.4
3859.197	-125.4
3861.806	-117.4
3864.414	-123.4
3867.019	-115.4
3869.622	-120.4
3872.224	-112.4
3874.823	-97.4
3877.421	-87.4
3880.016	-60.4
3882.61	-38.4
3885.202	-37.4
3887.792	-54.4
3890.38	-85.4
3892.966	-107.4
3895.55	-113.4
3898.132	-122.4
3900.713	-120.4
3903.291	-124.4
3905.868	-125.4
3908.442	-114.4
3911.015	-125.4
3913.586	-122.4
3916.155	-127.4
3918.722	-124.4
3921.287	-123.4
3923.85	-126.4
3926.411	-122.4
3928.971	-123.4
3931.528	-125.4
3934.084	-122.4
3936.638	-120.4
3939.19	-130.4
3941.74	-128.4
3944.288	-128.4
3946.834	-118.4
3949.378	-120.4
3951.921	-126.4
3954.462	-130.4
3957	-125.4
3959.537	-124.4
3962.072	-124.4
3964.606	-117.4
3967.137	-121.4
3969.667	-126.4
3972.194	-128.4
3974.72	-126.4
3977.244	-124.4
3979.766	-126.4
3982.286	-120.4
3984.805	-124.4
3987.321	-122.4
3989.836	-114.4
3992.349	-124.4
3994.86	-125.4
3997.369	-133.4
3999.877	-123.4
4002.382	-119.4
4004.886	-128.4
4007.388	-120.4
4009.888	-122.4
4012.386	-127.4
4014.883	-121.4
4017.377	-124.4
4019.87	-123.4
4022.361	-122.4
4024.85	-121.4
4027.338	-121.4
4029.823	-119.4
4032.307	-118.4
4034.789	-128.4
4037.269	-124.4
4039.747	-119.4
4042.224	-119.4
4044.699	-124.4
4047.172	-115.4
4049.643	-118.4
4052.112	-121.4
4054.58	-125.4
4057.046	-125.4
4059.51	-126.4
4061.972	-117.4
4064.432	-120.4
4066.891	-120.4
4069.348	-119.4
4071.803	-129.4
4074.256	-127.4
4076.708	-121.4
4079.158	-119.4
4081.606	-112.4
4084.052	-122.4
4086.497	-120.4
4088.939	-117.4
4091.38	-123.4
4093.819	-119.4
4096.257	-132.4
4098.693	-126.4
4101.127	-127.4
4103.559	-126.4
4105.989	32.6
4108.418	30.6
4110.845	26.6
4113.27	18.6
4115.694	13.6
4118.115	9.6
4120.535	-123.4
4122.954	-129.4
4125.37	-117.4
4127.785	-125.4
4130.198	-122.4
4132.609	-123.4
4135.019	-130.4
4137.427	-131.4
4139.833	-126.4
4142.237	-128.4
