Data from 2018-2-8_conc=0_n=10_RamanShift_04.txt Node
Date: Mon Mar 12 13:52:28 IST 2018
User: aro
Spectrometer: QEPB0276
Trigger mode: 0
Integration Time (sec): 3.000000E1
Scans to average: 1
Electric dark correction enabled: true
Nonlinearity correction enabled: false
Boxcar width: 0
XAxis mode: Raman Shifts
Number of Pixels in Spectrum: 1044
>>>>>Begin Spectral Data<<<<<
160.701	10.6
166.742	37.6
172.777	114.6
178.805	341.6
184.826	931.6
190.841	2026.6
196.849	3376.6
202.85	4420.6
208.845	4865.6
214.833	4843.6
220.815	4771.6
226.789	4726.6
232.758	4779.6
238.719	4755.6
244.674	4738.6
250.623	4708.6
256.565	4636.6
262.5	4563.6
268.429	4557.6
274.351	4460.6
280.267	4450.6
286.176	4429.6
292.079	4411.6
297.975	4387.6
303.865	4404.6
309.748	4354.6
315.625	4353.6
321.495	4357.6
327.359	4334.6
333.217	4334.6
339.068	4373.6
344.912	4376.6
350.751	4351.6
356.583	4385.6
362.408	4371.6
368.227	4381.6
374.04	4408.6
379.847	4408.6
385.647	4443.6
391.44	4450.6
397.228	4470.6
403.009	4489.6
408.784	4514.6
414.553	4496.6
420.315	4544.6
426.071	4549.6
431.821	4542.6
437.565	4548.6
443.302	4533.6
449.033	4516.6
454.758	4471.6
460.477	4473.6
466.189	4438.6
471.896	4428.6
477.596	4413.6
483.29	4362.6
488.978	4375.6
494.66	4339.6
500.335	4287.6
506.005	4170.6
511.668	4049.6
517.325	3916.6
522.977	3823.6
528.622	3765.6
534.261	3684.6
539.894	3661.6
545.521	3641.6
551.141	3605.6
556.756	3589.6
562.365	3566.6
567.968	3508.6
573.565	3511.6
579.155	3499.6
584.74	3490.6
590.319	3462.6
595.892	3458.6
601.459	3434.6
607.02	3422.6
612.575	3405.6
618.124	3362.6
623.667	3333.6
629.204	3314.6
634.735	3298.6
640.261	3252.6
645.781	3248.6
651.294	3237.6
656.802	3238.6
662.304	3206.6
667.8	3233.6
673.29	3213.6
678.775	3206.6
684.254	3171.6
689.726	3185.6
695.193	3165.6
700.655	3152.6
706.11	3139.6
711.56	3126.6
717.004	3080.6
722.442	3074.6
727.874	3073.6
733.301	3041.6
738.722	3028.6
744.137	3042.6
749.547	3032.6
754.951	3023.6
760.349	3018.6
765.741	3039.6
771.128	3058.6
776.509	3070.6
781.885	3096.6
787.254	3089.6
792.618	3096.6
797.977	3091.6
803.33	3054.6
808.677	3029.6
814.019	2994.6
819.355	3001.6
824.686	2964.6
830.011	2978.6
835.33	2938.6
840.644	2939.6
845.952	2934.6
851.255	2947.6
856.552	2912.6
861.844	2905.6
867.13	2889.6
872.41	2884.6
877.686	2884.6
882.955	2836.6
888.219	2810.6
893.478	2806.6
898.731	2732.6
903.979	2700.6
909.221	2664.6
914.458	2664.6
919.69	2675.6
924.916	2672.6
930.136	2678.6
935.351	2662.6
940.561	2666.6
945.766	2650.6
950.965	2669.6
956.158	2628.6
961.347	2639.6
966.529	2597.6
971.707	2543.6
976.879	2509.6
982.046	2477.6
987.208	2479.6
992.364	2489.6
997.515	2480.6
1002.66	2510.6
1007.801	2531.6
1012.936	2557.6
1018.066	2570.6
1023.19	2546.6
1028.309	2544.6
1033.423	2578.6
1038.532	2563.6
1043.636	2527.6
1048.734	2504.6
1053.827	2497.6
1058.915	2444.6
1063.998	2443.6
1069.075	2429.6
1074.147	2422.6
1079.214	2431.6
1084.276	2449.6
1089.333	2441.6
1094.385	2460.6
1099.431	2459.6
1104.472	2455.6
1109.509	2450.6
1114.54	2406.6
1119.565	2362.6
1124.586	2337.6
1129.602	2306.6
1134.613	2306.6
1139.618	2275.6
1144.619	2275.6
1149.614	2271.6
1154.604	2288.6
1159.589	2279.6
1164.57	2303.6
1169.545	2287.6
1174.515	2290.6
1179.48	2281.6
1184.44	2265.6
1189.395	2259.6
1194.345	2229.6
1199.29	2211.6
1204.23	2214.6
1209.165	2206.6
1214.095	2226.6
1219.021	2245.6
1223.941	2256.6
1228.856	2280.6
1233.766	2272.6
1238.672	2280.6
1243.572	2275.6
1248.467	2257.6
1253.358	2227.6
1258.244	2201.6
1263.124	2167.6
1268	2110.6
1272.871	2100.6
1277.737	2108.6
1282.599	2082.6
1287.455	2057.6
1292.306	2083.6
1297.153	2084.6
1301.995	2112.6
1306.832	2120.6
1311.664	2141.6
1316.491	2119.6
1321.314	2113.6
1326.132	2103.6
1330.945	2098.6
1335.753	2037.6
1340.556	2023.6
1345.354	2006.6
1350.148	1958.6
1354.937	1907.6
1359.722	1885.6
1364.501	1858.6
1369.276	1843.6
1374.046	1803.6
1378.811	1772.6
1383.572	1758.6
1388.327	1775.6
1393.079	1781.6
1397.825	1761.6
1402.567	1773.6
1407.304	1753.6
1412.036	1787.6
1416.764	1791.6
1421.487	1791.6
1426.205	1794.6
1430.919	1774.6
1435.628	1787.6
1440.333	1827.6
1445.032	1820.6
1449.727	1847.6
1454.418	1853.6
1459.104	1853.6
1463.785	1823.6
1468.462	1813.6
1473.134	1747.6
1477.802	1719.6
1482.465	1689.6
1487.123	1641.6
1491.777	1622.6
1496.426	1611.6
1501.071	1593.6
1505.711	1590.6
1510.347	1577.6
1514.978	1584.6
1519.604	1569.6
1524.226	1572.6
1528.844	1539.6
1533.457	1538.6
1538.065	1543.6
1542.669	1533.6
1547.269	1539.6
1551.864	1537.6
1556.454	1554.6
1561.041	1573.6
1565.622	1566.6
1570.199	1577.6
1574.772	1596.6
1579.34	1617.6
1583.904	1641.6
1588.464	1636.6
1593.019	1640.6
1597.569	1650.6
1602.115	1655.6
1606.657	1634.6
1611.195	1639.6
1615.728	1627.6
1620.256	1620.6
1624.78	1630.6
1629.3	1633.6
1633.816	1633.6
1638.327	1639.6
1642.834	1646.6
1647.336	1651.6
1651.834	1659.6
1656.328	1652.6
1660.817	1650.6
1665.302	1635.6
1669.783	1596.6
1674.259	1569.6
1678.732	1545.6
1683.199	1490.6
1687.663	1455.6
1692.122	1406.6
1696.577	1332.6
1701.028	1277.6
1705.474	1237.6
1709.917	1183.6
1714.355	1174.6
1718.788	1161.6
1723.218	1174.6
1727.643	1185.6
1732.064	1143.6
1736.481	1160.6
1740.893	1128.6
1745.301	1104.6
1749.705	1080.6
1754.105	1056.6
1758.501	1058.6
1762.893	1037.6
1767.28	1028.6
1771.663	1021.6
1776.042	1004.6
1780.417	981.6
1784.787	968.6
1789.154	970.6
1793.516	958.6
1797.874	929.6
1802.228	930.6
1806.578	921.6
1810.924	912.6
1815.266	889.6
1819.603	901.6
1823.937	890.6
1828.266	913.6
1832.591	888.6
1836.913	893.6
1841.23	897.6
1845.543	889.6
1849.852	902.6
1854.156	891.6
1858.457	917.6
1862.754	910.6
1867.047	913.6
1871.335	908.6
1875.62	910.6
1879.9	911.6
1884.177	899.6
1888.449	890.6
1892.718	879.6
1896.982	862.6
1901.243	858.6
1905.499	850.6
1909.752	837.6
1914	819.6
1918.245	825.6
1922.485	788.6
1926.722	795.6
1930.954	795.6
1935.183	777.6
1939.408	777.6
1943.628	775.6
1947.845	773.6
1952.058	760.6
1956.267	759.6
1960.472	752.6
1964.673	739.6
1968.87	733.6
1973.063	732.6
1977.252	720.6
1981.438	726.6
1985.619	731.6
1989.797	723.6
1993.971	739.6
1998.14	741.6
2002.306	728.6
2006.469	739.6
2010.627	732.6
2014.781	727.6
2018.932	728.6
2023.078	727.6
2027.221	739.6
2031.36	720.6
2035.495	708.6
2039.627	708.6
2043.754	685.6
2047.878	693.6
2051.998	668.6
2056.114	670.6
2060.226	678.6
2064.334	681.6
2068.439	676.6
2072.54	670.6
2076.637	660.6
2080.73	654.6
2084.82	657.6
2088.906	655.6
2092.988	652.6
2097.066	644.6
2101.14	619.6
2105.211	626.6
2109.278	610.6
2113.342	604.6
2117.401	598.6
2121.457	595.6
2125.509	594.6
2129.558	593.6
2133.602	598.6
2137.643	597.6
2141.681	596.6
2145.714	590.6
2149.744	596.6
2153.77	581.6
2157.793	583.6
2161.812	591.6
2165.827	574.6
2169.838	572.6
2173.846	576.6
2177.851	545.6
2181.851	556.6
2185.848	533.6
2189.841	546.6
2193.831	541.6
2197.817	525.6
2201.799	522.6
2205.778	524.6
2209.753	532.6
2213.725	518.6
2217.693	519.6
2221.657	515.6
2225.618	520.6
2229.575	521.6
2233.529	512.6
2237.479	509.6
2241.425	514.6
2245.368	492.6
2249.307	497.6
2253.243	473.6
2257.175	475.6
2261.104	466.6
2265.029	459.6
2268.95	462.6
2272.868	465.6
2276.783	439.6
2280.694	440.6
2284.601	432.6
2288.505	430.6
2292.405	434.6
2296.302	433.6
2300.195	428.6
2304.085	424.6
2307.971	403.6
2311.854	406.6
2315.734	391.6
2319.609	389.6
2323.482	383.6
2327.351	392.6
2331.216	405.6
2335.078	416.6
2338.937	407.6
2342.792	386.6
2346.643	371.6
2350.492	379.6
2354.336	371.6
2358.178	374.6
2362.015	380.6
2365.85	388.6
2369.681	378.6
2373.508	383.6
2377.333	377.6
2381.153	374.6
2384.971	386.6
2388.785	386.6
2392.595	380.6
2396.402	370.6
2400.206	383.6
2404.007	376.6
2407.804	363.6
2411.597	363.6
2415.388	360.6
2419.174	369.6
2422.958	360.6
2426.738	367.6
2430.515	352.6
2434.289	349.6
2438.059	352.6
2441.825	336.6
2445.589	347.6
2449.349	332.6
2453.106	333.6
2456.859	322.6
2460.61	337.6
2464.356	314.6
2468.1	317.6
2471.84	325.6
2475.577	321.6
2479.311	308.6
2483.041	307.6
2486.768	304.6
2490.492	303.6
2494.213	314.6
2497.93	312.6
2501.644	300.6
2505.355	292.6
2509.062	288.6
2512.766	291.6
2516.467	286.6
2520.165	281.6
2523.859	292.6
2527.551	282.6
2531.239	269.6
2534.923	266.6
2538.605	262.6
2542.283	254.6
2545.958	268.6
2549.63	257.6
2553.299	257.6
2556.964	259.6
2560.626	259.6
2564.285	242.6
2567.941	233.6
2571.594	249.6
2575.243	235.6
2578.89	230.6
2582.533	227.6
2586.173	220.6
2589.809	220.6
2593.443	230.6
2597.073	217.6
2600.701	210.6
2604.325	208.6
2607.946	204.6
2611.564	214.6
2615.178	223.6
2618.79	216.6
2622.398	216.6
2626.004	199.6
2629.606	202.6
2633.205	202.6
2636.801	190.6
2640.394	200.6
2643.983	206.6
2647.57	198.6
2651.153	197.6
2654.734	199.6
2658.311	187.6
2661.885	180.6
2665.456	183.6
2669.025	192.6
2672.589	186.6
2676.151	184.6
2679.71	175.6
2683.266	175.6
2686.819	175.6
2690.368	173.6
2693.915	158.6
2697.458	148.6
2700.999	158.6
2704.536	155.6
2708.071	154.6
2711.602	156.6
2715.13	146.6
2718.656	150.6
2722.178	149.6
2725.697	135.6
2729.214	131.6
2732.727	142.6
2736.237	148.6
2739.744	137.6
2743.249	129.6
2746.75	130.6
2750.248	132.6
2753.743	120.6
2757.236	122.6
2760.725	124.6
2764.211	115.6
2767.695	116.6
2771.175	108.6
2774.652	110.6
2778.127	113.6
2781.598	105.6
2785.067	114.6
2788.532	112.6
2791.995	106.6
2795.455	114.6
2798.911	110.6
2802.365	119.6
2805.816	121.6
2809.264	119.6
2812.709	123.6
2816.151	118.6
2819.59	119.6
2823.026	117.6
2826.46	121.6
2829.89	114.6
2833.318	110.6
2836.742	116.6
2840.164	121.6
2843.583	120.6
2846.999	130.6
2850.412	117.6
2853.822	115.6
2857.229	121.6
2860.634	129.6
2864.035	128.6
2867.434	129.6
2870.83	138.6
2874.223	146.6
2877.613	145.6
2881	160.6
2884.385	163.6
2887.766	148.6
2891.145	151.6
2894.521	149.6
2897.894	161.6
2901.264	148.6
2904.631	155.6
2907.996	149.6
2911.358	168.6
2914.717	154.6
2918.073	160.6
2921.426	168.6
2924.777	183.6
2928.124	178.6
2931.469	185.6
2934.811	191.6
2938.15	189.6
2941.487	204.6
2944.821	198.6
2948.152	192.6
2951.48	205.6
2954.805	195.6
2958.128	187.6
2961.447	174.6
2964.765	185.6
2968.079	186.6
2971.39	183.6
2974.699	196.6
2978.005	184.6
2981.308	198.6
2984.609	186.6
2987.907	181.6
2991.202	195.6
2994.494	193.6
2997.784	195.6
3001.07	203.6
3004.355	202.6
3007.636	204.6
3010.915	196.6
3014.191	203.6
3017.464	210.6
3020.734	215.6
3024.002	208.6
3027.267	211.6
3030.53	224.6
3033.789	227.6
3037.046	234.6
3040.301	232.6
3043.552	245.6
3046.801	255.6
3050.048	253.6
3053.291	269.6
3056.532	283.6
3059.771	289.6
3063.006	284.6
3066.239	311.6
3069.469	313.6
3072.697	324.6
3075.922	339.6
3079.144	346.6
3082.364	356.6
3085.581	353.6
3088.795	366.6
3092.007	368.6
3095.216	385.6
3098.423	393.6
3101.627	394.6
3104.828	402.6
3108.026	405.6
3111.222	418.6
3114.416	429.6
3117.607	438.6
3120.795	453.6
3123.98	458.6
3127.163	461.6
3130.344	479.6
3133.521	491.6
3136.696	507.6
3139.869	507.6
3143.039	510.6
3146.206	518.6
3149.371	532.6
3152.533	532.6
3155.693	551.6
3158.85	541.6
3162.005	557.6
3165.157	555.6
3168.306	551.6
3171.453	552.6
3174.597	564.6
3177.739	561.6
3180.878	556.6
3184.014	571.6
3187.149	569.6
3190.28	551.6
3193.409	559.6
3196.536	567.6
3199.659	576.6
3202.781	574.6
3205.9	577.6
3209.016	585.6
3212.13	573.6
3215.241	575.6
3218.35	560.6
3221.456	557.6
3224.56	560.6
3227.661	553.6
3230.76	534.6
3233.856	527.6
3236.95	518.6
3240.041	519.6
3243.13	500.6
3246.216	486.6
3249.3	490.6
3252.382	496.6
3255.46	488.6
3258.537	488.6
3261.611	477.6
3264.682	470.6
3267.751	466.6
3270.818	465.6
3273.882	456.6
3276.943	465.6
3280.002	452.6
3283.059	460.6
3286.113	446.6
3289.165	446.6
3292.214	437.6
3295.261	425.6
3298.306	427.6
3301.348	417.6
3304.387	418.6
3307.425	415.6
3310.459	415.6
3313.492	407.6
3316.521	399.6
3319.549	400.6
3322.574	395.6
3325.597	397.6
3328.617	405.6
3331.635	379.6
3334.65	389.6
3337.663	379.6
3340.674	387.6
3343.682	391.6
3346.688	388.6
3349.691	389.6
3352.692	375.6
3355.691	374.6
3358.687	376.6
3361.681	376.6
3364.673	380.6
3367.662	364.6
3370.649	358.6
3373.633	348.6
3376.615	347.6
3379.595	334.6
3382.572	337.6
3385.547	329.6
3388.52	319.6
3391.49	323.6
3394.458	321.6
3397.424	302.6
3400.387	306.6
3403.348	303.6
3406.307	290.6
3409.263	297.6
3412.217	293.6
3415.168	290.6
3418.118	288.6
3421.065	280.6
3424.009	269.6
3426.951	274.6
3429.891	241.6
3432.829	245.6
3435.764	253.6
3438.697	243.6
3441.628	241.6
3444.557	225.6
3447.483	217.6
3450.407	208.6
3453.328	194.6
3456.247	185.6
3459.164	178.6
3462.079	172.6
3464.991	171.6
3467.902	161.6
3470.809	158.6
3473.715	145.6
3476.618	145.6
3479.519	136.6
3482.418	135.6
3485.315	116.6
3488.209	108.6
3491.101	114.6
3493.99	122.6
3496.878	94.6
3499.763	90.6
3502.646	86.6
3505.527	73.6
3508.405	87.6
3511.281	70.6
3514.155	66.6
3517.027	59.6
3519.897	55.6
3522.764	45.6
3525.629	38.6
3528.492	32.6
3531.352	32.6
3534.211	24.6
3537.067	22.6
3539.921	18.6
3542.773	13.6
3545.622	-2.4
3548.469	-0.4
3551.315	2.6
3554.157	-11.4
3556.998	-16.4
3559.837	-13.4
3562.673	-17.4
3565.507	-23.4
3568.339	-28.4
3571.169	-34.4
3573.996	-32.4
3576.822	-28.4
3579.645	-36.4
3582.466	-28.4
3585.285	-40.4
3588.101	-34.4
3590.916	-46.4
3593.728	-61.4
3596.538	-56.4
3599.346	-50.4
3602.152	-59.4
3604.956	-56.4
3607.757	-53.4
3610.556	-57.4
3613.354	-59.4
3616.149	-75.4
3618.942	-72.4
3621.732	-68.4
3624.521	-66.4
3627.307	-73.4
3630.092	-56.4
3632.874	68.6
3635.654	102.6
3638.432	-5.4
3641.208	-78.4
3643.982	-85.4
3646.753	-83.4
3649.523	-85.4
3652.29	-83.4
3655.055	-83.4
3657.818	-84.4
3660.579	-88.4
3663.338	-89.4
3666.095	-94.4
3668.849	-97.4
3671.602	-91.4
3674.352	-90.4
3677.101	-94.4
3679.847	-92.4
3682.591	-98.4
3685.333	-95.4
3688.073	-103.4
3690.811	-102.4
3693.547	-104.4
3696.281	-103.4
3699.013	-99.4
3701.742	-105.4
3704.47	-105.4
3707.195	-101.4
3709.919	-103.4
3712.64	-112.4
3715.359	-110.4
3718.076	-109.4
3720.792	-108.4
3723.505	-112.4
3726.216	-106.4
3728.925	-112.4
3731.632	-109.4
3734.336	-120.4
3737.039	-108.4
3739.74	-117.4
3742.439	-125.4
3745.136	-106.4
3747.83	-118.4
3750.523	-111.4
3753.213	-113.4
3755.902	-114.4
3758.589	-121.4
3761.273	-111.4
3763.956	-112.4
3766.636	-110.4
3769.315	-111.4
3771.991	-107.4
3774.665	-116.4
3777.338	-107.4
3780.008	-112.4
3782.677	-115.4
3785.343	-116.4
3788.007	-116.4
3790.67	-111.4
3793.33	-109.4
3795.989	-115.4
3798.645	-114.4
3801.299	-114.4
3803.952	-120.4
3806.602	-112.4
3809.251	-123.4
3811.897	-120.4
3814.542	-117.4
3817.184	-113.4
3819.825	-114.4
3822.463	-119.4
3825.1	-117.4
3827.735	-116.4
3830.367	-114.4
3832.998	-120.4
3835.627	-115.4
3838.253	-117.4
3840.878	-115.4
3843.501	-111.4
3846.122	-116.4
3848.741	-125.4
3851.358	-120.4
3853.973	-122.4
3856.586	-113.4
3859.197	-118.4
3861.806	-106.4
3864.414	-118.4
3867.019	-115.4
3869.622	-115.4
3872.224	-107.4
3874.823	-101.4
3877.421	-92.4
3880.016	-67.4
3882.61	-41.4
3885.202	-39.4
3887.792	-58.4
3890.38	-87.4
3892.966	-110.4
3895.55	-114.4
3898.132	-121.4
3900.713	-119.4
3903.291	-121.4
3905.868	-122.4
3908.442	-114.4
3911.015	-123.4
3913.586	-120.4
3916.155	-125.4
3918.722	-128.4
3921.287	-121.4
3923.85	-120.4
3926.411	-121.4
3928.971	-117.4
3931.528	-120.4
3934.084	-120.4
3936.638	-115.4
3939.19	-121.4
3941.74	-127.4
3944.288	-125.4
3946.834	-121.4
3949.378	-114.4
3951.921	-119.4
3954.462	-125.4
3957	-121.4
3959.537	-118.4
3962.072	-122.4
3964.606	-120.4
3967.137	-118.4
3969.667	-120.4
3972.194	-122.4
3974.72	-120.4
3977.244	-121.4
3979.766	-120.4
3982.286	-121.4
3984.805	-124.4
3987.321	-124.4
3989.836	-113.4
3992.349	-119.4
3994.86	-120.4
3997.369	-114.4
3999.877	-125.4
4002.382	-118.4
4004.886	-123.4
4007.388	-115.4
4009.888	-114.4
4012.386	-124.4
4014.883	-119.4
4017.377	-117.4
4019.87	-117.4
4022.361	-119.4
4024.85	-121.4
4027.338	-119.4
4029.823	-117.4
4032.307	-114.4
4034.789	-122.4
4037.269	-117.4
4039.747	-110.4
4042.224	-118.4
4044.699	-127.4
4047.172	-122.4
4049.643	-113.4
4052.112	-115.4
4054.58	-117.4
4057.046	-115.4
4059.51	-121.4
4061.972	-115.4
4064.432	-122.4
4066.891	-119.4
4069.348	-122.4
4071.803	-120.4
4074.256	-118.4
4076.708	-116.4
4079.158	-117.4
4081.606	-114.4
4084.052	-121.4
4086.497	-114.4
4088.939	-113.4
4091.38	-118.4
4093.819	-119.4
4096.257	-127.4
4098.693	-123.4
4101.127	-125.4
4103.559	-122.4
4105.989	5.6
4108.418	-2.4
4110.845	-3.4
4113.27	7.6
4115.694	-0.4
4118.115	-5.4
4120.535	-120.4
4122.954	-123.4
4125.37	-116.4
4127.785	-117.4
4130.198	-118.4
4132.609	-120.4
4135.019	-124.4
4137.427	-125.4
4139.833	-125.4
4142.237	-129.4
