Data from 2018-2-8_conc=3_n=5_RamanShift_03.txt Node
Date: Mon Mar 12 14:42:28 IST 2018
User: aro
Spectrometer: QEPB0276
Trigger mode: 0
Integration Time (sec): 3.000000E1
Scans to average: 1
Electric dark correction enabled: true
Nonlinearity correction enabled: false
Boxcar width: 0
XAxis mode: Raman Shifts
Number of Pixels in Spectrum: 1044
>>>>>Begin Spectral Data<<<<<
160.701	18.2
166.742	44.2
172.777	110.2
178.805	358.2
184.826	970.2
190.841	2084.2
196.849	3457.2
202.85	4534.2
208.845	4979.2
214.833	4999.2
220.815	4896.2
226.789	4878.2
232.758	4897.2
238.719	4898.2
244.674	4846.2
250.623	4808.2
256.565	4739.2
262.5	4694.2
268.429	4585.2
274.351	4581.2
280.267	4561.2
286.176	4511.2
292.079	4505.2
297.975	4484.2
303.865	4463.2
309.748	4462.2
315.625	4444.2
321.495	4452.2
327.359	4442.2
333.217	4406.2
339.068	4441.2
344.912	4454.2
350.751	4441.2
356.583	4454.2
362.408	4464.2
368.227	4457.2
374.04	4482.2
379.847	4521.2
385.647	4527.2
391.44	4556.2
397.228	4551.2
403.009	4589.2
408.784	4601.2
414.553	4617.2
420.315	4659.2
426.071	4628.2
431.821	4619.2
437.565	4639.2
443.302	4645.2
449.033	4631.2
454.758	4588.2
460.477	4599.2
466.189	4546.2
471.896	4512.2
477.596	4473.2
483.29	4476.2
488.978	4465.2
494.66	4429.2
500.335	4356.2
506.005	4288.2
511.668	4128.2
517.325	3987.2
522.977	3910.2
528.622	3814.2
534.261	3749.2
539.894	3695.2
545.521	3703.2
551.141	3654.2
556.756	3633.2
562.365	3611.2
567.968	3582.2
573.565	3572.2
579.155	3545.2
584.74	3548.2
590.319	3529.2
595.892	3506.2
601.459	3505.2
607.02	3482.2
612.575	3477.2
618.124	3456.2
623.667	3418.2
629.204	3388.2
634.735	3344.2
640.261	3316.2
645.781	3301.2
651.294	3301.2
656.802	3302.2
662.304	3267.2
667.8	3274.2
673.29	3249.2
678.775	3246.2
684.254	3252.2
689.726	3219.2
695.193	3242.2
700.655	3230.2
706.11	3157.2
711.56	3141.2
717.004	3130.2
722.442	3107.2
727.874	3110.2
733.301	3111.2
738.722	3095.2
744.137	3093.2
749.547	3067.2
754.951	3068.2
760.349	3061.2
765.741	3091.2
771.128	3080.2
776.509	3127.2
781.885	3142.2
787.254	3148.2
792.618	3145.2
797.977	3116.2
803.33	3104.2
808.677	3099.2
814.019	3036.2
819.355	3039.2
824.686	3019.2
830.011	3007.2
835.33	3036.2
840.644	2992.2
845.952	2972.2
851.255	2982.2
856.552	2963.2
861.844	2934.2
867.13	2936.2
872.41	2910.2
877.686	2895.2
882.955	2869.2
888.219	2829.2
893.478	2805.2
898.731	2780.2
903.979	2730.2
909.221	2733.2
914.458	2715.2
919.69	2707.2
924.916	2714.2
930.136	2694.2
935.351	2733.2
940.561	2699.2
945.766	2715.2
950.965	2684.2
956.158	2697.2
961.347	2658.2
966.529	2611.2
971.707	2575.2
976.879	2566.2
982.046	2516.2
987.208	2514.2
992.364	2528.2
997.515	2512.2
1002.66	2542.2
1007.801	2572.2
1012.936	2571.2
1018.066	2586.2
1023.19	2601.2
1028.309	2591.2
1033.423	2575.2
1038.532	2595.2
1043.636	2572.2
1048.734	2552.2
1053.827	2525.2
1058.915	2496.2
1063.998	2468.2
1069.075	2452.2
1074.147	2489.2
1079.214	2443.2
1084.276	2475.2
1089.333	2476.2
1094.385	2482.2
1099.431	2478.2
1104.472	2468.2
1109.509	2450.2
1114.54	2440.2
1119.565	2392.2
1124.586	2380.2
1129.602	2352.2
1134.613	2317.2
1139.618	2302.2
1144.619	2316.2
1149.614	2305.2
1154.604	2325.2
1159.589	2313.2
1164.57	2326.2
1169.545	2328.2
1174.515	2327.2
1179.48	2318.2
1184.44	2313.2
1189.395	2297.2
1194.345	2260.2
1199.29	2244.2
1204.23	2241.2
1209.165	2252.2
1214.095	2284.2
1219.021	2261.2
1223.941	2268.2
1228.856	2290.2
1233.766	2319.2
1238.672	2326.2
1243.572	2309.2
1248.467	2281.2
1253.358	2279.2
1258.244	2230.2
1263.124	2199.2
1268	2142.2
1272.871	2136.2
1277.737	2110.2
1282.599	2080.2
1287.455	2102.2
1292.306	2100.2
1297.153	2108.2
1301.995	2135.2
1306.832	2126.2
1311.664	2152.2
1316.491	2153.2
1321.314	2143.2
1326.132	2152.2
1330.945	2135.2
1335.753	2070.2
1340.556	2043.2
1345.354	2001.2
1350.148	1971.2
1354.937	1962.2
1359.722	1915.2
1364.501	1895.2
1369.276	1849.2
1374.046	1816.2
1378.811	1798.2
1383.572	1803.2
1388.327	1777.2
1393.079	1785.2
1397.825	1780.2
1402.567	1809.2
1407.304	1796.2
1412.036	1794.2
1416.764	1790.2
1421.487	1807.2
1426.205	1819.2
1430.919	1829.2
1435.628	1809.2
1440.333	1833.2
1445.032	1831.2
1449.727	1862.2
1454.418	1867.2
1459.104	1874.2
1463.785	1836.2
1468.462	1823.2
1473.134	1779.2
1477.802	1748.2
1482.465	1710.2
1487.123	1668.2
1491.777	1658.2
1496.426	1630.2
1501.071	1620.2
1505.711	1627.2
1510.347	1587.2
1514.978	1605.2
1519.604	1608.2
1524.226	1594.2
1528.844	1586.2
1533.457	1577.2
1538.065	1555.2
1542.669	1562.2
1547.269	1564.2
1551.864	1577.2
1556.454	1592.2
1561.041	1604.2
1565.622	1616.2
1570.199	1605.2
1574.772	1629.2
1579.34	1648.2
1583.904	1663.2
1588.464	1681.2
1593.019	1688.2
1597.569	1704.2
1602.115	1681.2
1606.657	1670.2
1611.195	1675.2
1615.728	1663.2
1620.256	1646.2
1624.78	1655.2
1629.3	1676.2
1633.816	1678.2
1638.327	1668.2
1642.834	1679.2
1647.336	1707.2
1651.834	1699.2
1656.328	1710.2
1660.817	1701.2
1665.302	1687.2
1669.783	1631.2
1674.259	1597.2
1678.732	1577.2
1683.199	1528.2
1687.663	1475.2
1692.122	1428.2
1696.577	1366.2
1701.028	1310.2
1705.474	1275.2
1709.917	1233.2
1714.355	1189.2
1718.788	1205.2
1723.218	1205.2
1727.643	1196.2
1732.064	1209.2
1736.481	1179.2
1740.893	1162.2
1745.301	1127.2
1749.705	1107.2
1754.105	1104.2
1758.501	1080.2
1762.893	1068.2
1767.28	1044.2
1771.663	1033.2
1776.042	1025.2
1780.417	1013.2
1784.787	1004.2
1789.154	989.2
1793.516	978.2
1797.874	980.2
1802.228	955.2
1806.578	949.2
1810.924	938.2
1815.266	937.2
1819.603	929.2
1823.937	917.2
1828.266	927.2
1832.591	931.2
1836.913	927.2
1841.23	928.2
1845.543	941.2
1849.852	920.2
1854.156	921.2
1858.457	935.2
1862.754	935.2
1867.047	927.2
1871.335	923.2
1875.62	933.2
1879.9	914.2
1884.177	917.2
1888.449	897.2
1892.718	892.2
1896.982	883.2
1901.243	871.2
1905.499	869.2
1909.752	851.2
1914	842.2
1918.245	836.2
1922.485	812.2
1926.722	826.2
1930.954	810.2
1935.183	803.2
1939.408	808.2
1943.628	799.2
1947.845	791.2
1952.058	790.2
1956.267	769.2
1960.472	782.2
1964.673	775.2
1968.87	763.2
1973.063	754.2
1977.252	740.2
1981.438	748.2
1985.619	738.2
1989.797	730.2
1993.971	754.2
1998.14	756.2
2002.306	756.2
2006.469	756.2
2010.627	734.2
2014.781	752.2
2018.932	754.2
2023.078	749.2
2027.221	764.2
2031.36	737.2
2035.495	733.2
2039.627	714.2
2043.754	708.2
2047.878	702.2
2051.998	690.2
2056.114	706.2
2060.226	690.2
2064.334	700.2
2068.439	700.2
2072.54	686.2
2076.637	687.2
2080.73	684.2
2084.82	667.2
2088.906	685.2
2092.988	672.2
2097.066	667.2
2101.14	651.2
2105.211	638.2
2109.278	639.2
2113.342	625.2
2117.401	620.2
2121.457	617.2
2125.509	610.2
2129.558	607.2
2133.602	620.2
2137.643	617.2
2141.681	602.2
2145.714	604.2
2149.744	601.2
2153.77	604.2
2157.793	614.2
2161.812	602.2
2165.827	597.2
2169.838	595.2
2173.846	573.2
2177.851	551.2
2181.851	552.2
2185.848	554.2
2189.841	554.2
2193.831	548.2
2197.817	553.2
2201.799	552.2
2205.778	538.2
2209.753	531.2
2213.725	529.2
2217.693	528.2
2221.657	543.2
2225.618	539.2
2229.575	536.2
2233.529	537.2
2237.479	523.2
2241.425	521.2
2245.368	514.2
2249.307	491.2
2253.243	492.2
2257.175	483.2
2261.104	484.2
2265.029	465.2
2268.95	467.2
2272.868	460.2
2276.783	454.2
2280.694	448.2
2284.601	447.2
2288.505	443.2
2292.405	434.2
2296.302	439.2
2300.195	428.2
2304.085	419.2
2307.971	397.2
2311.854	420.2
2315.734	404.2
2319.609	401.2
2323.482	397.2
2327.351	393.2
2331.216	400.2
2335.078	414.2
2338.937	396.2
2342.792	381.2
2346.643	371.2
2350.492	381.2
2354.336	375.2
2358.178	375.2
2362.015	389.2
2365.85	389.2
2369.681	385.2
2373.508	385.2
2377.333	380.2
2381.153	381.2
2384.971	390.2
2388.785	384.2
2392.595	376.2
2396.402	376.2
2400.206	375.2
2404.007	365.2
2407.804	368.2
2411.597	361.2
2415.388	359.2
2419.174	358.2
2422.958	351.2
2426.738	357.2
2430.515	359.2
2434.289	361.2
2438.059	354.2
2441.825	348.2
2445.589	344.2
2449.349	344.2
2453.106	333.2
2456.859	331.2
2460.61	335.2
2464.356	314.2
2468.1	310.2
2471.84	312.2
2475.577	318.2
2479.311	304.2
2483.041	301.2
2486.768	310.2
2490.492	301.2
2494.213	311.2
2497.93	300.2
2501.644	292.2
2505.355	296.2
2509.062	291.2
2512.766	276.2
2516.467	290.2
2520.165	289.2
2523.859	287.2
2527.551	271.2
2531.239	254.2
2534.923	262.2
2538.605	268.2
2542.283	258.2
2545.958	262.2
2549.63	267.2
2553.299	256.2
2556.964	259.2
2560.626	246.2
2564.285	241.2
2567.941	251.2
2571.594	243.2
2575.243	237.2
2578.89	231.2
2582.533	222.2
2586.173	224.2
2589.809	213.2
2593.443	222.2
2597.073	222.2
2600.701	219.2
2604.325	218.2
2607.946	210.2
2611.564	211.2
2615.178	214.2
2618.79	213.2
2622.398	213.2
2626.004	220.2
2629.606	212.2
2633.205	202.2
2636.801	202.2
2640.394	205.2
2643.983	201.2
2647.57	197.2
2651.153	194.2
2654.734	197.2
2658.311	184.2
2661.885	193.2
2665.456	197.2
2669.025	186.2
2672.589	177.2
2676.151	182.2
2679.71	185.2
2683.266	178.2
2686.819	171.2
2690.368	176.2
2693.915	166.2
2697.458	164.2
2700.999	166.2
2704.536	161.2
2708.071	150.2
2711.602	155.2
2715.13	159.2
2718.656	150.2
2722.178	147.2
2725.697	135.2
2729.214	139.2
2732.727	144.2
2736.237	141.2
2739.744	141.2
2743.249	133.2
2746.75	134.2
2750.248	128.2
2753.743	126.2
2757.236	125.2
2760.725	122.2
2764.211	121.2
2767.695	113.2
2771.175	109.2
2774.652	106.2
2778.127	115.2
2781.598	110.2
2785.067	112.2
2788.532	114.2
2791.995	112.2
2795.455	115.2
2798.911	114.2
2802.365	120.2
2805.816	117.2
2809.264	108.2
2812.709	119.2
2816.151	124.2
2819.59	119.2
2823.026	111.2
2826.46	122.2
2829.89	111.2
2833.318	112.2
2836.742	114.2
2840.164	111.2
2843.583	119.2
2846.999	126.2
2850.412	125.2
2853.822	125.2
2857.229	120.2
2860.634	128.2
2864.035	129.2
2867.434	125.2
2870.83	140.2
2874.223	145.2
2877.613	149.2
2881	158.2
2884.385	151.2
2887.766	146.2
2891.145	144.2
2894.521	150.2
2897.894	156.2
2901.264	154.2
2904.631	163.2
2907.996	157.2
2911.358	156.2
2914.717	160.2
2918.073	161.2
2921.426	170.2
2924.777	169.2
2928.124	182.2
2931.469	182.2
2934.811	192.2
2938.15	188.2
2941.487	192.2
2944.821	185.2
2948.152	185.2
2951.48	188.2
2954.805	201.2
2958.128	183.2
2961.447	184.2
2964.765	185.2
2968.079	193.2
2971.39	187.2
2974.699	191.2
2978.005	187.2
2981.308	198.2
2984.609	197.2
2987.907	189.2
2991.202	203.2
2994.494	192.2
2997.784	200.2
3001.07	210.2
3004.355	208.2
3007.636	212.2
3010.915	208.2
3014.191	212.2
3017.464	218.2
3020.734	225.2
3024.002	215.2
3027.267	224.2
3030.53	238.2
3033.789	238.2
3037.046	240.2
3040.301	237.2
3043.552	247.2
3046.801	257.2
3050.048	260.2
3053.291	275.2
3056.532	289.2
3059.771	298.2
3063.006	299.2
3066.239	324.2
3069.469	318.2
3072.697	333.2
3075.922	339.2
3079.144	354.2
3082.364	368.2
3085.581	386.2
3088.795	377.2
3092.007	387.2
3095.216	388.2
3098.423	402.2
3101.627	418.2
3104.828	417.2
3108.026	417.2
3111.222	441.2
3114.416	442.2
3117.607	454.2
3120.795	468.2
3123.98	471.2
3127.163	492.2
3130.344	500.2
3133.521	508.2
3136.696	524.2
3139.869	527.2
3143.039	535.2
3146.206	536.2
3149.371	565.2
3152.533	556.2
3155.693	579.2
3158.85	571.2
3162.005	578.2
3165.157	568.2
3168.306	577.2
3171.453	580.2
3174.597	585.2
3177.739	590.2
3180.878	594.2
3184.014	591.2
3187.149	592.2
3190.28	611.2
3193.409	601.2
3196.536	596.2
3199.659	602.2
3202.781	611.2
3205.9	615.2
3209.016	612.2
3212.13	609.2
3215.241	616.2
3218.35	592.2
3221.456	589.2
3224.56	583.2
3227.661	587.2
3230.76	581.2
3233.856	564.2
3236.95	557.2
3240.041	550.2
3243.13	539.2
3246.216	522.2
3249.3	505.2
3252.382	509.2
3255.46	522.2
3258.537	515.2
3261.611	504.2
3264.682	499.2
3267.751	485.2
3270.818	483.2
3273.882	486.2
3276.943	488.2
3280.002	486.2
3283.059	489.2
3286.113	477.2
3289.165	471.2
3292.214	470.2
3295.261	450.2
3298.306	448.2
3301.348	443.2
3304.387	445.2
3307.425	441.2
3310.459	431.2
3313.492	428.2
3316.521	421.2
3319.549	418.2
3322.574	416.2
3325.597	414.2
3328.617	414.2
3331.635	423.2
3334.65	412.2
3337.663	401.2
3340.674	409.2
3343.682	400.2
3346.688	398.2
3349.691	410.2
3352.692	407.2
3355.691	400.2
3358.687	392.2
3361.681	396.2
3364.673	386.2
3367.662	383.2
3370.649	379.2
3373.633	362.2
3376.615	365.2
3379.595	347.2
3382.572	355.2
3385.547	352.2
3388.52	342.2
3391.49	328.2
3394.458	329.2
3397.424	328.2
3400.387	316.2
3403.348	319.2
3406.307	312.2
3409.263	305.2
3412.217	303.2
3415.168	303.2
3418.118	298.2
3421.065	277.2
3424.009	287.2
3426.951	278.2
3429.891	286.2
3432.829	272.2
3435.764	266.2
3438.697	253.2
3441.628	245.2
3444.557	235.2
3447.483	229.2
3450.407	217.2
3453.328	206.2
3456.247	200.2
3459.164	194.2
3462.079	190.2
3464.991	176.2
3467.902	172.2
3470.809	169.2
3473.715	155.2
3476.618	148.2
3479.519	144.2
3482.418	134.2
3485.315	127.2
3488.209	115.2
3491.101	115.2
3493.99	123.2
3496.878	113.2
3499.763	101.2
3502.646	97.2
3505.527	92.2
3508.405	86.2
3511.281	82.2
3514.155	71.2
3517.027	64.2
3519.897	60.2
3522.764	49.2
3525.629	45.2
3528.492	40.2
3531.352	30.2
3534.211	20.2
3537.067	14.2
3539.921	18.2
3542.773	13.2
3545.622	6.2
3548.469	1.2
3551.315	-3.8
3554.157	-11.8
3556.998	-16.8
3559.837	-10.8
3562.673	-14.8
3565.507	-18.8
3568.339	-24.8
3571.169	-30.8
3573.996	-32.8
3576.822	-33.8
3579.645	-32.8
3582.466	-29.8
3585.285	-42.8
3588.101	-30.8
3590.916	-48.8
3593.728	-60.8
3596.538	-55.8
3599.346	-58.8
3602.152	-53.8
3604.956	-53.8
3607.757	-54.8
3610.556	-59.8
3613.354	-63.8
3616.149	-70.8
3618.942	-77.8
3621.732	-72.8
3624.521	-70.8
3627.307	-72.8
3630.092	-71.8
3632.874	-73.8
3635.654	-77.8
3638.432	-83.8
3641.208	-80.8
3643.982	-90.8
3646.753	-88.8
3649.523	-88.8
3652.29	-84.8
3655.055	-85.8
3657.818	-89.8
3660.579	-93.8
3663.338	-95.8
3666.095	-95.8
3668.849	-93.8
3671.602	-90.8
3674.352	-94.8
3677.101	-102.8
3679.847	-99.8
3682.591	-108.8
3685.333	-103.8
3688.073	-103.8
3690.811	-98.8
3693.547	-110.8
3696.281	-111.8
3699.013	-106.8
3701.742	-111.8
3704.47	-113.8
3707.195	-106.8
3709.919	-104.8
3712.64	-111.8
3715.359	-111.8
3718.076	-113.8
3720.792	-115.8
3723.505	-117.8
3726.216	-111.8
3728.925	-118.8
3731.632	-115.8
3734.336	-121.8
3737.039	-107.8
3739.74	-118.8
3742.439	-124.8
3745.136	-115.8
3747.83	-127.8
3750.523	-115.8
3753.213	-114.8
3755.902	-113.8
3758.589	-117.8
3761.273	-112.8
3763.956	-116.8
3766.636	-114.8
3769.315	-107.8
3771.991	-115.8
3774.665	-120.8
3777.338	-107.8
3780.008	-120.8
3782.677	-119.8
3785.343	-124.8
3788.007	-123.8
3790.67	-118.8
3793.33	-118.8
3795.989	-120.8
3798.645	-115.8
3801.299	-123.8
3803.952	-127.8
3806.602	-123.8
3809.251	-123.8
3811.897	-126.8
3814.542	-119.8
3817.184	-111.8
3819.825	-119.8
3822.463	-119.8
3825.1	-122.8
3827.735	-124.8
3830.367	-126.8
3832.998	-123.8
3835.627	-124.8
3838.253	-119.8
3840.878	-117.8
3843.501	-116.8
3846.122	-126.8
3848.741	-131.8
3851.358	-122.8
3853.973	-128.8
3856.586	-117.8
3859.197	-126.8
3861.806	-119.8
3864.414	-126.8
3867.019	-120.8
3869.622	-122.8
3872.224	-113.8
3874.823	-98.8
3877.421	-94.8
3880.016	-63.8
3882.61	-44.8
3885.202	-44.8
3887.792	-58.8
3890.38	-91.8
3892.966	-111.8
3895.55	-112.8
3898.132	-117.8
3900.713	-120.8
3903.291	-121.8
3905.868	-128.8
3908.442	-120.8
3911.015	-128.8
3913.586	-123.8
3916.155	-127.8
3918.722	-126.8
3921.287	-121.8
3923.85	-123.8
3926.411	-127.8
3928.971	-123.8
3931.528	-128.8
3934.084	-118.8
3936.638	-121.8
3939.19	-127.8
3941.74	-126.8
3944.288	-129.8
3946.834	-124.8
3949.378	-125.8
3951.921	-127.8
3954.462	-129.8
3957	-124.8
3959.537	-124.8
3962.072	-129.8
3964.606	-124.8
3967.137	-124.8
3969.667	-127.8
3972.194	-124.8
3974.72	-122.8
3977.244	-121.8
3979.766	-125.8
3982.286	-126.8
3984.805	-129.8
3987.321	-122.8
3989.836	-117.8
3992.349	-126.8
3994.86	-122.8
3997.369	-122.8
3999.877	-124.8
4002.382	-121.8
4004.886	-126.8
4007.388	-123.8
4009.888	-130.8
4012.386	-126.8
4014.883	-124.8
4017.377	-123.8
4019.87	-126.8
4022.361	-127.8
4024.85	-125.8
4027.338	-125.8
4029.823	-123.8
4032.307	-120.8
4034.789	-126.8
4037.269	-127.8
4039.747	-122.8
4042.224	-120.8
4044.699	-128.8
4047.172	-121.8
4049.643	-125.8
4052.112	-125.8
4054.58	-124.8
4057.046	-125.8
4059.51	-126.8
4061.972	-123.8
4064.432	-120.8
4066.891	-125.8
4069.348	-122.8
4071.803	-124.8
4074.256	-123.8
4076.708	-116.8
4079.158	-125.8
4081.606	-118.8
4084.052	-121.8
4086.497	-125.8
4088.939	-121.8
4091.38	-122.8
4093.819	-124.8
4096.257	-130.8
4098.693	-126.8
4101.127	-128.8
4103.559	-126.8
4105.989	2.2
4108.418	5.2
4110.845	2.2
4113.27	4.2
4115.694	-4.8
4118.115	-1.8
4120.535	-127.8
4122.954	-126.8
4125.37	-121.8
4127.785	-127.8
4130.198	-123.8
4132.609	-124.8
4135.019	-132.8
4137.427	-134.8
4139.833	-132.8
4142.237	-130.8
