Data from 2018-2-8_conc=5_n=4_RamanShift_03.txt Node
Date: Mon Mar 12 16:01:28 IST 2018
User: aro
Spectrometer: QEPB0276
Trigger mode: 0
Integration Time (sec): 3.000000E1
Scans to average: 1
Electric dark correction enabled: true
Nonlinearity correction enabled: false
Boxcar width: 0
XAxis mode: Raman Shifts
Number of Pixels in Spectrum: 1044
>>>>>Begin Spectral Data<<<<<
160.701	19.2
166.742	50.2
172.777	115.2
178.805	357.2
184.826	944.2
190.841	2024.2
196.849	3386.2
202.85	4402.2
208.845	4828.2
214.833	4828.2
220.815	4768.2
226.789	4734.2
232.758	4786.2
238.719	4771.2
244.674	4734.2
250.623	4659.2
256.565	4626.2
262.5	4577.2
268.429	4521.2
274.351	4458.2
280.267	4423.2
286.176	4428.2
292.079	4412.2
297.975	4382.2
303.865	4388.2
309.748	4409.2
315.625	4368.2
321.495	4357.2
327.359	4344.2
333.217	4351.2
339.068	4361.2
344.912	4354.2
350.751	4393.2
356.583	4416.2
362.408	4418.2
368.227	4419.2
374.04	4436.2
379.847	4424.2
385.647	4451.2
391.44	4462.2
397.228	4468.2
403.009	4536.2
408.784	4563.2
414.553	4551.2
420.315	4548.2
426.071	4581.2
431.821	4601.2
437.565	4576.2
443.302	4540.2
449.033	4528.2
454.758	4532.2
460.477	4496.2
466.189	4472.2
471.896	4406.2
477.596	4405.2
483.29	4365.2
488.978	4370.2
494.66	4362.2
500.335	4323.2
506.005	4163.2
511.668	4008.2
517.325	3908.2
522.977	3773.2
528.622	3696.2
534.261	3660.2
539.894	3597.2
545.521	3545.2
551.141	3535.2
556.756	3512.2
562.365	3507.2
567.968	3479.2
573.565	3449.2
579.155	3441.2
584.74	3442.2
590.319	3411.2
595.892	3388.2
601.459	3377.2
607.02	3378.2
612.575	3353.2
618.124	3314.2
623.667	3278.2
629.204	3292.2
634.735	3215.2
640.261	3199.2
645.781	3191.2
651.294	3179.2
656.802	3174.2
662.304	3179.2
667.8	3153.2
673.29	3116.2
678.775	3118.2
684.254	3127.2
689.726	3120.2
695.193	3110.2
700.655	3086.2
706.11	3028.2
711.56	3031.2
717.004	3048.2
722.442	3017.2
727.874	3010.2
733.301	3006.2
738.722	2993.2
744.137	2992.2
749.547	2971.2
754.951	2969.2
760.349	2973.2
765.741	2971.2
771.128	2977.2
776.509	2994.2
781.885	3036.2
787.254	3037.2
792.618	3048.2
797.977	3039.2
803.33	3024.2
808.677	2981.2
814.019	2983.2
819.355	2945.2
824.686	2919.2
830.011	2915.2
835.33	2905.2
840.644	2914.2
845.952	2896.2
851.255	2871.2
856.552	2871.2
861.844	2844.2
867.13	2829.2
872.41	2807.2
877.686	2796.2
882.955	2772.2
888.219	2739.2
893.478	2723.2
898.731	2691.2
903.979	2669.2
909.221	2625.2
914.458	2605.2
919.69	2604.2
924.916	2594.2
930.136	2615.2
935.351	2616.2
940.561	2598.2
945.766	2619.2
950.965	2623.2
956.158	2578.2
961.347	2561.2
966.529	2523.2
971.707	2511.2
976.879	2475.2
982.046	2438.2
987.208	2430.2
992.364	2434.2
997.515	2441.2
1002.66	2462.2
1007.801	2481.2
1012.936	2512.2
1018.066	2516.2
1023.19	2508.2
1028.309	2517.2
1033.423	2537.2
1038.532	2503.2
1043.636	2481.2
1048.734	2454.2
1053.827	2430.2
1058.915	2379.2
1063.998	2377.2
1069.075	2367.2
1074.147	2395.2
1079.214	2377.2
1084.276	2380.2
1089.333	2385.2
1094.385	2412.2
1099.431	2411.2
1104.472	2413.2
1109.509	2366.2
1114.54	2354.2
1119.565	2340.2
1124.586	2298.2
1129.602	2265.2
1134.613	2254.2
1139.618	2237.2
1144.619	2232.2
1149.614	2228.2
1154.604	2219.2
1159.589	2231.2
1164.57	2251.2
1169.545	2250.2
1174.515	2255.2
1179.48	2241.2
1184.44	2233.2
1189.395	2206.2
1194.345	2208.2
1199.29	2172.2
1204.23	2180.2
1209.165	2179.2
1214.095	2177.2
1219.021	2203.2
1223.941	2222.2
1228.856	2211.2
1233.766	2226.2
1238.672	2228.2
1243.572	2215.2
1248.467	2210.2
1253.358	2176.2
1258.244	2144.2
1263.124	2130.2
1268	2083.2
1272.871	2067.2
1277.737	2061.2
1282.599	2045.2
1287.455	2045.2
1292.306	2038.2
1297.153	2066.2
1301.995	2058.2
1306.832	2076.2
1311.664	2095.2
1316.491	2085.2
1321.314	2085.2
1326.132	2074.2
1330.945	2059.2
1335.753	2008.2
1340.556	1993.2
1345.354	1935.2
1350.148	1920.2
1354.937	1900.2
1359.722	1853.2
1364.501	1843.2
1369.276	1808.2
1374.046	1789.2
1378.811	1754.2
1383.572	1718.2
1388.327	1738.2
1393.079	1743.2
1397.825	1736.2
1402.567	1744.2
1407.304	1741.2
1412.036	1762.2
1416.764	1750.2
1421.487	1756.2
1426.205	1754.2
1430.919	1769.2
1435.628	1756.2
1440.333	1791.2
1445.032	1804.2
1449.727	1806.2
1454.418	1824.2
1459.104	1825.2
1463.785	1799.2
1468.462	1785.2
1473.134	1738.2
1477.802	1687.2
1482.465	1676.2
1487.123	1632.2
1491.777	1595.2
1496.426	1608.2
1501.071	1574.2
1505.711	1570.2
1510.347	1561.2
1514.978	1570.2
1519.604	1561.2
1524.226	1574.2
1528.844	1549.2
1533.457	1539.2
1538.065	1551.2
1542.669	1523.2
1547.269	1528.2
1551.864	1533.2
1556.454	1536.2
1561.041	1566.2
1565.622	1575.2
1570.199	1575.2
1574.772	1589.2
1579.34	1595.2
1583.904	1606.2
1588.464	1635.2
1593.019	1632.2
1597.569	1628.2
1602.115	1642.2
1606.657	1639.2
1611.195	1635.2
1615.728	1605.2
1620.256	1617.2
1624.78	1608.2
1629.3	1617.2
1633.816	1632.2
1638.327	1622.2
1642.834	1638.2
1647.336	1646.2
1651.834	1662.2
1656.328	1664.2
1660.817	1626.2
1665.302	1630.2
1669.783	1597.2
1674.259	1571.2
1678.732	1534.2
1683.199	1490.2
1687.663	1460.2
1692.122	1417.2
1696.577	1338.2
1701.028	1298.2
1705.474	1253.2
1709.917	1202.2
1714.355	1193.2
1718.788	1182.2
1723.218	1171.2
1727.643	1189.2
1732.064	1163.2
1736.481	1168.2
1740.893	1136.2
1745.301	1105.2
1749.705	1098.2
1754.105	1068.2
1758.501	1073.2
1762.893	1031.2
1767.28	1036.2
1771.663	1024.2
1776.042	1009.2
1780.417	999.2
1784.787	988.2
1789.154	990.2
1793.516	982.2
1797.874	970.2
1802.228	957.2
1806.578	932.2
1810.924	913.2
1815.266	902.2
1819.603	922.2
1823.937	914.2
1828.266	918.2
1832.591	902.2
1836.913	904.2
1841.23	920.2
1845.543	922.2
1849.852	924.2
1854.156	907.2
1858.457	910.2
1862.754	931.2
1867.047	914.2
1871.335	914.2
1875.62	911.2
1879.9	919.2
1884.177	911.2
1888.449	901.2
1892.718	894.2
1896.982	876.2
1901.243	862.2
1905.499	862.2
1909.752	841.2
1914	840.2
1918.245	819.2
1922.485	813.2
1926.722	801.2
1930.954	804.2
1935.183	800.2
1939.408	793.2
1943.628	797.2
1947.845	782.2
1952.058	771.2
1956.267	782.2
1960.472	763.2
1964.673	757.2
1968.87	748.2
1973.063	746.2
1977.252	729.2
1981.438	743.2
1985.619	729.2
1989.797	747.2
1993.971	750.2
1998.14	746.2
2002.306	738.2
2006.469	744.2
2010.627	745.2
2014.781	755.2
2018.932	744.2
2023.078	751.2
2027.221	744.2
2031.36	733.2
2035.495	723.2
2039.627	712.2
2043.754	697.2
2047.878	693.2
2051.998	694.2
2056.114	689.2
2060.226	693.2
2064.334	686.2
2068.439	687.2
2072.54	683.2
2076.637	684.2
2080.73	676.2
2084.82	680.2
2088.906	669.2
2092.988	658.2
2097.066	654.2
2101.14	657.2
2105.211	635.2
2109.278	632.2
2113.342	626.2
2117.401	626.2
2121.457	617.2
2125.509	605.2
2129.558	597.2
2133.602	613.2
2137.643	617.2
2141.681	600.2
2145.714	600.2
2149.744	605.2
2153.77	603.2
2157.793	610.2
2161.812	590.2
2165.827	584.2
2169.838	579.2
2173.846	573.2
2177.851	559.2
2181.851	559.2
2185.848	539.2
2189.841	561.2
2193.831	538.2
2197.817	543.2
2201.799	538.2
2205.778	524.2
2209.753	527.2
2213.725	536.2
2217.693	530.2
2221.657	523.2
2225.618	525.2
2229.575	530.2
2233.529	530.2
2237.479	520.2
2241.425	502.2
2245.368	499.2
2249.307	486.2
2253.243	487.2
2257.175	487.2
2261.104	469.2
2265.029	460.2
2268.95	457.2
2272.868	460.2
2276.783	443.2
2280.694	445.2
2284.601	441.2
2288.505	441.2
2292.405	440.2
2296.302	425.2
2300.195	421.2
2304.085	407.2
2307.971	409.2
2311.854	407.2
2315.734	400.2
2319.609	389.2
2323.482	387.2
2327.351	395.2
2331.216	396.2
2335.078	424.2
2338.937	389.2
2342.792	383.2
2346.643	379.2
2350.492	373.2
2354.336	380.2
2358.178	378.2
2362.015	385.2
2365.85	381.2
2369.681	374.2
2373.508	384.2
2377.333	384.2
2381.153	376.2
2384.971	385.2
2388.785	385.2
2392.595	366.2
2396.402	380.2
2400.206	368.2
2404.007	371.2
2407.804	365.2
2411.597	365.2
2415.388	357.2
2419.174	361.2
2422.958	354.2
2426.738	364.2
2430.515	351.2
2434.289	359.2
2438.059	347.2
2441.825	339.2
2445.589	333.2
2449.349	334.2
2453.106	330.2
2456.859	338.2
2460.61	329.2
2464.356	314.2
2468.1	320.2
2471.84	310.2
2475.577	324.2
2479.311	309.2
2483.041	303.2
2486.768	307.2
2490.492	303.2
2494.213	304.2
2497.93	301.2
2501.644	294.2
2505.355	282.2
2509.062	287.2
2512.766	293.2
2516.467	280.2
2520.165	284.2
2523.859	282.2
2527.551	274.2
2531.239	259.2
2534.923	249.2
2538.605	262.2
2542.283	258.2
2545.958	263.2
2549.63	264.2
2553.299	246.2
2556.964	257.2
2560.626	253.2
2564.285	244.2
2567.941	240.2
2571.594	242.2
2575.243	229.2
2578.89	237.2
2582.533	225.2
2586.173	228.2
2589.809	224.2
2593.443	232.2
2597.073	224.2
2600.701	207.2
2604.325	213.2
2607.946	221.2
2611.564	206.2
2615.178	207.2
2618.79	205.2
2622.398	212.2
2626.004	207.2
2629.606	204.2
2633.205	201.2
2636.801	203.2
2640.394	206.2
2643.983	197.2
2647.57	197.2
2651.153	193.2
2654.734	193.2
2658.311	181.2
2661.885	188.2
2665.456	181.2
2669.025	183.2
2672.589	191.2
2676.151	185.2
2679.71	165.2
2683.266	164.2
2686.819	166.2
2690.368	169.2
2693.915	160.2
2697.458	161.2
2700.999	172.2
2704.536	159.2
2708.071	149.2
2711.602	153.2
2715.13	146.2
2718.656	140.2
2722.178	146.2
2725.697	144.2
2729.214	133.2
2732.727	140.2
2736.237	139.2
2739.744	136.2
2743.249	132.2
2746.75	134.2
2750.248	131.2
2753.743	123.2
2757.236	117.2
2760.725	125.2
2764.211	118.2
2767.695	119.2
2771.175	106.2
2774.652	101.2
2778.127	118.2
2781.598	107.2
2785.067	114.2
2788.532	112.2
2791.995	112.2
2795.455	117.2
2798.911	112.2
2802.365	117.2
2805.816	113.2
2809.264	122.2
2812.709	125.2
2816.151	118.2
2819.59	115.2
2823.026	112.2
2826.46	108.2
2829.89	114.2
2833.318	112.2
2836.742	119.2
2840.164	108.2
2843.583	124.2
2846.999	117.2
2850.412	117.2
2853.822	116.2
2857.229	124.2
2860.634	123.2
2864.035	128.2
2867.434	134.2
2870.83	137.2
2874.223	150.2
2877.613	144.2
2881	155.2
2884.385	152.2
2887.766	136.2
2891.145	143.2
2894.521	148.2
2897.894	152.2
2901.264	149.2
2904.631	152.2
2907.996	147.2
2911.358	154.2
2914.717	150.2
2918.073	164.2
2921.426	161.2
2924.777	167.2
2928.124	171.2
2931.469	171.2
2934.811	175.2
2938.15	182.2
2941.487	187.2
2944.821	184.2
2948.152	195.2
2951.48	189.2
2954.805	190.2
2958.128	180.2
2961.447	177.2
2964.765	177.2
2968.079	175.2
2971.39	184.2
2974.699	184.2
2978.005	180.2
2981.308	185.2
2984.609	185.2
2987.907	180.2
2991.202	182.2
2994.494	187.2
2997.784	192.2
3001.07	199.2
3004.355	201.2
3007.636	202.2
3010.915	199.2
3014.191	200.2
3017.464	203.2
3020.734	208.2
3024.002	207.2
3027.267	212.2
3030.53	229.2
3033.789	231.2
3037.046	231.2
3040.301	223.2
3043.552	241.2
3046.801	254.2
3050.048	259.2
3053.291	272.2
3056.532	274.2
3059.771	293.2
3063.006	290.2
3066.239	308.2
3069.469	314.2
3072.697	315.2
3075.922	332.2
3079.144	346.2
3082.364	350.2
3085.581	362.2
3088.795	369.2
3092.007	364.2
3095.216	373.2
3098.423	383.2
3101.627	392.2
3104.828	405.2
3108.026	410.2
3111.222	425.2
3114.416	427.2
3117.607	438.2
3120.795	439.2
3123.98	456.2
3127.163	455.2
3130.344	496.2
3133.521	492.2
3136.696	505.2
3139.869	507.2
3143.039	516.2
3146.206	520.2
3149.371	534.2
3152.533	531.2
3155.693	543.2
3158.85	557.2
3162.005	557.2
3165.157	552.2
3168.306	547.2
3171.453	550.2
3174.597	550.2
3177.739	564.2
3180.878	560.2
3184.014	578.2
3187.149	562.2
3190.28	571.2
3193.409	574.2
3196.536	561.2
3199.659	571.2
3202.781	576.2
3205.9	585.2
3209.016	594.2
3212.13	582.2
3215.241	577.2
3218.35	566.2
3221.456	549.2
3224.56	559.2
3227.661	544.2
3230.76	551.2
3233.856	540.2
3236.95	526.2
3240.041	518.2
3243.13	501.2
3246.216	496.2
3249.3	492.2
3252.382	499.2
3255.46	494.2
3258.537	479.2
3261.611	483.2
3264.682	470.2
3267.751	466.2
3270.818	453.2
3273.882	453.2
3276.943	459.2
3280.002	457.2
3283.059	457.2
3286.113	453.2
3289.165	444.2
3292.214	439.2
3295.261	435.2
3298.306	429.2
3301.348	415.2
3304.387	426.2
3307.425	422.2
3310.459	402.2
3313.492	401.2
3316.521	393.2
3319.549	399.2
3322.574	399.2
3325.597	401.2
3328.617	393.2
3331.635	396.2
3334.65	378.2
3337.663	373.2
3340.674	376.2
3343.682	382.2
3346.688	380.2
3349.691	391.2
3352.692	379.2
3355.691	381.2
3358.687	372.2
3361.681	369.2
3364.673	366.2
3367.662	354.2
3370.649	344.2
3373.633	341.2
3376.615	342.2
3379.595	345.2
3382.572	332.2
3385.547	335.2
3388.52	317.2
3391.49	325.2
3394.458	311.2
3397.424	307.2
3400.387	304.2
3403.348	298.2
3406.307	281.2
3409.263	286.2
3412.217	275.2
3415.168	285.2
3418.118	282.2
3421.065	259.2
3424.009	267.2
3426.951	267.2
3429.891	256.2
3432.829	247.2
3435.764	243.2
3438.697	244.2
3441.628	232.2
3444.557	223.2
3447.483	207.2
3450.407	197.2
3453.328	193.2
3456.247	181.2
3459.164	176.2
3462.079	164.2
3464.991	166.2
3467.902	154.2
3470.809	156.2
3473.715	138.2
3476.618	126.2
3479.519	132.2
3482.418	129.2
3485.315	112.2
3488.209	107.2
3491.101	100.2
3493.99	111.2
3496.878	87.2
3499.763	84.2
3502.646	84.2
3505.527	77.2
3508.405	78.2
3511.281	64.2
3514.155	57.2
3517.027	43.2
3519.897	46.2
3522.764	38.2
3525.629	33.2
3528.492	33.2
3531.352	28.2
3534.211	13.2
3537.067	9.2
3539.921	11.2
3542.773	4.2
3545.622	-3.8
3548.469	-2.8
3551.315	-5.8
3554.157	-14.8
3556.998	-21.8
3559.837	-25.8
3562.673	-25.8
3565.507	-23.8
3568.339	-35.8
3571.169	-38.8
3573.996	-36.8
3576.822	-35.8
3579.645	-43.8
3582.466	-44.8
3585.285	-47.8
3588.101	-41.8
3590.916	-58.8
3593.728	-62.8
3596.538	-61.8
3599.346	-58.8
3602.152	-68.8
3604.956	-62.8
3607.757	-63.8
3610.556	-70.8
3613.354	-66.8
3616.149	-76.8
3618.942	-79.8
3621.732	-78.8
3624.521	-75.8
3627.307	-78.8
3630.092	-75.8
3632.874	-76.8
3635.654	-91.8
3638.432	-83.8
3641.208	-82.8
3643.982	-91.8
3646.753	-93.8
3649.523	-91.8
3652.29	-86.8
3655.055	-89.8
3657.818	-88.8
3660.579	-94.8
3663.338	-96.8
3666.095	-101.8
3668.849	-99.8
3671.602	-94.8
3674.352	-100.8
3677.101	-103.8
3679.847	-107.8
3682.591	-109.8
3685.333	-108.8
3688.073	-103.8
3690.811	-108.8
3693.547	-111.8
3696.281	-113.8
3699.013	-108.8
3701.742	-113.8
3704.47	-115.8
3707.195	-110.8
3709.919	-113.8
3712.64	-116.8
3715.359	-118.8
3718.076	-113.8
3720.792	-117.8
3723.505	-121.8
3726.216	-121.8
3728.925	-122.8
3731.632	-116.8
3734.336	-124.8
3737.039	-117.8
3739.74	-127.8
3742.439	-124.8
3745.136	-117.8
3747.83	-127.8
3750.523	-125.8
3753.213	-117.8
3755.902	-120.8
3758.589	-129.8
3761.273	-120.8
3763.956	-121.8
3766.636	-126.8
3769.315	-116.8
3771.991	-119.8
3774.665	-127.8
3777.338	-117.8
3780.008	-122.8
3782.677	-126.8
3785.343	-126.8
3788.007	-125.8
3790.67	-124.8
3793.33	-121.8
3795.989	-126.8
3798.645	-123.8
3801.299	-127.8
3803.952	-131.8
3806.602	-125.8
3809.251	-129.8
3811.897	-128.8
3814.542	-126.8
3817.184	-119.8
3819.825	-123.8
3822.463	-128.8
3825.1	-130.8
3827.735	-123.8
3830.367	-127.8
3832.998	-125.8
3835.627	-121.8
3838.253	-119.8
3840.878	-124.8
3843.501	-126.8
3846.122	-129.8
3848.741	-130.8
3851.358	-124.8
3853.973	-129.8
3856.586	-122.8
3859.197	-130.8
3861.806	-121.8
3864.414	-124.8
3867.019	-123.8
3869.622	-127.8
3872.224	-115.8
3874.823	-107.8
3877.421	-94.8
3880.016	-64.8
3882.61	-43.8
3885.202	-52.8
3887.792	-67.8
3890.38	-92.8
3892.966	-112.8
3895.55	-121.8
3898.132	-124.8
3900.713	-126.8
3903.291	-130.8
3905.868	-135.8
3908.442	-127.8
3911.015	-132.8
3913.586	-130.8
3916.155	-131.8
3918.722	-131.8
3921.287	-127.8
3923.85	-129.8
3926.411	-132.8
3928.971	-127.8
3931.528	-136.8
3934.084	-126.8
3936.638	-122.8
3939.19	-133.8
3941.74	-129.8
3944.288	-132.8
3946.834	-123.8
3949.378	-132.8
3951.921	-130.8
3954.462	-136.8
3957	-130.8
3959.537	-126.8
3962.072	-126.8
3964.606	-123.8
3967.137	-125.8
3969.667	-132.8
3972.194	-134.8
3974.72	-129.8
3977.244	-131.8
3979.766	-130.8
3982.286	-127.8
3984.805	-130.8
3987.321	-129.8
3989.836	-125.8
3992.349	-132.8
3994.86	-132.8
3997.369	-134.8
3999.877	-129.8
4002.382	-121.8
4004.886	-129.8
4007.388	-127.8
4009.888	-128.8
4012.386	-131.8
4014.883	-132.8
4017.377	-131.8
4019.87	-123.8
4022.361	-130.8
4024.85	-132.8
4027.338	-125.8
4029.823	-124.8
4032.307	-126.8
4034.789	-135.8
4037.269	-129.8
4039.747	-125.8
4042.224	-125.8
4044.699	-128.8
4047.172	-128.8
4049.643	-123.8
4052.112	-127.8
4054.58	-134.8
4057.046	-131.8
4059.51	-129.8
4061.972	-127.8
4064.432	-124.8
4066.891	-126.8
4069.348	-125.8
4071.803	-127.8
4074.256	-129.8
4076.708	-126.8
4079.158	-126.8
4081.606	-118.8
4084.052	-130.8
4086.497	-125.8
4088.939	-119.8
4091.38	-131.8
4093.819	-125.8
4096.257	-138.8
4098.693	-134.8
4101.127	-133.8
4103.559	-131.8
4105.989	18.2
4108.418	12.2
4110.845	13.2
4113.27	0.2
4115.694	3.2
4118.115	0.2
4120.535	-130.8
4122.954	-132.8
4125.37	-126.8
4127.785	-127.8
4130.198	-126.8
4132.609	-124.8
4135.019	-134.8
4137.427	-137.8
4139.833	-133.8
4142.237	-135.8
