Data from 2018-2-8_conc=3_n=9_RamanShift_04.txt Node
Date: Mon Mar 12 14:57:28 IST 2018
User: aro
Spectrometer: QEPB0276
Trigger mode: 0
Integration Time (sec): 3.000000E1
Scans to average: 1
Electric dark correction enabled: true
Nonlinearity correction enabled: false
Boxcar width: 0
XAxis mode: Raman Shifts
Number of Pixels in Spectrum: 1044
>>>>>Begin Spectral Data<<<<<
160.701	16.6
166.742	46.6
172.777	135.6
178.805	446.6
184.826	1205.6
190.841	2605.6
196.849	4380.6
202.85	5783.6
208.845	6333.6
214.833	6318.6
220.815	6183.6
226.789	6175.6
232.758	6182.6
238.719	6168.6
244.674	6122.6
250.623	6049.6
256.565	5949.6
262.5	5867.6
268.429	5788.6
274.351	5721.6
280.267	5683.6
286.176	5612.6
292.079	5640.6
297.975	5560.6
303.865	5553.6
309.748	5521.6
315.625	5512.6
321.495	5514.6
327.359	5487.6
333.217	5501.6
339.068	5501.6
344.912	5494.6
350.751	5504.6
356.583	5513.6
362.408	5487.6
368.227	5514.6
374.04	5503.6
379.847	5539.6
385.647	5537.6
391.44	5586.6
397.228	5613.6
403.009	5620.6
408.784	5707.6
414.553	5680.6
420.315	5711.6
426.071	5724.6
431.821	5666.6
437.565	5676.6
443.302	5661.6
449.033	5659.6
454.758	5614.6
460.477	5608.6
466.189	5580.6
471.896	5561.6
477.596	5539.6
483.29	5526.6
488.978	5493.6
494.66	5488.6
500.335	5396.6
506.005	5300.6
511.668	5129.6
517.325	5004.6
522.977	4900.6
528.622	4830.6
534.261	4764.6
539.894	4733.6
545.521	4689.6
551.141	4667.6
556.756	4601.6
562.365	4578.6
567.968	4554.6
573.565	4540.6
579.155	4523.6
584.74	4478.6
590.319	4456.6
595.892	4473.6
601.459	4442.6
607.02	4449.6
612.575	4417.6
618.124	4383.6
623.667	4323.6
629.204	4322.6
634.735	4254.6
640.261	4242.6
645.781	4224.6
651.294	4227.6
656.802	4208.6
662.304	4182.6
667.8	4167.6
673.29	4180.6
678.775	4149.6
684.254	4162.6
689.726	4114.6
695.193	4103.6
700.655	4104.6
706.11	4072.6
711.56	4036.6
717.004	3994.6
722.442	3992.6
727.874	3994.6
733.301	3945.6
738.722	3938.6
744.137	3914.6
749.547	3939.6
754.951	3929.6
760.349	3950.6
765.741	3918.6
771.128	3958.6
776.509	3960.6
781.885	3967.6
787.254	3979.6
792.618	4007.6
797.977	3952.6
803.33	3947.6
808.677	3929.6
814.019	3889.6
819.355	3850.6
824.686	3802.6
830.011	3815.6
835.33	3805.6
840.644	3792.6
845.952	3801.6
851.255	3771.6
856.552	3787.6
861.844	3746.6
867.13	3731.6
872.41	3729.6
877.686	3704.6
882.955	3656.6
888.219	3640.6
893.478	3601.6
898.731	3552.6
903.979	3508.6
909.221	3484.6
914.458	3465.6
919.69	3437.6
924.916	3471.6
930.136	3470.6
935.351	3481.6
940.561	3501.6
945.766	3473.6
950.965	3454.6
956.158	3412.6
961.347	3400.6
966.529	3345.6
971.707	3294.6
976.879	3245.6
982.046	3216.6
987.208	3223.6
992.364	3226.6
997.515	3214.6
1002.66	3256.6
1007.801	3297.6
1012.936	3301.6
1018.066	3306.6
1023.19	3292.6
1028.309	3312.6
1033.423	3302.6
1038.532	3302.6
1043.636	3280.6
1048.734	3224.6
1053.827	3205.6
1058.915	3160.6
1063.998	3146.6
1069.075	3132.6
1074.147	3124.6
1079.214	3122.6
1084.276	3137.6
1089.333	3157.6
1094.385	3180.6
1099.431	3189.6
1104.472	3190.6
1109.509	3149.6
1114.54	3123.6
1119.565	3065.6
1124.586	3027.6
1129.602	3000.6
1134.613	2991.6
1139.618	2960.6
1144.619	2936.6
1149.614	2942.6
1154.604	2938.6
1159.589	2947.6
1164.57	2958.6
1169.545	2958.6
1174.515	2978.6
1179.48	2971.6
1184.44	2923.6
1189.395	2911.6
1194.345	2885.6
1199.29	2873.6
1204.23	2853.6
1209.165	2861.6
1214.095	2900.6
1219.021	2892.6
1223.941	2913.6
1228.856	2931.6
1233.766	2935.6
1238.672	2924.6
1243.572	2927.6
1248.467	2941.6
1253.358	2895.6
1258.244	2835.6
1263.124	2795.6
1268	2748.6
1272.871	2728.6
1277.737	2672.6
1282.599	2674.6
1287.455	2671.6
1292.306	2695.6
1297.153	2698.6
1301.995	2727.6
1306.832	2726.6
1311.664	2739.6
1316.491	2742.6
1321.314	2734.6
1326.132	2739.6
1330.945	2658.6
1335.753	2647.6
1340.556	2637.6
1345.354	2574.6
1350.148	2546.6
1354.937	2495.6
1359.722	2427.6
1364.501	2408.6
1369.276	2382.6
1374.046	2336.6
1378.811	2294.6
1383.572	2291.6
1388.327	2285.6
1393.079	2281.6
1397.825	2302.6
1402.567	2287.6
1407.304	2282.6
1412.036	2291.6
1416.764	2293.6
1421.487	2316.6
1426.205	2297.6
1430.919	2306.6
1435.628	2306.6
1440.333	2346.6
1445.032	2349.6
1449.727	2397.6
1454.418	2416.6
1459.104	2375.6
1463.785	2355.6
1468.462	2305.6
1473.134	2274.6
1477.802	2222.6
1482.465	2171.6
1487.123	2138.6
1491.777	2095.6
1496.426	2086.6
1501.071	2068.6
1505.711	2052.6
1510.347	2046.6
1514.978	2050.6
1519.604	2044.6
1524.226	2048.6
1528.844	2027.6
1533.457	2002.6
1538.065	2005.6
1542.669	2010.6
1547.269	1994.6
1551.864	1995.6
1556.454	2026.6
1561.041	2032.6
1565.622	2045.6
1570.199	2062.6
1574.772	2070.6
1579.34	2085.6
1583.904	2129.6
1588.464	2160.6
1593.019	2159.6
1597.569	2126.6
1602.115	2147.6
1606.657	2136.6
1611.195	2127.6
1615.728	2137.6
1620.256	2120.6
1624.78	2125.6
1629.3	2132.6
1633.816	2151.6
1638.327	2154.6
1642.834	2154.6
1647.336	2152.6
1651.834	2169.6
1656.328	2165.6
1660.817	2155.6
1665.302	2145.6
1669.783	2110.6
1674.259	2065.6
1678.732	2003.6
1683.199	1929.6
1687.663	1902.6
1692.122	1825.6
1696.577	1773.6
1701.028	1673.6
1705.474	1614.6
1709.917	1564.6
1714.355	1534.6
1718.788	1529.6
1723.218	1522.6
1727.643	1520.6
1732.064	1520.6
1736.481	1511.6
1740.893	1467.6
1745.301	1438.6
1749.705	1416.6
1754.105	1376.6
1758.501	1353.6
1762.893	1353.6
1767.28	1335.6
1771.663	1312.6
1776.042	1292.6
1780.417	1300.6
1784.787	1274.6
1789.154	1259.6
1793.516	1266.6
1797.874	1234.6
1802.228	1206.6
1806.578	1192.6
1810.924	1186.6
1815.266	1168.6
1819.603	1165.6
1823.937	1170.6
1828.266	1170.6
1832.591	1177.6
1836.913	1161.6
1841.23	1175.6
1845.543	1166.6
1849.852	1174.6
1854.156	1185.6
1858.457	1174.6
1862.754	1178.6
1867.047	1181.6
1871.335	1187.6
1875.62	1177.6
1879.9	1164.6
1884.177	1163.6
1888.449	1148.6
1892.718	1135.6
1896.982	1118.6
1901.243	1110.6
1905.499	1091.6
1909.752	1066.6
1914	1047.6
1918.245	1048.6
1922.485	1048.6
1926.722	1030.6
1930.954	1022.6
1935.183	1014.6
1939.408	993.6
1943.628	1017.6
1947.845	991.6
1952.058	992.6
1956.267	981.6
1960.472	977.6
1964.673	964.6
1968.87	952.6
1973.063	953.6
1977.252	929.6
1981.438	949.6
1985.619	941.6
1989.797	948.6
1993.971	944.6
1998.14	955.6
2002.306	957.6
2006.469	944.6
2010.627	960.6
2014.781	968.6
2018.932	958.6
2023.078	951.6
2027.221	958.6
2031.36	938.6
2035.495	926.6
2039.627	906.6
2043.754	900.6
2047.878	887.6
2051.998	886.6
2056.114	888.6
2060.226	880.6
2064.334	882.6
2068.439	878.6
2072.54	878.6
2076.637	877.6
2080.73	865.6
2084.82	865.6
2088.906	852.6
2092.988	844.6
2097.066	852.6
2101.14	831.6
2105.211	818.6
2109.278	820.6
2113.342	809.6
2117.401	794.6
2121.457	784.6
2125.509	771.6
2129.558	773.6
2133.602	775.6
2137.643	772.6
2141.681	774.6
2145.714	778.6
2149.744	773.6
2153.77	770.6
2157.793	771.6
2161.812	755.6
2165.827	755.6
2169.838	736.6
2173.846	727.6
2177.851	721.6
2181.851	700.6
2185.848	701.6
2189.841	703.6
2193.831	703.6
2197.817	691.6
2201.799	682.6
2205.778	672.6
2209.753	671.6
2213.725	671.6
2217.693	678.6
2221.657	684.6
2225.618	680.6
2229.575	662.6
2233.529	667.6
2237.479	670.6
2241.425	659.6
2245.368	634.6
2249.307	641.6
2253.243	627.6
2257.175	610.6
2261.104	609.6
2265.029	592.6
2268.95	596.6
2272.868	598.6
2276.783	588.6
2280.694	578.6
2284.601	577.6
2288.505	557.6
2292.405	554.6
2296.302	550.6
2300.195	549.6
2304.085	540.6
2307.971	527.6
2311.854	531.6
2315.734	507.6
2319.609	498.6
2323.482	502.6
2327.351	509.6
2331.216	514.6
2335.078	518.6
2338.937	500.6
2342.792	489.6
2346.643	478.6
2350.492	478.6
2354.336	485.6
2358.178	475.6
2362.015	487.6
2365.85	484.6
2369.681	480.6
2373.508	488.6
2377.333	481.6
2381.153	486.6
2384.971	483.6
2388.785	485.6
2392.595	458.6
2396.402	469.6
2400.206	457.6
2404.007	459.6
2407.804	460.6
2411.597	462.6
2415.388	459.6
2419.174	449.6
2422.958	446.6
2426.738	451.6
2430.515	439.6
2434.289	454.6
2438.059	440.6
2441.825	436.6
2445.589	430.6
2449.349	425.6
2453.106	427.6
2456.859	423.6
2460.61	401.6
2464.356	409.6
2468.1	399.6
2471.84	395.6
2475.577	394.6
2479.311	380.6
2483.041	380.6
2486.768	378.6
2490.492	385.6
2494.213	384.6
2497.93	389.6
2501.644	376.6
2505.355	365.6
2509.062	374.6
2512.766	370.6
2516.467	363.6
2520.165	355.6
2523.859	351.6
2527.551	342.6
2531.239	342.6
2534.923	329.6
2538.605	331.6
2542.283	323.6
2545.958	324.6
2549.63	324.6
2553.299	318.6
2556.964	313.6
2560.626	312.6
2564.285	305.6
2567.941	308.6
2571.594	301.6
2575.243	306.6
2578.89	290.6
2582.533	294.6
2586.173	282.6
2589.809	279.6
2593.443	280.6
2597.073	282.6
2600.701	264.6
2604.325	257.6
2607.946	260.6
2611.564	264.6
2615.178	262.6
2618.79	270.6
2622.398	268.6
2626.004	274.6
2629.606	253.6
2633.205	250.6
2636.801	255.6
2640.394	243.6
2643.983	248.6
2647.57	240.6
2651.153	230.6
2654.734	240.6
2658.311	238.6
2661.885	231.6
2665.456	231.6
2669.025	239.6
2672.589	229.6
2676.151	233.6
2679.71	234.6
2683.266	222.6
2686.819	227.6
2690.368	215.6
2693.915	213.6
2697.458	199.6
2700.999	203.6
2704.536	197.6
2708.071	191.6
2711.602	185.6
2715.13	190.6
2718.656	186.6
2722.178	180.6
2725.697	174.6
2729.214	173.6
2732.727	178.6
2736.237	185.6
2739.744	166.6
2743.249	158.6
2746.75	166.6
2750.248	150.6
2753.743	161.6
2757.236	158.6
2760.725	155.6
2764.211	149.6
2767.695	137.6
2771.175	137.6
2774.652	140.6
2778.127	130.6
2781.598	131.6
2785.067	145.6
2788.532	139.6
2791.995	144.6
2795.455	141.6
2798.911	146.6
2802.365	147.6
2805.816	149.6
2809.264	138.6
2812.709	150.6
2816.151	147.6
2819.59	150.6
2823.026	147.6
2826.46	145.6
2829.89	146.6
2833.318	143.6
2836.742	148.6
2840.164	145.6
2843.583	153.6
2846.999	158.6
2850.412	150.6
2853.822	149.6
2857.229	141.6
2860.634	164.6
2864.035	154.6
2867.434	169.6
2870.83	175.6
2874.223	191.6
2877.613	182.6
2881	190.6
2884.385	204.6
2887.766	186.6
2891.145	191.6
2894.521	188.6
2897.894	201.6
2901.264	206.6
2904.631	208.6
2907.996	198.6
2911.358	204.6
2914.717	206.6
2918.073	208.6
2921.426	219.6
2924.777	227.6
2928.124	239.6
2931.469	229.6
2934.811	245.6
2938.15	248.6
2941.487	253.6
2944.821	259.6
2948.152	243.6
2951.48	254.6
2954.805	267.6
2958.128	256.6
2961.447	247.6
2964.765	256.6
2968.079	251.6
2971.39	248.6
2974.699	253.6
2978.005	252.6
2981.308	254.6
2984.609	264.6
2987.907	254.6
2991.202	253.6
2994.494	253.6
2997.784	260.6
3001.07	268.6
3004.355	280.6
3007.636	287.6
3010.915	275.6
3014.191	284.6
3017.464	287.6
3020.734	283.6
3024.002	286.6
3027.267	297.6
3030.53	309.6
3033.789	319.6
3037.046	325.6
3040.301	321.6
3043.552	339.6
3046.801	343.6
3050.048	359.6
3053.291	377.6
3056.532	394.6
3059.771	398.6
3063.006	412.6
3066.239	414.6
3069.469	427.6
3072.697	448.6
3075.922	465.6
3079.144	474.6
3082.364	488.6
3085.581	489.6
3088.795	496.6
3092.007	501.6
3095.216	522.6
3098.423	542.6
3101.627	543.6
3104.828	564.6
3108.026	566.6
3111.222	577.6
3114.416	586.6
3117.607	601.6
3120.795	612.6
3123.98	624.6
3127.163	637.6
3130.344	662.6
3133.521	683.6
3136.696	692.6
3139.869	703.6
3143.039	707.6
3146.206	711.6
3149.371	720.6
3152.533	744.6
3155.693	760.6
3158.85	752.6
3162.005	770.6
3165.157	769.6
3168.306	762.6
3171.453	767.6
3174.597	773.6
3177.739	790.6
3180.878	789.6
3184.014	808.6
3187.149	779.6
3190.28	796.6
3193.409	788.6
3196.536	792.6
3199.659	809.6
3202.781	804.6
3205.9	817.6
3209.016	811.6
3212.13	811.6
3215.241	807.6
3218.35	807.6
3221.456	785.6
3224.56	783.6
3227.661	767.6
3230.76	764.6
3233.856	755.6
3236.95	732.6
3240.041	734.6
3243.13	724.6
3246.216	715.6
3249.3	687.6
3252.382	706.6
3255.46	692.6
3258.537	695.6
3261.611	673.6
3264.682	669.6
3267.751	662.6
3270.818	649.6
3273.882	661.6
3276.943	644.6
3280.002	643.6
3283.059	644.6
3286.113	641.6
3289.165	642.6
3292.214	631.6
3295.261	614.6
3298.306	607.6
3301.348	602.6
3304.387	604.6
3307.425	593.6
3310.459	586.6
3313.492	577.6
3316.521	569.6
3319.549	560.6
3322.574	566.6
3325.597	566.6
3328.617	554.6
3331.635	548.6
3334.65	560.6
3337.663	549.6
3340.674	558.6
3343.682	534.6
3346.688	545.6
3349.691	550.6
3352.692	546.6
3355.691	545.6
3358.687	537.6
3361.681	540.6
3364.673	528.6
3367.662	530.6
3370.649	512.6
3373.633	496.6
3376.615	489.6
3379.595	483.6
3382.572	477.6
3385.547	474.6
3388.52	463.6
3391.49	459.6
3394.458	454.6
3397.424	445.6
3400.387	427.6
3403.348	436.6
3406.307	412.6
3409.263	427.6
3412.217	418.6
3415.168	424.6
3418.118	398.6
3421.065	394.6
3424.009	402.6
3426.951	388.6
3429.891	374.6
3432.829	367.6
3435.764	354.6
3438.697	341.6
3441.628	333.6
3444.557	324.6
3447.483	310.6
3450.407	304.6
3453.328	280.6
3456.247	277.6
3459.164	258.6
3462.079	256.6
3464.991	244.6
3467.902	245.6
3470.809	233.6
3473.715	216.6
3476.618	211.6
3479.519	197.6
3482.418	191.6
3485.315	181.6
3488.209	167.6
3491.101	165.6
3493.99	167.6
3496.878	156.6
3499.763	141.6
3502.646	124.6
3505.527	131.6
3508.405	120.6
3511.281	112.6
3514.155	107.6
3517.027	99.6
3519.897	89.6
3522.764	76.6
3525.629	66.6
3528.492	55.6
3531.352	60.6
3534.211	39.6
3537.067	37.6
3539.921	30.6
3542.773	26.6
3545.622	17.6
3548.469	7.6
3551.315	7.6
3554.157	-6.4
3556.998	-11.4
3559.837	-8.4
3562.673	-15.4
3565.507	-14.4
3568.339	-25.4
3571.169	-36.4
3573.996	-36.4
3576.822	-33.4
3579.645	-33.4
3582.466	-42.4
3585.285	-49.4
3588.101	-39.4
3590.916	-53.4
3593.728	-66.4
3596.538	-62.4
3599.346	-66.4
3602.152	-65.4
3604.956	-71.4
3607.757	-67.4
3610.556	-75.4
3613.354	-71.4
3616.149	-86.4
3618.942	-89.4
3621.732	-87.4
3624.521	-81.4
3627.307	-87.4
3630.092	-87.4
3632.874	-87.4
3635.654	-97.4
3638.432	-92.4
3641.208	-95.4
3643.982	-107.4
3646.753	-107.4
3649.523	-107.4
3652.29	-108.4
3655.055	-105.4
3657.818	-109.4
3660.579	-110.4
3663.338	-110.4
3666.095	-117.4
3668.849	-117.4
3671.602	-119.4
3674.352	-122.4
3677.101	-122.4
3679.847	-126.4
3682.591	-126.4
3685.333	-123.4
3688.073	-128.4
3690.811	-131.4
3693.547	-138.4
3696.281	-135.4
3699.013	-131.4
3701.742	-134.4
3704.47	-137.4
3707.195	-132.4
3709.919	-135.4
3712.64	-138.4
3715.359	-145.4
3718.076	-138.4
3720.792	-139.4
3723.505	-144.4
3726.216	-140.4
3728.925	-144.4
3731.632	-140.4
3734.336	-155.4
3737.039	-144.4
3739.74	-144.4
3742.439	-152.4
3745.136	-138.4
3747.83	-148.4
3750.523	-148.4
3753.213	-148.4
3755.902	-143.4
3758.589	-152.4
3761.273	-141.4
3763.956	-148.4
3766.636	-143.4
3769.315	-142.4
3771.991	-145.4
3774.665	-150.4
3777.338	-146.4
3780.008	-150.4
3782.677	-148.4
3785.343	-144.4
3788.007	-153.4
3790.67	-152.4
3793.33	-147.4
3795.989	-149.4
3798.645	-150.4
3801.299	-150.4
3803.952	-160.4
3806.602	-150.4
3809.251	-152.4
3811.897	-154.4
3814.542	-153.4
3817.184	-146.4
3819.825	-148.4
3822.463	-153.4
3825.1	-156.4
3827.735	-157.4
3830.367	-158.4
3832.998	-155.4
3835.627	-154.4
3838.253	-152.4
3840.878	-149.4
3843.501	-152.4
3846.122	-157.4
3848.741	-158.4
3851.358	-152.4
3853.973	-156.4
3856.586	-152.4
3859.197	-159.4
3861.806	-149.4
3864.414	-155.4
3867.019	-155.4
3869.622	-157.4
3872.224	-142.4
3874.823	-133.4
3877.421	-125.4
3880.016	-101.4
3882.61	-86.4
3885.202	-82.4
3887.792	-91.4
3890.38	-118.4
3892.966	-146.4
3895.55	-147.4
3898.132	-147.4
3900.713	-158.4
3903.291	-156.4
3905.868	-162.4
3908.442	-154.4
3911.015	-156.4
3913.586	-155.4
3916.155	-158.4
3918.722	-158.4
3921.287	-156.4
3923.85	-153.4
3926.411	-162.4
3928.971	-161.4
3931.528	-163.4
3934.084	-158.4
3936.638	-152.4
3939.19	-158.4
3941.74	-155.4
3944.288	-159.4
3946.834	-154.4
3949.378	-154.4
3951.921	-158.4
3954.462	-165.4
3957	-160.4
3959.537	-152.4
3962.072	-160.4
3964.606	-151.4
3967.137	-155.4
3969.667	-161.4
3972.194	-157.4
3974.72	-154.4
3977.244	-156.4
3979.766	-158.4
3982.286	-152.4
3984.805	-156.4
3987.321	-151.4
3989.836	-146.4
3992.349	-157.4
3994.86	-155.4
3997.369	-154.4
3999.877	-153.4
4002.382	-151.4
4004.886	-157.4
4007.388	-151.4
4009.888	-151.4
4012.386	-157.4
4014.883	-157.4
4017.377	-154.4
4019.87	-152.4
4022.361	-156.4
4024.85	-160.4
4027.338	-152.4
4029.823	-156.4
4032.307	-152.4
4034.789	-151.4
4037.269	-156.4
4039.747	-152.4
4042.224	-157.4
4044.699	-156.4
4047.172	-156.4
4049.643	-157.4
4052.112	-157.4
4054.58	-156.4
4057.046	-154.4
4059.51	-155.4
4061.972	-158.4
4064.432	-156.4
4066.891	-156.4
4069.348	-154.4
4071.803	-160.4
4074.256	-156.4
4076.708	-148.4
4079.158	-156.4
4081.606	-150.4
4084.052	-158.4
4086.497	-155.4
4088.939	-145.4
4091.38	-152.4
4093.819	-150.4
4096.257	-161.4
4098.693	-157.4
4101.127	-158.4
4103.559	-159.4
4105.989	-6.4
4108.418	-9.4
4110.845	-7.4
4113.27	-7.4
4115.694	-16.4
4118.115	-7.4
4120.535	-155.4
4122.954	-157.4
4125.37	-150.4
4127.785	-161.4
4130.198	-158.4
4132.609	-148.4
4135.019	-159.4
4137.427	-162.4
4139.833	-161.4
4142.237	-162.4
