Data from 2018-2-8_ethanol_RamanShift_05.txt Node
Date: Mon Mar 12 13:13:59 IST 2018
User: aro
Spectrometer: QEPB0276
Trigger mode: 0
Integration Time (sec): 3.000000E1
Scans to average: 1
Electric dark correction enabled: true
Nonlinearity correction enabled: false
Boxcar width: 0
XAxis mode: Raman Shifts
Number of Pixels in Spectrum: 1044
>>>>>Begin Spectral Data<<<<<
160.701	22.6
166.742	45.6
172.777	113.6
178.805	338.6
184.826	877.6
190.841	1842.6
196.849	3004.6
202.85	3808.6
208.845	4073.6
214.833	4000.6
220.815	3819.6
226.789	3759.6
232.758	3701.6
238.719	3653.6
244.674	3583.6
250.623	3494.6
256.565	3456.6
262.5	3387.6
268.429	3322.6
274.351	3280.6
280.267	3213.6
286.176	3109.6
292.079	3040.6
297.975	2969.6
303.865	2892.6
309.748	2808.6
315.625	2749.6
321.495	2694.6
327.359	2658.6
333.217	2614.6
339.068	2613.6
344.912	2625.6
350.751	2610.6
356.583	2640.6
362.408	2654.6
368.227	2693.6
374.04	2745.6
379.847	2802.6
385.647	2852.6
391.44	2936.6
397.228	3016.6
403.009	3160.6
408.784	3325.6
414.553	3614.6
420.315	4077.6
426.071	4785.6
431.821	5601.6
437.565	6285.6
443.302	6423.6
449.033	5918.6
454.758	5110.6
460.477	4394.6
466.189	3822.6
471.896	3458.6
477.596	3221.6
483.29	3006.6
488.978	2896.6
494.66	2795.6
500.335	2692.6
506.005	2533.6
511.668	2354.6
517.325	2195.6
522.977	2078.6
528.622	1969.6
534.261	1909.6
539.894	1839.6
545.521	1781.6
551.141	1752.6
556.756	1717.6
562.365	1690.6
567.968	1657.6
573.565	1642.6
579.155	1623.6
584.74	1605.6
590.319	1609.6
595.892	1576.6
601.459	1575.6
607.02	1593.6
612.575	1561.6
618.124	1547.6
623.667	1510.6
629.204	1481.6
634.735	1453.6
640.261	1430.6
645.781	1429.6
651.294	1411.6
656.802	1410.6
662.304	1396.6
667.8	1389.6
673.29	1379.6
678.775	1392.6
684.254	1370.6
689.726	1350.6
695.193	1368.6
700.655	1368.6
706.11	1354.6
711.56	1333.6
717.004	1349.6
722.442	1345.6
727.874	1335.6
733.301	1336.6
738.722	1324.6
744.137	1348.6
749.547	1331.6
754.951	1366.6
760.349	1389.6
765.741	1410.6
771.128	1456.6
776.509	1487.6
781.885	1548.6
787.254	1587.6
792.618	1670.6
797.977	1719.6
803.33	1790.6
808.677	1837.6
814.019	1916.6
819.355	1950.6
824.686	1973.6
830.011	2016.6
835.33	2104.6
840.644	2233.6
845.952	2435.6
851.255	2753.6
856.552	3264.6
861.844	4192.6
867.13	6163.6
872.41	10365.6
877.686	17801.6
882.955	26729.6
888.219	30767.6
893.478	25615.6
898.731	15769.6
903.979	8437.6
909.221	4968.6
914.458	3515.6
919.69	2769.6
924.916	2347.6
930.136	2071.6
935.351	1909.6
940.561	1773.6
945.766	1659.6
950.965	1614.6
956.158	1577.6
961.347	1529.6
966.529	1506.6
971.707	1482.6
976.879	1504.6
982.046	1506.6
987.208	1561.6
992.364	1649.6
997.515	1755.6
1002.66	1942.6
1007.801	2231.6
1012.936	2639.6
1018.066	3150.6
1023.19	3782.6
1028.309	4457.6
1033.423	5261.6
1038.532	6344.6
1043.636	7980.6
1048.734	9990.6
1053.827	11476.6
1058.915	11192.6
1063.998	9594.6
1069.075	7894.6
1074.147	7131.6
1079.214	7548.6
1084.276	8713.6
1089.333	10285.6
1094.385	11555.6
1099.431	11587.6
1104.472	9972.6
1109.509	7687.6
1114.54	5929.6
1119.565	4937.6
1124.586	4438.6
1129.602	4037.6
1134.613	3627.6
1139.618	3085.6
1144.619	2668.6
1149.614	2360.6
1154.604	2167.6
1159.589	2005.6
1164.57	1876.6
1169.545	1753.6
1174.515	1629.6
1179.48	1532.6
1184.44	1424.6
1189.395	1369.6
1194.345	1347.6
1199.29	1314.6
1204.23	1309.6
1209.165	1302.6
1214.095	1325.6
1219.021	1347.6
1223.941	1400.6
1228.856	1495.6
1233.766	1546.6
1238.672	1658.6
1243.572	1765.6
1248.467	1893.6
1253.358	2044.6
1258.244	2268.6
1263.124	2567.6
1268	3101.6
1272.871	3976.6
1277.737	4940.6
1282.599	5554.6
1287.455	5352.6
1292.306	4443.6
1297.153	3546.6
1301.995	2909.6
1306.832	2540.6
1311.664	2310.6
1316.491	2174.6
1321.314	2070.6
1326.132	2029.6
1330.945	1979.6
1335.753	1934.6
1340.556	1891.6
1345.354	1890.6
1350.148	1886.6
1354.937	1902.6
1359.722	1964.6
1364.501	2008.6
1369.276	2096.6
1374.046	2221.6
1378.811	2391.6
1383.572	2660.6
1388.327	2902.6
1393.079	3079.6
1397.825	3145.6
1402.567	3201.6
1407.304	3351.6
1412.036	3568.6
1416.764	3840.6
1421.487	4193.6
1426.205	4570.6
1430.919	5012.6
1435.628	5620.6
1440.333	6534.6
1445.032	7896.6
1449.727	10013.6
1454.418	12830.6
1459.104	14816.6
1463.785	14461.6
1468.462	11830.6
1473.134	9007.6
1477.802	7238.6
1482.465	6526.6
1487.123	6287.6
1491.777	5961.6
1496.426	5195.6
1501.071	4307.6
1505.711	3562.6
1510.347	3042.6
1514.978	2695.6
1519.604	2447.6
1524.226	2265.6
1528.844	2098.6
1533.457	1935.6
1538.065	1809.6
1542.669	1689.6
1547.269	1607.6
1551.864	1518.6
1556.454	1451.6
1561.041	1393.6
1565.622	1322.6
1570.199	1260.6
1574.772	1201.6
1579.34	1163.6
1583.904	1125.6
1588.464	1084.6
1593.019	1068.6
1597.569	1035.6
1602.115	1011.6
1606.657	1001.6
1611.195	982.6
1615.728	991.6
1620.256	985.6
1624.78	996.6
1629.3	989.6
1633.816	955.6
1638.327	936.6
1642.834	901.6
1647.336	896.6
1651.834	867.6
1656.328	859.6
1660.817	846.6
1665.302	836.6
1669.783	815.6
1674.259	788.6
1678.732	777.6
1683.199	748.6
1687.663	721.6
1692.122	713.6
1696.577	688.6
1701.028	655.6
1705.474	641.6
1709.917	621.6
1714.355	602.6
1718.788	585.6
1723.218	569.6
1727.643	552.6
1732.064	534.6
1736.481	523.6
1740.893	492.6
1745.301	477.6
1749.705	455.6
1754.105	444.6
1758.501	429.6
1762.893	400.6
1767.28	388.6
1771.663	376.6
1776.042	369.6
1780.417	357.6
1784.787	342.6
1789.154	340.6
1793.516	342.6
1797.874	341.6
1802.228	328.6
1806.578	328.6
1810.924	309.6
1815.266	307.6
1819.603	300.6
1823.937	294.6
1828.266	293.6
1832.591	279.6
1836.913	286.6
1841.23	280.6
1845.543	296.6
1849.852	277.6
1854.156	278.6
1858.457	300.6
1862.754	286.6
1867.047	284.6
1871.335	287.6
1875.62	302.6
1879.9	295.6
1884.177	300.6
1888.449	299.6
1892.718	296.6
1896.982	289.6
1901.243	284.6
1905.499	291.6
1909.752	282.6
1914	273.6
1918.245	278.6
1922.485	267.6
1926.722	268.6
1930.954	271.6
1935.183	263.6
1939.408	262.6
1943.628	257.6
1947.845	259.6
1952.058	255.6
1956.267	265.6
1960.472	250.6
1964.673	253.6
1968.87	260.6
1973.063	252.6
1977.252	247.6
1981.438	262.6
1985.619	239.6
1989.797	237.6
1993.971	239.6
1998.14	237.6
2002.306	235.6
2006.469	245.6
2010.627	244.6
2014.781	242.6
2018.932	241.6
2023.078	242.6
2027.221	234.6
2031.36	239.6
2035.495	237.6
2039.627	232.6
2043.754	220.6
2047.878	234.6
2051.998	235.6
2056.114	237.6
2060.226	244.6
2064.334	241.6
2068.439	244.6
2072.54	248.6
2076.637	264.6
2080.73	265.6
2084.82	277.6
2088.906	279.6
2092.988	288.6
2097.066	282.6
2101.14	281.6
2105.211	265.6
2109.278	264.6
2113.342	262.6
2117.401	245.6
2121.457	244.6
2125.509	240.6
2129.558	246.6
2133.602	249.6
2137.643	236.6
2141.681	245.6
2145.714	243.6
2149.744	244.6
2153.77	245.6
2157.793	242.6
2161.812	240.6
2165.827	242.6
2169.838	250.6
2173.846	247.6
2177.851	240.6
2181.851	237.6
2185.848	246.6
2189.841	235.6
2193.831	250.6
2197.817	236.6
2201.799	227.6
2205.778	225.6
2209.753	224.6
2213.725	233.6
2217.693	228.6
2221.657	241.6
2225.618	234.6
2229.575	240.6
2233.529	236.6
2237.479	257.6
2241.425	252.6
2245.368	252.6
2249.307	265.6
2253.243	258.6
2257.175	271.6
2261.104	273.6
2265.029	260.6
2268.95	256.6
2272.868	260.6
2276.783	265.6
2280.694	264.6
2284.601	275.6
2288.505	272.6
2292.405	267.6
2296.302	256.6
2300.195	243.6
2304.085	234.6
2307.971	221.6
2311.854	223.6
2315.734	199.6
2319.609	197.6
2323.482	204.6
2327.351	212.6
2331.216	208.6
2335.078	212.6
2338.937	207.6
2342.792	188.6
2346.643	199.6
2350.492	179.6
2354.336	177.6
2358.178	174.6
2362.015	178.6
2365.85	181.6
2369.681	182.6
2373.508	177.6
2377.333	169.6
2381.153	171.6
2384.971	172.6
2388.785	161.6
2392.595	166.6
2396.402	161.6
2400.206	172.6
2404.007	165.6
2407.804	172.6
2411.597	172.6
2415.388	176.6
2419.174	175.6
2422.958	166.6
2426.738	183.6
2430.515	182.6
2434.289	193.6
2438.059	195.6
2441.825	192.6
2445.589	198.6
2449.349	192.6
2453.106	195.6
2456.859	202.6
2460.61	221.6
2464.356	212.6
2468.1	222.6
2471.84	210.6
2475.577	219.6
2479.311	206.6
2483.041	200.6
2486.768	213.6
2490.492	211.6
2494.213	213.6
2497.93	219.6
2501.644	216.6
2505.355	206.6
2509.062	210.6
2512.766	214.6
2516.467	226.6
2520.165	239.6
2523.859	241.6
2527.551	250.6
2531.239	256.6
2534.923	258.6
2538.605	284.6
2542.283	300.6
2545.958	317.6
2549.63	342.6
2553.299	338.6
2556.964	351.6
2560.626	342.6
2564.285	326.6
2567.941	313.6
2571.594	308.6
2575.243	314.6
2578.89	306.6
2582.533	308.6
2586.173	308.6
2589.809	307.6
2593.443	315.6
2597.073	317.6
2600.701	307.6
2604.325	316.6
2607.946	324.6
2611.564	323.6
2615.178	333.6
2618.79	330.6
2622.398	330.6
2626.004	324.6
2629.606	314.6
2633.205	324.6
2636.801	332.6
2640.394	337.6
2643.983	350.6
2647.57	351.6
2651.153	358.6
2654.734	374.6
2658.311	381.6
2661.885	387.6
2665.456	408.6
2669.025	422.6
2672.589	434.6
2676.151	467.6
2679.71	491.6
2683.266	508.6
2686.819	545.6
2690.368	595.6
2693.915	635.6
2697.458	710.6
2700.999	784.6
2704.536	879.6
2708.071	980.6
2711.602	1076.6
2715.13	1173.6
2718.656	1247.6
2722.178	1312.6
2725.697	1328.6
2729.214	1352.6
2732.727	1330.6
2736.237	1287.6
2739.744	1236.6
2743.249	1200.6
2746.75	1177.6
2750.248	1170.6
2753.743	1168.6
2757.236	1183.6
2760.725	1157.6
2764.211	1123.6
2767.695	1101.6
2771.175	1038.6
2774.652	1011.6
2778.127	1010.6
2781.598	1004.6
2785.067	1021.6
2788.532	1026.6
2791.995	1076.6
2795.455	1116.6
2798.911	1161.6
2802.365	1225.6
2805.816	1319.6
2809.264	1391.6
2812.709	1513.6
2816.151	1634.6
2819.59	1777.6
2823.026	1934.6
2826.46	2108.6
2829.89	2335.6
2833.318	2596.6
2836.742	2837.6
2840.164	3035.6
2843.583	3271.6
2846.999	3472.6
2850.412	3606.6
2853.822	3836.6
2857.229	4086.6
2860.634	4392.6
2864.035	4823.6
2867.434	5360.6
2870.83	6059.6
2874.223	6849.6
2877.613	7767.6
2881	8617.6
2884.385	9086.6
2887.766	9248.6
2891.145	9155.6
2894.521	9009.6
2897.894	8813.6
2901.264	8597.6
2904.631	8343.6
2907.996	8158.6
2911.358	8066.6
2914.717	8099.6
2918.073	8324.6
2921.426	8841.6
2924.777	9614.6
2928.124	10742.6
2931.469	11930.6
2934.811	12645.6
2938.15	12611.6
2941.487	11698.6
2944.821	10522.6
2948.152	9344.6
2951.48	8239.6
2954.805	7322.6
2958.128	6621.6
2961.447	6096.6
2964.765	5786.6
2968.079	5623.6
2971.39	5660.6
2974.699	5712.6
2978.005	5748.6
2981.308	5650.6
2984.609	5343.6
2987.907	4892.6
2991.202	4392.6
2994.494	3840.6
2997.784	3394.6
3001.07	2967.6
3004.355	2602.6
3007.636	2336.6
3010.915	2074.6
3014.191	1891.6
3017.464	1731.6
3020.734	1572.6
3024.002	1445.6
3027.267	1350.6
3030.53	1246.6
3033.789	1175.6
3037.046	1102.6
3040.301	1043.6
3043.552	993.6
3046.801	942.6
3050.048	905.6
3053.291	861.6
3056.532	831.6
3059.771	812.6
3063.006	783.6
3066.239	752.6
3069.469	729.6
3072.697	718.6
3075.922	721.6
3079.144	685.6
3082.364	682.6
3085.581	647.6
3088.795	636.6
3092.007	622.6
3095.216	613.6
3098.423	598.6
3101.627	602.6
3104.828	583.6
3108.026	584.6
3111.222	572.6
3114.416	583.6
3117.607	566.6
3120.795	575.6
3123.98	565.6
3127.163	566.6
3130.344	571.6
3133.521	577.6
3136.696	584.6
3139.869	577.6
3143.039	580.6
3146.206	584.6
3149.371	571.6
3152.533	585.6
3155.693	585.6
3158.85	593.6
3162.005	590.6
3165.157	584.6
3168.306	580.6
3171.453	586.6
3174.597	592.6
3177.739	591.6
3180.878	579.6
3184.014	599.6
3187.149	589.6
3190.28	590.6
3193.409	592.6
3196.536	593.6
3199.659	595.6
3202.781	592.6
3205.9	601.6
3209.016	594.6
3212.13	592.6
3215.241	588.6
3218.35	597.6
3221.456	575.6
3224.56	581.6
3227.661	569.6
3230.76	567.6
3233.856	568.6
3236.95	546.6
3240.041	548.6
3243.13	524.6
3246.216	528.6
3249.3	520.6
3252.382	512.6
3255.46	504.6
3258.537	507.6
3261.611	508.6
3264.682	507.6
3267.751	493.6
3270.818	486.6
3273.882	498.6
3276.943	489.6
3280.002	479.6
3283.059	471.6
3286.113	469.6
3289.165	476.6
3292.214	465.6
3295.261	466.6
3298.306	441.6
3301.348	443.6
3304.387	436.6
3307.425	443.6
3310.459	433.6
3313.492	422.6
3316.521	435.6
3319.549	421.6
3322.574	417.6
3325.597	412.6
3328.617	414.6
3331.635	408.6
3334.65	405.6
3337.663	400.6
3340.674	394.6
3343.682	412.6
3346.688	399.6
3349.691	396.6
3352.692	397.6
3355.691	389.6
3358.687	399.6
3361.681	383.6
3364.673	385.6
3367.662	384.6
3370.649	372.6
3373.633	366.6
3376.615	354.6
3379.595	364.6
3382.572	351.6
3385.547	342.6
3388.52	337.6
3391.49	335.6
3394.458	339.6
3397.424	322.6
3400.387	320.6
3403.348	319.6
3406.307	308.6
3409.263	306.6
3412.217	303.6
3415.168	307.6
3418.118	294.6
3421.065	291.6
3424.009	282.6
3426.951	282.6
3429.891	270.6
3432.829	268.6
3435.764	250.6
3438.697	259.6
3441.628	239.6
3444.557	237.6
3447.483	230.6
3450.407	213.6
3453.328	209.6
3456.247	198.6
3459.164	181.6
3462.079	182.6
3464.991	176.6
3467.902	165.6
3470.809	166.6
3473.715	149.6
3476.618	135.6
3479.519	136.6
3482.418	129.6
3485.315	118.6
3488.209	110.6
3491.101	115.6
3493.99	121.6
3496.878	99.6
3499.763	94.6
3502.646	78.6
3505.527	78.6
3508.405	74.6
3511.281	66.6
3514.155	62.6
3517.027	48.6
3519.897	50.6
3522.764	38.6
3525.629	32.6
3528.492	30.6
3531.352	19.6
3534.211	12.6
3537.067	4.6
3539.921	12.6
3542.773	3.6
3545.622	-2.4
3548.469	-8.4
3551.315	-17.4
3554.157	-21.4
3556.998	-24.4
3559.837	-24.4
3562.673	-28.4
3565.507	-26.4
3568.339	-39.4
3571.169	-45.4
3573.996	-51.4
3576.822	-50.4
3579.645	-42.4
3582.466	-42.4
3585.285	-52.4
3588.101	-45.4
3590.916	-57.4
3593.728	-65.4
3596.538	-65.4
3599.346	-66.4
3602.152	-70.4
3604.956	-69.4
3607.757	-64.4
3610.556	-72.4
3613.354	-70.4
3616.149	-84.4
3618.942	-79.4
3621.732	-83.4
3624.521	-83.4
3627.307	-81.4
3630.092	-80.4
3632.874	-78.4
3635.654	-84.4
3638.432	-86.4
3641.208	-90.4
3643.982	-95.4
3646.753	-93.4
3649.523	-91.4
3652.29	-89.4
3655.055	-90.4
3657.818	-96.4
3660.579	-95.4
3663.338	-95.4
3666.095	-99.4
3668.849	-105.4
3671.602	-99.4
3674.352	-98.4
3677.101	-100.4
3679.847	-101.4
3682.591	-101.4
3685.333	-106.4
3688.073	-102.4
3690.811	-108.4
3693.547	-108.4
3696.281	-108.4
3699.013	-106.4
3701.742	-110.4
3704.47	-108.4
3707.195	-105.4
3709.919	-110.4
3712.64	-111.4
3715.359	-115.4
3718.076	-110.4
3720.792	-111.4
3723.505	-112.4
3726.216	-111.4
3728.925	-117.4
3731.632	-117.4
3734.336	-122.4
3737.039	-113.4
3739.74	-115.4
3742.439	-123.4
3745.136	-109.4
3747.83	-120.4
3750.523	-118.4
3753.213	-123.4
3755.902	-118.4
3758.589	-122.4
3761.273	-117.4
3763.956	-111.4
3766.636	-120.4
3769.315	-109.4
3771.991	-113.4
3774.665	-123.4
3777.338	-114.4
3780.008	-119.4
3782.677	-122.4
3785.343	-118.4
3788.007	-116.4
3790.67	-117.4
3793.33	-120.4
3795.989	-121.4
3798.645	-117.4
3801.299	-119.4
3803.952	-122.4
3806.602	-113.4
3809.251	-122.4
3811.897	-128.4
3814.542	-124.4
3817.184	-117.4
3819.825	-119.4
3822.463	-122.4
3825.1	-118.4
3827.735	-121.4
3830.367	-124.4
3832.998	-125.4
3835.627	-122.4
3838.253	-117.4
3840.878	-118.4
3843.501	-120.4
3846.122	-119.4
3848.741	-123.4
3851.358	-112.4
3853.973	-121.4
3856.586	-117.4
3859.197	-126.4
3861.806	-119.4
3864.414	-123.4
3867.019	-116.4
3869.622	-117.4
3872.224	-105.4
3874.823	-95.4
3877.421	-78.4
3880.016	-58.4
3882.61	-31.4
3885.202	-21.4
3887.792	-39.4
3890.38	-77.4
3892.966	-104.4
3895.55	-111.4
3898.132	-112.4
3900.713	-125.4
3903.291	-122.4
3905.868	-124.4
3908.442	-119.4
3911.015	-125.4
3913.586	-124.4
3916.155	-125.4
3918.722	-124.4
3921.287	-124.4
3923.85	-122.4
3926.411	-128.4
3928.971	-124.4
3931.528	-123.4
3934.084	-121.4
3936.638	-119.4
3939.19	-128.4
3941.74	-126.4
3944.288	-125.4
3946.834	-124.4
3949.378	-125.4
3951.921	-120.4
3954.462	-130.4
3957	-124.4
3959.537	-122.4
3962.072	-125.4
3964.606	-116.4
3967.137	-122.4
3969.667	-127.4
3972.194	-128.4
3974.72	-118.4
3977.244	-125.4
3979.766	-124.4
3982.286	-123.4
3984.805	-127.4
3987.321	-124.4
3989.836	-118.4
3992.349	-122.4
3994.86	-124.4
3997.369	-125.4
3999.877	-124.4
4002.382	-122.4
4004.886	-125.4
4007.388	-121.4
4009.888	-120.4
4012.386	-128.4
4014.883	-122.4
4017.377	-124.4
4019.87	-122.4
4022.361	-130.4
4024.85	-124.4
4027.338	-122.4
4029.823	-121.4
4032.307	-122.4
4034.789	-127.4
4037.269	-125.4
4039.747	-120.4
4042.224	-122.4
4044.699	-127.4
4047.172	-123.4
4049.643	-117.4
4052.112	-124.4
4054.58	-124.4
4057.046	-121.4
4059.51	-125.4
4061.972	-122.4
4064.432	-125.4
4066.891	-123.4
4069.348	-119.4
4071.803	-124.4
4074.256	-124.4
4076.708	-119.4
4079.158	-120.4
4081.606	-117.4
4084.052	-126.4
4086.497	-124.4
4088.939	-115.4
4091.38	-123.4
4093.819	-124.4
4096.257	-134.4
4098.693	-128.4
4101.127	-127.4
4103.559	-122.4
4105.989	30.6
4108.418	22.6
4110.845	15.6
4113.27	11.6
4115.694	1.6
4118.115	-4.4
4120.535	-120.4
4122.954	-127.4
4125.37	-118.4
4127.785	-126.4
4130.198	-125.4
4132.609	-119.4
4135.019	-130.4
4137.427	-128.4
4139.833	-130.4
4142.237	-131.4
