Data from 2018-2-8_conc=0_n=2_RamanShift_01.txt Node
Date: Mon Mar 12 13:20:59 IST 2018
User: aro
Spectrometer: QEPB0276
Trigger mode: 0
Integration Time (sec): 3.000000E1
Scans to average: 1
Electric dark correction enabled: true
Nonlinearity correction enabled: false
Boxcar width: 0
XAxis mode: Raman Shifts
Number of Pixels in Spectrum: 1044
>>>>>Begin Spectral Data<<<<<
160.701	16.8
166.742	50.8
172.777	142.8
178.805	449.8
184.826	1198.8
190.841	2554.8
196.849	4242.8
202.85	5540.8
208.845	6024.8
214.833	5992.8
220.815	5946.8
226.789	5945.8
232.758	5925.8
238.719	5912.8
244.674	5856.8
250.623	5835.8
256.565	5731.8
262.5	5645.8
268.429	5560.8
274.351	5509.8
280.267	5457.8
286.176	5438.8
292.079	5418.8
297.975	5396.8
303.865	5360.8
309.748	5352.8
315.625	5334.8
321.495	5321.8
327.359	5296.8
333.217	5317.8
339.068	5316.8
344.912	5341.8
350.751	5334.8
356.583	5337.8
362.408	5353.8
368.227	5382.8
374.04	5388.8
379.847	5353.8
385.647	5409.8
391.44	5434.8
397.228	5458.8
403.009	5485.8
408.784	5521.8
414.553	5540.8
420.315	5522.8
426.071	5567.8
431.821	5591.8
437.565	5555.8
443.302	5539.8
449.033	5521.8
454.758	5483.8
460.477	5504.8
466.189	5450.8
471.896	5432.8
477.596	5416.8
483.29	5352.8
488.978	5349.8
494.66	5327.8
500.335	5279.8
506.005	5156.8
511.668	5006.8
517.325	4826.8
522.977	4739.8
528.622	4658.8
534.261	4587.8
539.894	4537.8
545.521	4506.8
551.141	4463.8
556.756	4450.8
562.365	4420.8
567.968	4387.8
573.565	4369.8
579.155	4343.8
584.74	4327.8
590.319	4295.8
595.892	4297.8
601.459	4285.8
607.02	4280.8
612.575	4259.8
618.124	4178.8
623.667	4161.8
629.204	4119.8
634.735	4094.8
640.261	4058.8
645.781	4048.8
651.294	4048.8
656.802	4028.8
662.304	4015.8
667.8	4003.8
673.29	4021.8
678.775	3999.8
684.254	3990.8
689.726	3943.8
695.193	3933.8
700.655	3928.8
706.11	3920.8
711.56	3884.8
717.004	3861.8
722.442	3848.8
727.874	3806.8
733.301	3809.8
738.722	3820.8
744.137	3780.8
749.547	3764.8
754.951	3771.8
760.349	3782.8
765.741	3788.8
771.128	3814.8
776.509	3836.8
781.885	3846.8
787.254	3836.8
792.618	3849.8
797.977	3815.8
803.33	3817.8
808.677	3770.8
814.019	3741.8
819.355	3714.8
824.686	3685.8
830.011	3690.8
835.33	3685.8
840.644	3652.8
845.952	3652.8
851.255	3621.8
856.552	3635.8
861.844	3644.8
867.13	3609.8
872.41	3614.8
877.686	3588.8
882.955	3577.8
888.219	3524.8
893.478	3464.8
898.731	3432.8
903.979	3369.8
909.221	3343.8
914.458	3322.8
919.69	3331.8
924.916	3326.8
930.136	3315.8
935.351	3335.8
940.561	3338.8
945.766	3335.8
950.965	3342.8
956.158	3278.8
961.347	3253.8
966.529	3198.8
971.707	3171.8
976.879	3141.8
982.046	3087.8
987.208	3067.8
992.364	3090.8
997.515	3109.8
1002.66	3126.8
1007.801	3149.8
1012.936	3156.8
1018.066	3175.8
1023.19	3189.8
1028.309	3214.8
1033.423	3173.8
1038.532	3157.8
1043.636	3128.8
1048.734	3126.8
1053.827	3071.8
1058.915	3035.8
1063.998	3022.8
1069.075	3011.8
1074.147	3028.8
1079.214	3012.8
1084.276	3017.8
1089.333	3045.8
1094.385	3057.8
1099.431	3068.8
1104.472	3052.8
1109.509	3012.8
1114.54	2978.8
1119.565	2920.8
1124.586	2893.8
1129.602	2881.8
1134.613	2862.8
1139.618	2832.8
1144.619	2807.8
1149.614	2843.8
1154.604	2832.8
1159.589	2832.8
1164.57	2839.8
1169.545	2851.8
1174.515	2869.8
1179.48	2830.8
1184.44	2810.8
1189.395	2784.8
1194.345	2761.8
1199.29	2711.8
1204.23	2746.8
1209.165	2754.8
1214.095	2780.8
1219.021	2781.8
1223.941	2797.8
1228.856	2804.8
1233.766	2812.8
1238.672	2821.8
1243.572	2794.8
1248.467	2782.8
1253.358	2748.8
1258.244	2714.8
1263.124	2664.8
1268	2628.8
1272.871	2610.8
1277.737	2579.8
1282.599	2578.8
1287.455	2576.8
1292.306	2565.8
1297.153	2590.8
1301.995	2607.8
1306.832	2592.8
1311.664	2608.8
1316.491	2632.8
1321.314	2624.8
1326.132	2597.8
1330.945	2589.8
1335.753	2526.8
1340.556	2478.8
1345.354	2428.8
1350.148	2402.8
1354.937	2372.8
1359.722	2297.8
1364.501	2301.8
1369.276	2258.8
1374.046	2212.8
1378.811	2178.8
1383.572	2182.8
1388.327	2182.8
1393.079	2193.8
1397.825	2186.8
1402.567	2187.8
1407.304	2195.8
1412.036	2184.8
1416.764	2201.8
1421.487	2200.8
1426.205	2200.8
1430.919	2212.8
1435.628	2222.8
1440.333	2251.8
1445.032	2253.8
1449.727	2289.8
1454.418	2297.8
1459.104	2274.8
1463.785	2254.8
1468.462	2211.8
1473.134	2154.8
1477.802	2120.8
1482.465	2064.8
1487.123	2019.8
1491.777	1988.8
1496.426	1957.8
1501.071	1940.8
1505.711	1944.8
1510.347	1937.8
1514.978	1924.8
1519.604	1921.8
1524.226	1918.8
1528.844	1913.8
1533.457	1923.8
1538.065	1900.8
1542.669	1899.8
1547.269	1891.8
1551.864	1895.8
1556.454	1919.8
1561.041	1947.8
1565.622	1953.8
1570.199	1944.8
1574.772	1978.8
1579.34	1985.8
1583.904	2013.8
1588.464	2037.8
1593.019	2038.8
1597.569	2028.8
1602.115	2029.8
1606.657	2037.8
1611.195	2029.8
1615.728	2028.8
1620.256	2015.8
1624.78	2017.8
1629.3	2024.8
1633.816	2021.8
1638.327	2014.8
1642.834	2025.8
1647.336	2057.8
1651.834	2050.8
1656.328	2056.8
1660.817	2046.8
1665.302	2002.8
1669.783	1962.8
1674.259	1916.8
1678.732	1891.8
1683.199	1809.8
1687.663	1761.8
1692.122	1708.8
1696.577	1613.8
1701.028	1560.8
1705.474	1494.8
1709.917	1443.8
1714.355	1423.8
1718.788	1426.8
1723.218	1426.8
1727.643	1422.8
1732.064	1404.8
1736.481	1395.8
1740.893	1371.8
1745.301	1341.8
1749.705	1323.8
1754.105	1291.8
1758.501	1268.8
1762.893	1265.8
1767.28	1235.8
1771.663	1229.8
1776.042	1213.8
1780.417	1187.8
1784.787	1176.8
1789.154	1152.8
1793.516	1172.8
1797.874	1134.8
1802.228	1125.8
1806.578	1098.8
1810.924	1103.8
1815.266	1091.8
1819.603	1094.8
1823.937	1094.8
1828.266	1088.8
1832.591	1099.8
1836.913	1099.8
1841.23	1083.8
1845.543	1090.8
1849.852	1087.8
1854.156	1081.8
1858.457	1089.8
1862.754	1108.8
1867.047	1095.8
1871.335	1091.8
1875.62	1096.8
1879.9	1105.8
1884.177	1066.8
1888.449	1051.8
1892.718	1034.8
1896.982	1034.8
1901.243	994.8
1905.499	998.8
1909.752	991.8
1914	972.8
1918.245	961.8
1922.485	937.8
1926.722	945.8
1930.954	932.8
1935.183	924.8
1939.408	908.8
1943.628	913.8
1947.845	914.8
1952.058	912.8
1956.267	902.8
1960.472	884.8
1964.673	873.8
1968.87	868.8
1973.063	879.8
1977.252	861.8
1981.438	872.8
1985.619	870.8
1989.797	864.8
1993.971	870.8
1998.14	893.8
2002.306	886.8
2006.469	877.8
2010.627	871.8
2014.781	889.8
2018.932	891.8
2023.078	881.8
2027.221	856.8
2031.36	871.8
2035.495	840.8
2039.627	833.8
2043.754	818.8
2047.878	821.8
2051.998	816.8
2056.114	813.8
2060.226	798.8
2064.334	803.8
2068.439	796.8
2072.54	792.8
2076.637	789.8
2080.73	776.8
2084.82	784.8
2088.906	770.8
2092.988	762.8
2097.066	765.8
2101.14	750.8
2105.211	729.8
2109.278	725.8
2113.342	715.8
2117.401	715.8
2121.457	710.8
2125.509	706.8
2129.558	717.8
2133.602	711.8
2137.643	704.8
2141.681	718.8
2145.714	705.8
2149.744	715.8
2153.77	688.8
2157.793	705.8
2161.812	697.8
2165.827	701.8
2169.838	693.8
2173.846	667.8
2177.851	653.8
2181.851	646.8
2185.848	646.8
2189.841	641.8
2193.831	649.8
2197.817	642.8
2201.799	628.8
2205.778	620.8
2209.753	622.8
2213.725	633.8
2217.693	619.8
2221.657	620.8
2225.618	623.8
2229.575	619.8
2233.529	620.8
2237.479	607.8
2241.425	596.8
2245.368	595.8
2249.307	571.8
2253.243	565.8
2257.175	565.8
2261.104	559.8
2265.029	547.8
2268.95	555.8
2272.868	534.8
2276.783	531.8
2280.694	531.8
2284.601	523.8
2288.505	522.8
2292.405	512.8
2296.302	503.8
2300.195	506.8
2304.085	484.8
2307.971	482.8
2311.854	463.8
2315.734	471.8
2319.609	464.8
2323.482	459.8
2327.351	462.8
2331.216	458.8
2335.078	478.8
2338.937	460.8
2342.792	442.8
2346.643	431.8
2350.492	436.8
2354.336	432.8
2358.178	448.8
2362.015	438.8
2365.85	451.8
2369.681	446.8
2373.508	436.8
2377.333	441.8
2381.153	441.8
2384.971	445.8
2388.785	433.8
2392.595	431.8
2396.402	425.8
2400.206	426.8
2404.007	426.8
2407.804	422.8
2411.597	421.8
2415.388	404.8
2419.174	424.8
2422.958	408.8
2426.738	417.8
2430.515	408.8
2434.289	416.8
2438.059	396.8
2441.825	391.8
2445.589	391.8
2449.349	382.8
2453.106	388.8
2456.859	374.8
2460.61	362.8
2464.356	360.8
2468.1	354.8
2471.84	343.8
2475.577	351.8
2479.311	336.8
2483.041	341.8
2486.768	344.8
2490.492	336.8
2494.213	345.8
2497.93	348.8
2501.644	325.8
2505.355	334.8
2509.062	330.8
2512.766	330.8
2516.467	311.8
2520.165	308.8
2523.859	314.8
2527.551	309.8
2531.239	289.8
2534.923	285.8
2538.605	292.8
2542.283	279.8
2545.958	279.8
2549.63	278.8
2553.299	280.8
2556.964	274.8
2560.626	270.8
2564.285	270.8
2567.941	260.8
2571.594	263.8
2575.243	257.8
2578.89	253.8
2582.533	249.8
2586.173	242.8
2589.809	236.8
2593.443	236.8
2597.073	241.8
2600.701	229.8
2604.325	230.8
2607.946	231.8
2611.564	231.8
2615.178	235.8
2618.79	221.8
2622.398	228.8
2626.004	223.8
2629.606	229.8
2633.205	214.8
2636.801	212.8
2640.394	218.8
2643.983	217.8
2647.57	213.8
2651.153	207.8
2654.734	213.8
2658.311	207.8
2661.885	200.8
2665.456	196.8
2669.025	194.8
2672.589	197.8
2676.151	197.8
2679.71	193.8
2683.266	198.8
2686.819	181.8
2690.368	180.8
2693.915	175.8
2697.458	179.8
2700.999	174.8
2704.536	169.8
2708.071	161.8
2711.602	167.8
2715.13	161.8
2718.656	157.8
2722.178	158.8
2725.697	146.8
2729.214	144.8
2732.727	144.8
2736.237	153.8
2739.744	142.8
2743.249	148.8
2746.75	137.8
2750.248	128.8
2753.743	129.8
2757.236	126.8
2760.725	123.8
2764.211	117.8
2767.695	119.8
2771.175	106.8
2774.652	115.8
2778.127	119.8
2781.598	108.8
2785.067	122.8
2788.532	115.8
2791.995	115.8
2795.455	123.8
2798.911	122.8
2802.365	119.8
2805.816	123.8
2809.264	117.8
2812.709	123.8
2816.151	119.8
2819.59	125.8
2823.026	113.8
2826.46	119.8
2829.89	123.8
2833.318	121.8
2836.742	122.8
2840.164	124.8
2843.583	124.8
2846.999	117.8
2850.412	122.8
2853.822	139.8
2857.229	132.8
2860.634	135.8
2864.035	145.8
2867.434	149.8
2870.83	153.8
2874.223	165.8
2877.613	162.8
2881	184.8
2884.385	177.8
2887.766	174.8
2891.145	172.8
2894.521	173.8
2897.894	186.8
2901.264	185.8
2904.631	179.8
2907.996	188.8
2911.358	188.8
2914.717	195.8
2918.073	189.8
2921.426	196.8
2924.777	208.8
2928.124	218.8
2931.469	219.8
2934.811	233.8
2938.15	233.8
2941.487	248.8
2944.821	240.8
2948.152	237.8
2951.48	230.8
2954.805	238.8
2958.128	225.8
2961.447	228.8
2964.765	221.8
2968.079	229.8
2971.39	221.8
2974.699	228.8
2978.005	229.8
2981.308	222.8
2984.609	230.8
2987.907	221.8
2991.202	233.8
2994.494	230.8
2997.784	234.8
3001.07	245.8
3004.355	250.8
3007.636	243.8
3010.915	242.8
3014.191	252.8
3017.464	260.8
3020.734	253.8
3024.002	253.8
3027.267	268.8
3030.53	275.8
3033.789	273.8
3037.046	292.8
3040.301	288.8
3043.552	307.8
3046.801	317.8
3050.048	323.8
3053.291	336.8
3056.532	338.8
3059.771	361.8
3063.006	364.8
3066.239	383.8
3069.469	401.8
3072.697	404.8
3075.922	418.8
3079.144	432.8
3082.364	434.8
3085.581	438.8
3088.795	455.8
3092.007	465.8
3095.216	467.8
3098.423	486.8
3101.627	501.8
3104.828	509.8
3108.026	509.8
3111.222	523.8
3114.416	533.8
3117.607	546.8
3120.795	563.8
3123.98	567.8
3127.163	590.8
3130.344	609.8
3133.521	614.8
3136.696	632.8
3139.869	640.8
3143.039	649.8
3146.206	650.8
3149.371	671.8
3152.533	679.8
3155.693	688.8
3158.85	688.8
3162.005	697.8
3165.157	694.8
3168.306	698.8
3171.453	699.8
3174.597	702.8
3177.739	706.8
3180.878	716.8
3184.014	712.8
3187.149	727.8
3190.28	728.8
3193.409	732.8
3196.536	732.8
3199.659	745.8
3202.781	742.8
3205.9	727.8
3209.016	749.8
3212.13	747.8
3215.241	731.8
3218.35	721.8
3221.456	708.8
3224.56	712.8
3227.661	700.8
3230.76	687.8
3233.856	675.8
3236.95	669.8
3240.041	661.8
3243.13	659.8
3246.216	628.8
3249.3	617.8
3252.382	626.8
3255.46	620.8
3258.537	611.8
3261.611	602.8
3264.682	603.8
3267.751	599.8
3270.818	593.8
3273.882	581.8
3276.943	595.8
3280.002	583.8
3283.059	574.8
3286.113	580.8
3289.165	574.8
3292.214	556.8
3295.261	557.8
3298.306	549.8
3301.348	536.8
3304.387	534.8
3307.425	523.8
3310.459	521.8
3313.492	517.8
3316.521	515.8
3319.549	517.8
3322.574	507.8
3325.597	502.8
3328.617	510.8
3331.635	495.8
3334.65	510.8
3337.663	482.8
3340.674	502.8
3343.682	506.8
3346.688	482.8
3349.691	493.8
3352.692	478.8
3355.691	481.8
3358.687	480.8
3361.681	479.8
3364.673	459.8
3367.662	469.8
3370.649	461.8
3373.633	443.8
3376.615	431.8
3379.595	432.8
3382.572	436.8
3385.547	424.8
3388.52	413.8
3391.49	413.8
3394.458	401.8
3397.424	380.8
3400.387	387.8
3403.348	378.8
3406.307	366.8
3409.263	365.8
3412.217	365.8
3415.168	363.8
3418.118	357.8
3421.065	338.8
3424.009	342.8
3426.951	327.8
3429.891	328.8
3432.829	313.8
3435.764	301.8
3438.697	297.8
3441.628	286.8
3444.557	289.8
3447.483	278.8
3450.407	252.8
3453.328	245.8
3456.247	241.8
3459.164	232.8
3462.079	213.8
3464.991	207.8
3467.902	200.8
3470.809	200.8
3473.715	180.8
3476.618	170.8
3479.519	162.8
3482.418	155.8
3485.315	146.8
3488.209	143.8
3491.101	130.8
3493.99	141.8
3496.878	121.8
3499.763	114.8
3502.646	102.8
3505.527	92.8
3508.405	94.8
3511.281	80.8
3514.155	81.8
3517.027	72.8
3519.897	64.8
3522.764	49.8
3525.629	45.8
3528.492	37.8
3531.352	27.8
3534.211	20.8
3537.067	18.8
3539.921	9.8
3542.773	11.8
3545.622	-2.2
3548.469	-12.2
3551.315	-1.2
3554.157	-16.2
3556.998	-21.2
3559.837	-26.2
3562.673	-29.2
3565.507	-31.2
3568.339	-38.2
3571.169	-41.2
3573.996	-43.2
3576.822	-50.2
3579.645	-49.2
3582.466	-49.2
3585.285	-56.2
3588.101	-55.2
3590.916	-65.2
3593.728	-71.2
3596.538	-73.2
3599.346	-77.2
3602.152	-78.2
3604.956	-72.2
3607.757	-75.2
3610.556	-88.2
3613.354	-87.2
3616.149	-97.2
3618.942	-94.2
3621.732	-93.2
3624.521	-94.2
3627.307	-95.2
3630.092	-100.2
3632.874	-98.2
3635.654	-106.2
3638.432	-97.2
3641.208	-96.2
3643.982	-106.2
3646.753	-114.2
3649.523	-116.2
3652.29	-113.2
3655.055	-109.2
3657.818	-115.2
3660.579	-114.2
3663.338	-114.2
3666.095	-116.2
3668.849	-128.2
3671.602	-126.2
3674.352	-129.2
3677.101	-128.2
3679.847	-130.2
3682.591	-131.2
3685.333	-131.2
3688.073	-133.2
3690.811	-131.2
3693.547	-140.2
3696.281	-132.2
3699.013	-135.2
3701.742	-136.2
3704.47	-137.2
3707.195	-136.2
3709.919	-141.2
3712.64	-139.2
3715.359	-144.2
3718.076	-146.2
3720.792	-142.2
3723.505	-150.2
3726.216	-139.2
3728.925	-144.2
3731.632	-143.2
3734.336	-155.2
3737.039	-149.2
3739.74	-153.2
3742.439	-163.2
3745.136	-148.2
3747.83	-152.2
3750.523	-155.2
3753.213	-150.2
3755.902	-147.2
3758.589	-157.2
3761.273	-149.2
3763.956	-147.2
3766.636	-153.2
3769.315	-146.2
3771.991	-143.2
3774.665	-158.2
3777.338	-145.2
3780.008	-148.2
3782.677	-153.2
3785.343	-155.2
3788.007	-155.2
3790.67	-157.2
3793.33	-153.2
3795.989	-153.2
3798.645	-150.2
3801.299	-153.2
3803.952	-160.2
3806.602	-151.2
3809.251	-156.2
3811.897	-155.2
3814.542	-157.2
3817.184	-147.2
3819.825	-151.2
3822.463	-157.2
3825.1	-156.2
3827.735	-154.2
3830.367	-157.2
3832.998	-160.2
3835.627	-152.2
3838.253	-150.2
3840.878	-152.2
3843.501	-155.2
3846.122	-159.2
3848.741	-165.2
3851.358	-154.2
3853.973	-161.2
3856.586	-154.2
3859.197	-155.2
3861.806	-154.2
3864.414	-160.2
3867.019	-151.2
3869.622	-156.2
3872.224	-144.2
3874.823	-124.2
3877.421	-112.2
3880.016	-85.2
3882.61	-68.2
3885.202	-54.2
3887.792	-81.2
3890.38	-116.2
3892.966	-145.2
3895.55	-142.2
3898.132	-148.2
3900.713	-153.2
3903.291	-161.2
3905.868	-164.2
3908.442	-154.2
3911.015	-164.2
3913.586	-160.2
3916.155	-161.2
3918.722	-157.2
3921.287	-158.2
3923.85	-156.2
3926.411	-159.2
3928.971	-158.2
3931.528	-161.2
3934.084	-159.2
3936.638	-154.2
3939.19	-162.2
3941.74	-162.2
3944.288	-158.2
3946.834	-160.2
3949.378	-162.2
3951.921	-163.2
3954.462	-167.2
3957	-157.2
3959.537	-152.2
3962.072	-153.2
3964.606	-151.2
3967.137	-156.2
3969.667	-163.2
3972.194	-162.2
3974.72	-160.2
3977.244	-155.2
3979.766	-159.2
3982.286	-156.2
3984.805	-156.2
3987.321	-155.2
3989.836	-150.2
3992.349	-159.2
3994.86	-158.2
3997.369	-159.2
3999.877	-154.2
4002.382	-152.2
4004.886	-158.2
4007.388	-156.2
4009.888	-156.2
4012.386	-159.2
4014.883	-161.2
4017.377	-159.2
4019.87	-158.2
4022.361	-157.2
4024.85	-156.2
4027.338	-155.2
4029.823	-152.2
4032.307	-156.2
4034.789	-160.2
4037.269	-152.2
4039.747	-154.2
4042.224	-152.2
4044.699	-155.2
4047.172	-154.2
4049.643	-155.2
4052.112	-156.2
4054.58	-156.2
4057.046	-160.2
4059.51	-159.2
4061.972	-155.2
4064.432	-154.2
4066.891	-155.2
4069.348	-154.2
4071.803	-162.2
4074.256	-160.2
4076.708	-158.2
4079.158	-154.2
4081.606	-151.2
4084.052	-157.2
4086.497	-160.2
4088.939	-148.2
4091.38	-161.2
4093.819	-154.2
4096.257	-163.2
4098.693	-161.2
4101.127	-163.2
4103.559	-161.2
4105.989	1.8
4108.418	4.8
4110.845	11.8
4113.27	-1.2
4115.694	-7.2
4118.115	-2.2
4120.535	-158.2
4122.954	-156.2
4125.37	-158.2
4127.785	-156.2
4130.198	-152.2
4132.609	-156.2
4135.019	-162.2
4137.427	-165.2
4139.833	-167.2
4142.237	-165.2
