Data from 2018-2-8_conc=6_n=8_RamanShift_04.txt Node
Date: Mon Mar 12 16:46:57 IST 2018
User: aro
Spectrometer: QEPB0276
Trigger mode: 0
Integration Time (sec): 3.000000E1
Scans to average: 1
Electric dark correction enabled: true
Nonlinearity correction enabled: false
Boxcar width: 0
XAxis mode: Raman Shifts
Number of Pixels in Spectrum: 1044
>>>>>Begin Spectral Data<<<<<
160.701	5.6
166.742	35.6
172.777	116.6
178.805	359.6
184.826	1008.6
190.841	2143.6
196.849	3581.6
202.85	4753.6
208.845	5168.6
214.833	5162.6
220.815	5112.6
226.789	5109.6
232.758	5060.6
238.719	5068.6
244.674	5061.6
250.623	4964.6
256.565	4910.6
262.5	4836.6
268.429	4770.6
274.351	4690.6
280.267	4685.6
286.176	4646.6
292.079	4629.6
297.975	4617.6
303.865	4581.6
309.748	4576.6
315.625	4552.6
321.495	4551.6
327.359	4577.6
333.217	4523.6
339.068	4549.6
344.912	4560.6
350.751	4553.6
356.583	4553.6
362.408	4563.6
368.227	4567.6
374.04	4591.6
379.847	4587.6
385.647	4616.6
391.44	4638.6
397.228	4639.6
403.009	4663.6
408.784	4687.6
414.553	4724.6
420.315	4710.6
426.071	4708.6
431.821	4728.6
437.565	4703.6
443.302	4720.6
449.033	4705.6
454.758	4678.6
460.477	4649.6
466.189	4645.6
471.896	4604.6
477.596	4597.6
483.29	4543.6
488.978	4579.6
494.66	4536.6
500.335	4488.6
506.005	4398.6
511.668	4272.6
517.325	4170.6
522.977	4067.6
528.622	3979.6
534.261	3941.6
539.894	3902.6
545.521	3858.6
551.141	3838.6
556.756	3799.6
562.365	3781.6
567.968	3774.6
573.565	3746.6
579.155	3736.6
584.74	3722.6
590.319	3719.6
595.892	3689.6
601.459	3677.6
607.02	3681.6
612.575	3629.6
618.124	3610.6
623.667	3570.6
629.204	3532.6
634.735	3530.6
640.261	3506.6
645.781	3474.6
651.294	3478.6
656.802	3478.6
662.304	3442.6
667.8	3449.6
673.29	3437.6
678.775	3432.6
684.254	3418.6
689.726	3381.6
695.193	3410.6
700.655	3390.6
706.11	3361.6
711.56	3316.6
717.004	3343.6
722.442	3305.6
727.874	3303.6
733.301	3295.6
738.722	3254.6
744.137	3263.6
749.547	3262.6
754.951	3219.6
760.349	3235.6
765.741	3251.6
771.128	3280.6
776.509	3280.6
781.885	3298.6
787.254	3300.6
792.618	3295.6
797.977	3283.6
803.33	3281.6
808.677	3235.6
814.019	3224.6
819.355	3209.6
824.686	3169.6
830.011	3154.6
835.33	3145.6
840.644	3141.6
845.952	3138.6
851.255	3112.6
856.552	3130.6
861.844	3097.6
867.13	3113.6
872.41	3075.6
877.686	3048.6
882.955	3028.6
888.219	2986.6
893.478	2967.6
898.731	2936.6
903.979	2879.6
909.221	2881.6
914.458	2885.6
919.69	2847.6
924.916	2852.6
930.136	2852.6
935.351	2870.6
940.561	2865.6
945.766	2853.6
950.965	2862.6
956.158	2816.6
961.347	2782.6
966.529	2783.6
971.707	2740.6
976.879	2691.6
982.046	2698.6
987.208	2667.6
992.364	2660.6
997.515	2685.6
1002.66	2702.6
1007.801	2723.6
1012.936	2729.6
1018.066	2747.6
1023.19	2737.6
1028.309	2737.6
1033.423	2760.6
1038.532	2730.6
1043.636	2712.6
1048.734	2678.6
1053.827	2664.6
1058.915	2609.6
1063.998	2580.6
1069.075	2586.6
1074.147	2600.6
1079.214	2592.6
1084.276	2599.6
1089.333	2606.6
1094.385	2623.6
1099.431	2619.6
1104.472	2651.6
1109.509	2591.6
1114.54	2579.6
1119.565	2547.6
1124.586	2501.6
1129.602	2482.6
1134.613	2482.6
1139.618	2438.6
1144.619	2438.6
1149.614	2443.6
1154.604	2450.6
1159.589	2446.6
1164.57	2454.6
1169.545	2451.6
1174.515	2451.6
1179.48	2444.6
1184.44	2443.6
1189.395	2400.6
1194.345	2387.6
1199.29	2373.6
1204.23	2361.6
1209.165	2369.6
1214.095	2374.6
1219.021	2409.6
1223.941	2428.6
1228.856	2424.6
1233.766	2422.6
1238.672	2457.6
1243.572	2431.6
1248.467	2412.6
1253.358	2388.6
1258.244	2369.6
1263.124	2322.6
1268	2269.6
1272.871	2255.6
1277.737	2221.6
1282.599	2221.6
1287.455	2203.6
1292.306	2221.6
1297.153	2225.6
1301.995	2255.6
1306.832	2244.6
1311.664	2258.6
1316.491	2273.6
1321.314	2269.6
1326.132	2277.6
1330.945	2236.6
1335.753	2207.6
1340.556	2181.6
1345.354	2138.6
1350.148	2120.6
1354.937	2076.6
1359.722	2022.6
1364.501	2006.6
1369.276	1962.6
1374.046	1928.6
1378.811	1902.6
1383.572	1885.6
1388.327	1891.6
1393.079	1893.6
1397.825	1897.6
1402.567	1906.6
1407.304	1888.6
1412.036	1934.6
1416.764	1904.6
1421.487	1910.6
1426.205	1910.6
1430.919	1930.6
1435.628	1921.6
1440.333	1936.6
1445.032	1965.6
1449.727	1989.6
1454.418	1995.6
1459.104	1970.6
1463.785	1935.6
1468.462	1918.6
1473.134	1879.6
1477.802	1853.6
1482.465	1829.6
1487.123	1769.6
1491.777	1775.6
1496.426	1749.6
1501.071	1718.6
1505.711	1697.6
1510.347	1712.6
1514.978	1712.6
1519.604	1719.6
1524.226	1708.6
1528.844	1708.6
1533.457	1682.6
1538.065	1671.6
1542.669	1650.6
1547.269	1664.6
1551.864	1661.6
1556.454	1675.6
1561.041	1699.6
1565.622	1697.6
1570.199	1697.6
1574.772	1729.6
1579.34	1722.6
1583.904	1774.6
1588.464	1779.6
1593.019	1794.6
1597.569	1775.6
1602.115	1785.6
1606.657	1776.6
1611.195	1774.6
1615.728	1759.6
1620.256	1754.6
1624.78	1754.6
1629.3	1780.6
1633.816	1754.6
1638.327	1776.6
1642.834	1796.6
1647.336	1790.6
1651.834	1818.6
1656.328	1801.6
1660.817	1802.6
1665.302	1805.6
1669.783	1757.6
1674.259	1720.6
1678.732	1668.6
1683.199	1622.6
1687.663	1570.6
1692.122	1537.6
1696.577	1477.6
1701.028	1430.6
1705.474	1368.6
1709.917	1305.6
1714.355	1287.6
1718.788	1269.6
1723.218	1269.6
1727.643	1271.6
1732.064	1286.6
1736.481	1264.6
1740.893	1236.6
1745.301	1204.6
1749.705	1195.6
1754.105	1165.6
1758.501	1145.6
1762.893	1130.6
1767.28	1122.6
1771.663	1114.6
1776.042	1106.6
1780.417	1077.6
1784.787	1071.6
1789.154	1046.6
1793.516	1053.6
1797.874	1043.6
1802.228	1023.6
1806.578	1014.6
1810.924	995.6
1815.266	976.6
1819.603	980.6
1823.937	1004.6
1828.266	970.6
1832.591	996.6
1836.913	983.6
1841.23	969.6
1845.543	990.6
1849.852	983.6
1854.156	983.6
1858.457	993.6
1862.754	997.6
1867.047	995.6
1871.335	992.6
1875.62	998.6
1879.9	992.6
1884.177	982.6
1888.449	979.6
1892.718	978.6
1896.982	967.6
1901.243	939.6
1905.499	919.6
1909.752	909.6
1914	897.6
1918.245	906.6
1922.485	882.6
1926.722	878.6
1930.954	879.6
1935.183	871.6
1939.408	866.6
1943.628	864.6
1947.845	856.6
1952.058	851.6
1956.267	830.6
1960.472	842.6
1964.673	821.6
1968.87	801.6
1973.063	809.6
1977.252	799.6
1981.438	805.6
1985.619	802.6
1989.797	790.6
1993.971	806.6
1998.14	807.6
2002.306	798.6
2006.469	814.6
2010.627	813.6
2014.781	802.6
2018.932	805.6
2023.078	806.6
2027.221	799.6
2031.36	795.6
2035.495	774.6
2039.627	767.6
2043.754	750.6
2047.878	752.6
2051.998	736.6
2056.114	747.6
2060.226	760.6
2064.334	737.6
2068.439	726.6
2072.54	745.6
2076.637	738.6
2080.73	742.6
2084.82	723.6
2088.906	724.6
2092.988	718.6
2097.066	708.6
2101.14	695.6
2105.211	678.6
2109.278	679.6
2113.342	670.6
2117.401	664.6
2121.457	667.6
2125.509	661.6
2129.558	648.6
2133.602	659.6
2137.643	660.6
2141.681	665.6
2145.714	655.6
2149.744	649.6
2153.77	641.6
2157.793	642.6
2161.812	635.6
2165.827	633.6
2169.838	635.6
2173.846	611.6
2177.851	599.6
2181.851	580.6
2185.848	595.6
2189.841	579.6
2193.831	582.6
2197.817	576.6
2201.799	567.6
2205.778	575.6
2209.753	565.6
2213.725	573.6
2217.693	569.6
2221.657	564.6
2225.618	563.6
2229.575	572.6
2233.529	564.6
2237.479	536.6
2241.425	551.6
2245.368	533.6
2249.307	533.6
2253.243	510.6
2257.175	505.6
2261.104	498.6
2265.029	504.6
2268.95	499.6
2272.868	491.6
2276.783	488.6
2280.694	476.6
2284.601	462.6
2288.505	465.6
2292.405	465.6
2296.302	451.6
2300.195	451.6
2304.085	443.6
2307.971	432.6
2311.854	422.6
2315.734	418.6
2319.609	407.6
2323.482	418.6
2327.351	423.6
2331.216	429.6
2335.078	435.6
2338.937	419.6
2342.792	402.6
2346.643	402.6
2350.492	401.6
2354.336	408.6
2358.178	405.6
2362.015	406.6
2365.85	408.6
2369.681	409.6
2373.508	404.6
2377.333	411.6
2381.153	403.6
2384.971	412.6
2388.785	404.6
2392.595	394.6
2396.402	400.6
2400.206	398.6
2404.007	387.6
2407.804	391.6
2411.597	384.6
2415.388	381.6
2419.174	390.6
2422.958	381.6
2426.738	375.6
2430.515	381.6
2434.289	373.6
2438.059	358.6
2441.825	368.6
2445.589	369.6
2449.349	348.6
2453.106	353.6
2456.859	361.6
2460.61	345.6
2464.356	339.6
2468.1	335.6
2471.84	334.6
2475.577	334.6
2479.311	337.6
2483.041	326.6
2486.768	323.6
2490.492	324.6
2494.213	322.6
2497.93	322.6
2501.644	317.6
2505.355	313.6
2509.062	321.6
2512.766	315.6
2516.467	313.6
2520.165	297.6
2523.859	304.6
2527.551	306.6
2531.239	291.6
2534.923	277.6
2538.605	287.6
2542.283	282.6
2545.958	276.6
2549.63	275.6
2553.299	271.6
2556.964	282.6
2560.626	268.6
2564.285	257.6
2567.941	256.6
2571.594	267.6
2575.243	257.6
2578.89	257.6
2582.533	244.6
2586.173	243.6
2589.809	234.6
2593.443	243.6
2597.073	234.6
2600.701	230.6
2604.325	231.6
2607.946	232.6
2611.564	233.6
2615.178	225.6
2618.79	222.6
2622.398	222.6
2626.004	225.6
2629.606	221.6
2633.205	208.6
2636.801	215.6
2640.394	211.6
2643.983	214.6
2647.57	219.6
2651.153	217.6
2654.734	202.6
2658.311	201.6
2661.885	202.6
2665.456	197.6
2669.025	196.6
2672.589	199.6
2676.151	198.6
2679.71	191.6
2683.266	182.6
2686.819	189.6
2690.368	182.6
2693.915	176.6
2697.458	176.6
2700.999	177.6
2704.536	168.6
2708.071	167.6
2711.602	160.6
2715.13	162.6
2718.656	165.6
2722.178	160.6
2725.697	140.6
2729.214	137.6
2732.727	155.6
2736.237	150.6
2739.744	143.6
2743.249	143.6
2746.75	155.6
2750.248	142.6
2753.743	141.6
2757.236	132.6
2760.725	129.6
2764.211	127.6
2767.695	129.6
2771.175	124.6
2774.652	121.6
2778.127	119.6
2781.598	119.6
2785.067	126.6
2788.532	123.6
2791.995	124.6
2795.455	128.6
2798.911	126.6
2802.365	122.6
2805.816	135.6
2809.264	125.6
2812.709	136.6
2816.151	124.6
2819.59	138.6
2823.026	129.6
2826.46	129.6
2829.89	135.6
2833.318	122.6
2836.742	135.6
2840.164	137.6
2843.583	128.6
2846.999	138.6
2850.412	128.6
2853.822	143.6
2857.229	137.6
2860.634	135.6
2864.035	137.6
2867.434	147.6
2870.83	144.6
2874.223	163.6
2877.613	164.6
2881	165.6
2884.385	169.6
2887.766	160.6
2891.145	156.6
2894.521	172.6
2897.894	178.6
2901.264	166.6
2904.631	183.6
2907.996	170.6
2911.358	160.6
2914.717	175.6
2918.073	182.6
2921.426	190.6
2924.777	200.6
2928.124	198.6
2931.469	200.6
2934.811	199.6
2938.15	208.6
2941.487	210.6
2944.821	201.6
2948.152	206.6
2951.48	208.6
2954.805	214.6
2958.128	208.6
2961.447	206.6
2964.765	205.6
2968.079	203.6
2971.39	205.6
2974.699	210.6
2978.005	210.6
2981.308	214.6
2984.609	210.6
2987.907	209.6
2991.202	220.6
2994.494	211.6
2997.784	218.6
3001.07	227.6
3004.355	227.6
3007.636	234.6
3010.915	230.6
3014.191	243.6
3017.464	241.6
3020.734	238.6
3024.002	233.6
3027.267	248.6
3030.53	256.6
3033.789	260.6
3037.046	272.6
3040.301	260.6
3043.552	291.6
3046.801	286.6
3050.048	291.6
3053.291	301.6
3056.532	313.6
3059.771	335.6
3063.006	341.6
3066.239	346.6
3069.469	348.6
3072.697	356.6
3075.922	379.6
3079.144	386.6
3082.364	398.6
3085.581	411.6
3088.795	407.6
3092.007	422.6
3095.216	436.6
3098.423	434.6
3101.627	451.6
3104.828	470.6
3108.026	464.6
3111.222	480.6
3114.416	486.6
3117.607	505.6
3120.795	511.6
3123.98	510.6
3127.163	530.6
3130.344	554.6
3133.521	550.6
3136.696	568.6
3139.869	581.6
3143.039	589.6
3146.206	594.6
3149.371	609.6
3152.533	605.6
3155.693	624.6
3158.85	624.6
3162.005	632.6
3165.157	629.6
3168.306	634.6
3171.453	627.6
3174.597	634.6
3177.739	656.6
3180.878	649.6
3184.014	644.6
3187.149	647.6
3190.28	655.6
3193.409	639.6
3196.536	649.6
3199.659	656.6
3202.781	662.6
3205.9	652.6
3209.016	658.6
3212.13	651.6
3215.241	654.6
3218.35	651.6
3221.456	644.6
3224.56	637.6
3227.661	635.6
3230.76	624.6
3233.856	605.6
3236.95	596.6
3240.041	601.6
3243.13	582.6
3246.216	570.6
3249.3	568.6
3252.382	561.6
3255.46	560.6
3258.537	549.6
3261.611	548.6
3264.682	535.6
3267.751	531.6
3270.818	544.6
3273.882	534.6
3276.943	536.6
3280.002	533.6
3283.059	529.6
3286.113	517.6
3289.165	517.6
3292.214	508.6
3295.261	501.6
3298.306	487.6
3301.348	476.6
3304.387	488.6
3307.425	482.6
3310.459	472.6
3313.492	464.6
3316.521	450.6
3319.549	454.6
3322.574	452.6
3325.597	454.6
3328.617	452.6
3331.635	452.6
3334.65	440.6
3337.663	449.6
3340.674	443.6
3343.682	444.6
3346.688	440.6
3349.691	444.6
3352.692	438.6
3355.691	436.6
3358.687	426.6
3361.681	429.6
3364.673	420.6
3367.662	416.6
3370.649	403.6
3373.633	405.6
3376.615	393.6
3379.595	390.6
3382.572	396.6
3385.547	381.6
3388.52	387.6
3391.49	360.6
3394.458	358.6
3397.424	354.6
3400.387	354.6
3403.348	350.6
3406.307	331.6
3409.263	341.6
3412.217	334.6
3415.168	331.6
3418.118	323.6
3421.065	316.6
3424.009	318.6
3426.951	321.6
3429.891	300.6
3432.829	297.6
3435.764	282.6
3438.697	284.6
3441.628	265.6
3444.557	273.6
3447.483	255.6
3450.407	243.6
3453.328	239.6
3456.247	230.6
3459.164	221.6
3462.079	205.6
3464.991	199.6
3467.902	188.6
3470.809	189.6
3473.715	168.6
3476.618	169.6
3479.519	162.6
3482.418	157.6
3485.315	142.6
3488.209	136.6
3491.101	136.6
3493.99	138.6
3496.878	129.6
3499.763	111.6
3502.646	109.6
3505.527	100.6
3508.405	96.6
3511.281	93.6
3514.155	85.6
3517.027	83.6
3519.897	73.6
3522.764	59.6
3525.629	57.6
3528.492	51.6
3531.352	44.6
3534.211	36.6
3537.067	29.6
3539.921	33.6
3542.773	28.6
3545.622	16.6
3548.469	4.6
3551.315	13.6
3554.157	6.6
3556.998	-0.4
3559.837	-3.4
3562.673	-10.4
3565.507	-7.4
3568.339	-14.4
3571.169	-25.4
3573.996	-21.4
3576.822	-24.4
3579.645	-27.4
3582.466	-27.4
3585.285	-28.4
3588.101	-23.4
3590.916	-42.4
3593.728	-48.4
3596.538	-49.4
3599.346	-51.4
3602.152	-49.4
3604.956	-51.4
3607.757	-44.4
3610.556	-54.4
3613.354	-52.4
3616.149	-63.4
3618.942	-69.4
3621.732	-71.4
3624.521	-68.4
3627.307	-66.4
3630.092	-62.4
3632.874	-66.4
3635.654	-79.4
3638.432	-73.4
3641.208	-76.4
3643.982	-79.4
3646.753	-79.4
3649.523	-83.4
3652.29	-80.4
3655.055	-82.4
3657.818	-87.4
3660.579	-85.4
3663.338	-89.4
3666.095	-93.4
3668.849	-94.4
3671.602	-92.4
3674.352	-91.4
3677.101	-96.4
3679.847	-98.4
3682.591	-96.4
3685.333	-98.4
3688.073	-97.4
3690.811	-98.4
3693.547	-104.4
3696.281	-105.4
3699.013	-103.4
3701.742	-106.4
3704.47	-104.4
3707.195	-104.4
3709.919	-106.4
3712.64	-109.4
3715.359	-110.4
3718.076	-106.4
3720.792	-107.4
3723.505	-109.4
3726.216	-109.4
3728.925	-114.4
3731.632	-108.4
3734.336	-119.4
3737.039	-109.4
3739.74	-118.4
3742.439	-119.4
3745.136	-107.4
3747.83	-121.4
3750.523	-119.4
3753.213	-119.4
3755.902	-115.4
3758.589	-118.4
3761.273	-113.4
3763.956	-107.4
3766.636	-116.4
3769.315	-111.4
3771.991	-112.4
3774.665	-117.4
3777.338	-107.4
3780.008	-111.4
3782.677	-116.4
3785.343	-113.4
3788.007	-118.4
3790.67	-121.4
3793.33	-119.4
3795.989	-118.4
3798.645	-109.4
3801.299	-117.4
3803.952	-121.4
3806.602	-116.4
3809.251	-122.4
3811.897	-124.4
3814.542	-125.4
3817.184	-114.4
3819.825	-115.4
3822.463	-119.4
3825.1	-113.4
3827.735	-120.4
3830.367	-120.4
3832.998	-122.4
3835.627	-121.4
3838.253	-116.4
3840.878	-119.4
3843.501	-110.4
3846.122	-114.4
3848.741	-126.4
3851.358	-117.4
3853.973	-121.4
3856.586	-120.4
3859.197	-124.4
3861.806	-118.4
3864.414	-121.4
3867.019	-112.4
3869.622	-118.4
3872.224	-112.4
3874.823	-111.4
3877.421	-105.4
3880.016	-91.4
3882.61	-76.4
3885.202	-73.4
3887.792	-82.4
3890.38	-101.4
3892.966	-117.4
3895.55	-113.4
3898.132	-118.4
3900.713	-120.4
3903.291	-122.4
3905.868	-123.4
3908.442	-117.4
3911.015	-129.4
3913.586	-122.4
3916.155	-125.4
3918.722	-124.4
3921.287	-123.4
3923.85	-122.4
3926.411	-126.4
3928.971	-120.4
3931.528	-127.4
3934.084	-121.4
3936.638	-118.4
3939.19	-126.4
3941.74	-125.4
3944.288	-118.4
3946.834	-120.4
3949.378	-120.4
3951.921	-120.4
3954.462	-131.4
3957	-125.4
3959.537	-120.4
3962.072	-124.4
3964.606	-124.4
3967.137	-123.4
3969.667	-120.4
3972.194	-124.4
3974.72	-124.4
3977.244	-124.4
3979.766	-121.4
3982.286	-119.4
3984.805	-118.4
3987.321	-121.4
3989.836	-113.4
3992.349	-120.4
3994.86	-121.4
3997.369	-126.4
3999.877	-121.4
4002.382	-115.4
4004.886	-123.4
4007.388	-120.4
4009.888	-111.4
4012.386	-119.4
4014.883	-123.4
4017.377	-123.4
4019.87	-121.4
4022.361	-124.4
4024.85	-120.4
4027.338	-121.4
4029.823	-114.4
4032.307	-115.4
4034.789	-118.4
4037.269	-121.4
4039.747	-121.4
4042.224	-121.4
4044.699	-119.4
4047.172	-122.4
4049.643	-114.4
4052.112	-116.4
4054.58	-123.4
4057.046	-123.4
4059.51	-122.4
4061.972	-119.4
4064.432	-118.4
4066.891	-118.4
4069.348	-119.4
4071.803	-122.4
4074.256	-122.4
4076.708	-121.4
4079.158	-121.4
4081.606	-120.4
4084.052	-119.4
4086.497	-121.4
4088.939	-109.4
4091.38	-120.4
4093.819	-124.4
4096.257	-131.4
4098.693	-123.4
4101.127	-123.4
4103.559	-120.4
4105.989	-9.4
4108.418	-10.4
4110.845	-16.4
4113.27	-19.4
4115.694	-16.4
4118.115	-14.4
4120.535	-127.4
4122.954	-123.4
4125.37	-114.4
4127.785	-119.4
4130.198	-116.4
4132.609	-119.4
4135.019	-127.4
4137.427	-131.4
4139.833	-129.4
4142.237	-129.4
