Data from 2018-2-8_conc=2_n=5_RamanShift_04.txt Node
Date: Mon Mar 12 14:11:28 IST 2018
User: aro
Spectrometer: QEPB0276
Trigger mode: 0
Integration Time (sec): 3.000000E1
Scans to average: 1
Electric dark correction enabled: true
Nonlinearity correction enabled: false
Boxcar width: 0
XAxis mode: Raman Shifts
Number of Pixels in Spectrum: 1044
>>>>>Begin Spectral Data<<<<<
160.701	10.5
166.742	38.5
172.777	125.5
178.805	396.5
184.826	1118.5
190.841	2431.5
196.849	4030.5
202.85	5326.5
208.845	5836.5
214.833	5842.5
220.815	5747.5
226.789	5757.5
232.758	5744.5
238.719	5727.5
244.674	5690.5
250.623	5622.5
256.565	5549.5
262.5	5475.5
268.429	5380.5
274.351	5344.5
280.267	5288.5
286.176	5229.5
292.079	5212.5
297.975	5180.5
303.865	5146.5
309.748	5135.5
315.625	5087.5
321.495	5096.5
327.359	5088.5
333.217	5098.5
339.068	5146.5
344.912	5123.5
350.751	5138.5
356.583	5117.5
362.408	5108.5
368.227	5120.5
374.04	5126.5
379.847	5164.5
385.647	5156.5
391.44	5208.5
397.228	5222.5
403.009	5239.5
408.784	5265.5
414.553	5281.5
420.315	5270.5
426.071	5280.5
431.821	5262.5
437.565	5274.5
443.302	5272.5
449.033	5263.5
454.758	5224.5
460.477	5223.5
466.189	5178.5
471.896	5147.5
477.596	5129.5
483.29	5096.5
488.978	5124.5
494.66	5078.5
500.335	5026.5
506.005	4925.5
511.668	4813.5
517.325	4672.5
522.977	4572.5
528.622	4496.5
534.261	4427.5
539.894	4421.5
545.521	4355.5
551.141	4393.5
556.756	4351.5
562.365	4325.5
567.968	4294.5
573.565	4275.5
579.155	4236.5
584.74	4227.5
590.319	4210.5
595.892	4194.5
601.459	4197.5
607.02	4170.5
612.575	4114.5
618.124	4087.5
623.667	4054.5
629.204	4062.5
634.735	4003.5
640.261	3993.5
645.781	3959.5
651.294	3939.5
656.802	3937.5
662.304	3975.5
667.8	3914.5
673.29	3922.5
678.775	3918.5
684.254	3897.5
689.726	3890.5
695.193	3846.5
700.655	3840.5
706.11	3846.5
711.56	3782.5
717.004	3778.5
722.442	3775.5
727.874	3754.5
733.301	3777.5
738.722	3719.5
744.137	3697.5
749.547	3707.5
754.951	3695.5
760.349	3720.5
765.741	3690.5
771.128	3698.5
776.509	3728.5
781.885	3772.5
787.254	3749.5
792.618	3731.5
797.977	3717.5
803.33	3683.5
808.677	3672.5
814.019	3622.5
819.355	3614.5
824.686	3602.5
830.011	3564.5
835.33	3590.5
840.644	3569.5
845.952	3544.5
851.255	3569.5
856.552	3551.5
861.844	3539.5
867.13	3541.5
872.41	3501.5
877.686	3500.5
882.955	3459.5
888.219	3425.5
893.478	3415.5
898.731	3344.5
903.979	3329.5
909.221	3271.5
914.458	3276.5
919.69	3266.5
924.916	3256.5
930.136	3270.5
935.351	3272.5
940.561	3291.5
945.766	3257.5
950.965	3276.5
956.158	3256.5
961.347	3216.5
966.529	3163.5
971.707	3114.5
976.879	3057.5
982.046	3049.5
987.208	3044.5
992.364	3038.5
997.515	3046.5
1002.66	3077.5
1007.801	3111.5
1012.936	3123.5
1018.066	3142.5
1023.19	3131.5
1028.309	3132.5
1033.423	3135.5
1038.532	3112.5
1043.636	3101.5
1048.734	3051.5
1053.827	2999.5
1058.915	2983.5
1063.998	2964.5
1069.075	2947.5
1074.147	2948.5
1079.214	2981.5
1084.276	2986.5
1089.333	3004.5
1094.385	2991.5
1099.431	2972.5
1104.472	3004.5
1109.509	2978.5
1114.54	2939.5
1119.565	2898.5
1124.586	2868.5
1129.602	2825.5
1134.613	2811.5
1139.618	2777.5
1144.619	2790.5
1149.614	2777.5
1154.604	2792.5
1159.589	2815.5
1164.57	2801.5
1169.545	2808.5
1174.515	2806.5
1179.48	2774.5
1184.44	2777.5
1189.395	2765.5
1194.345	2735.5
1199.29	2721.5
1204.23	2696.5
1209.165	2736.5
1214.095	2730.5
1219.021	2742.5
1223.941	2742.5
1228.856	2769.5
1233.766	2747.5
1238.672	2793.5
1243.572	2759.5
1248.467	2774.5
1253.358	2737.5
1258.244	2699.5
1263.124	2651.5
1268	2581.5
1272.871	2562.5
1277.737	2547.5
1282.599	2555.5
1287.455	2549.5
1292.306	2530.5
1297.153	2569.5
1301.995	2556.5
1306.832	2586.5
1311.664	2595.5
1316.491	2593.5
1321.314	2590.5
1326.132	2566.5
1330.945	2531.5
1335.753	2497.5
1340.556	2459.5
1345.354	2432.5
1350.148	2373.5
1354.937	2371.5
1359.722	2324.5
1364.501	2295.5
1369.276	2222.5
1374.046	2199.5
1378.811	2163.5
1383.572	2163.5
1388.327	2162.5
1393.079	2177.5
1397.825	2184.5
1402.567	2174.5
1407.304	2144.5
1412.036	2173.5
1416.764	2164.5
1421.487	2192.5
1426.205	2182.5
1430.919	2190.5
1435.628	2214.5
1440.333	2224.5
1445.032	2240.5
1449.727	2273.5
1454.418	2266.5
1459.104	2271.5
1463.785	2223.5
1468.462	2194.5
1473.134	2127.5
1477.802	2108.5
1482.465	2067.5
1487.123	2003.5
1491.777	1987.5
1496.426	1970.5
1501.071	1933.5
1505.711	1934.5
1510.347	1936.5
1514.978	1937.5
1519.604	1912.5
1524.226	1921.5
1528.844	1898.5
1533.457	1924.5
1538.065	1906.5
1542.669	1909.5
1547.269	1875.5
1551.864	1884.5
1556.454	1891.5
1561.041	1911.5
1565.622	1919.5
1570.199	1930.5
1574.772	1954.5
1579.34	1968.5
1583.904	2008.5
1588.464	2045.5
1593.019	2004.5
1597.569	2025.5
1602.115	2009.5
1606.657	2019.5
1611.195	2017.5
1615.728	2005.5
1620.256	2003.5
1624.78	2012.5
1629.3	1999.5
1633.816	2011.5
1638.327	2017.5
1642.834	2026.5
1647.336	2015.5
1651.834	2039.5
1656.328	2040.5
1660.817	2050.5
1665.302	2032.5
1669.783	1955.5
1674.259	1928.5
1678.732	1885.5
1683.199	1824.5
1687.663	1775.5
1692.122	1711.5
1696.577	1645.5
1701.028	1573.5
1705.474	1490.5
1709.917	1462.5
1714.355	1437.5
1718.788	1425.5
1723.218	1432.5
1727.643	1436.5
1732.064	1412.5
1736.481	1402.5
1740.893	1367.5
1745.301	1353.5
1749.705	1325.5
1754.105	1323.5
1758.501	1274.5
1762.893	1265.5
1767.28	1259.5
1771.663	1244.5
1776.042	1247.5
1780.417	1227.5
1784.787	1185.5
1789.154	1189.5
1793.516	1164.5
1797.874	1148.5
1802.228	1130.5
1806.578	1131.5
1810.924	1120.5
1815.266	1102.5
1819.603	1104.5
1823.937	1099.5
1828.266	1112.5
1832.591	1112.5
1836.913	1110.5
1841.23	1112.5
1845.543	1118.5
1849.852	1111.5
1854.156	1089.5
1858.457	1099.5
1862.754	1104.5
1867.047	1106.5
1871.335	1118.5
1875.62	1101.5
1879.9	1100.5
1884.177	1100.5
1888.449	1082.5
1892.718	1056.5
1896.982	1061.5
1901.243	1043.5
1905.499	1034.5
1909.752	1010.5
1914	996.5
1918.245	989.5
1922.485	969.5
1926.722	966.5
1930.954	962.5
1935.183	943.5
1939.408	953.5
1943.628	938.5
1947.845	927.5
1952.058	920.5
1956.267	912.5
1960.472	908.5
1964.673	895.5
1968.87	892.5
1973.063	885.5
1977.252	868.5
1981.438	887.5
1985.619	897.5
1989.797	887.5
1993.971	898.5
1998.14	899.5
2002.306	904.5
2006.469	896.5
2010.627	902.5
2014.781	915.5
2018.932	898.5
2023.078	904.5
2027.221	890.5
2031.36	900.5
2035.495	879.5
2039.627	861.5
2043.754	840.5
2047.878	836.5
2051.998	833.5
2056.114	832.5
2060.226	833.5
2064.334	825.5
2068.439	809.5
2072.54	819.5
2076.637	824.5
2080.73	816.5
2084.82	805.5
2088.906	823.5
2092.988	792.5
2097.066	783.5
2101.14	774.5
2105.211	766.5
2109.278	756.5
2113.342	757.5
2117.401	729.5
2121.457	733.5
2125.509	735.5
2129.558	736.5
2133.602	730.5
2137.643	731.5
2141.681	730.5
2145.714	729.5
2149.744	725.5
2153.77	733.5
2157.793	722.5
2161.812	707.5
2165.827	706.5
2169.838	716.5
2173.846	698.5
2177.851	679.5
2181.851	681.5
2185.848	671.5
2189.841	670.5
2193.831	659.5
2197.817	655.5
2201.799	656.5
2205.778	658.5
2209.753	649.5
2213.725	654.5
2217.693	640.5
2221.657	652.5
2225.618	650.5
2229.575	647.5
2233.529	634.5
2237.479	631.5
2241.425	617.5
2245.368	619.5
2249.307	600.5
2253.243	590.5
2257.175	575.5
2261.104	573.5
2265.029	568.5
2268.95	568.5
2272.868	564.5
2276.783	544.5
2280.694	550.5
2284.601	544.5
2288.505	529.5
2292.405	527.5
2296.302	535.5
2300.195	521.5
2304.085	506.5
2307.971	503.5
2311.854	497.5
2315.734	480.5
2319.609	480.5
2323.482	480.5
2327.351	472.5
2331.216	486.5
2335.078	497.5
2338.937	479.5
2342.792	464.5
2346.643	463.5
2350.492	465.5
2354.336	468.5
2358.178	469.5
2362.015	466.5
2365.85	484.5
2369.681	478.5
2373.508	472.5
2377.333	468.5
2381.153	472.5
2384.971	468.5
2388.785	466.5
2392.595	462.5
2396.402	448.5
2400.206	458.5
2404.007	450.5
2407.804	445.5
2411.597	457.5
2415.388	454.5
2419.174	439.5
2422.958	444.5
2426.738	442.5
2430.515	437.5
2434.289	437.5
2438.059	421.5
2441.825	431.5
2445.589	432.5
2449.349	417.5
2453.106	415.5
2456.859	410.5
2460.61	403.5
2464.356	398.5
2468.1	386.5
2471.84	384.5
2475.577	378.5
2479.311	376.5
2483.041	370.5
2486.768	381.5
2490.492	366.5
2494.213	371.5
2497.93	376.5
2501.644	369.5
2505.355	357.5
2509.062	361.5
2512.766	351.5
2516.467	343.5
2520.165	349.5
2523.859	348.5
2527.551	343.5
2531.239	327.5
2534.923	321.5
2538.605	315.5
2542.283	313.5
2545.958	324.5
2549.63	313.5
2553.299	317.5
2556.964	310.5
2560.626	309.5
2564.285	300.5
2567.941	298.5
2571.594	300.5
2575.243	294.5
2578.89	284.5
2582.533	284.5
2586.173	284.5
2589.809	274.5
2593.443	276.5
2597.073	263.5
2600.701	258.5
2604.325	261.5
2607.946	258.5
2611.564	259.5
2615.178	264.5
2618.79	265.5
2622.398	259.5
2626.004	268.5
2629.606	250.5
2633.205	245.5
2636.801	252.5
2640.394	243.5
2643.983	250.5
2647.57	239.5
2651.153	248.5
2654.734	248.5
2658.311	235.5
2661.885	235.5
2665.456	226.5
2669.025	225.5
2672.589	221.5
2676.151	236.5
2679.71	226.5
2683.266	219.5
2686.819	223.5
2690.368	217.5
2693.915	205.5
2697.458	204.5
2700.999	204.5
2704.536	204.5
2708.071	193.5
2711.602	192.5
2715.13	200.5
2718.656	179.5
2722.178	186.5
2725.697	174.5
2729.214	174.5
2732.727	189.5
2736.237	180.5
2739.744	180.5
2743.249	178.5
2746.75	164.5
2750.248	164.5
2753.743	161.5
2757.236	151.5
2760.725	151.5
2764.211	150.5
2767.695	144.5
2771.175	145.5
2774.652	134.5
2778.127	137.5
2781.598	138.5
2785.067	143.5
2788.532	147.5
2791.995	146.5
2795.455	146.5
2798.911	134.5
2802.365	151.5
2805.816	152.5
2809.264	148.5
2812.709	154.5
2816.151	146.5
2819.59	153.5
2823.026	149.5
2826.46	147.5
2829.89	146.5
2833.318	144.5
2836.742	157.5
2840.164	155.5
2843.583	155.5
2846.999	164.5
2850.412	145.5
2853.822	152.5
2857.229	152.5
2860.634	157.5
2864.035	158.5
2867.434	168.5
2870.83	166.5
2874.223	185.5
2877.613	182.5
2881	193.5
2884.385	194.5
2887.766	190.5
2891.145	192.5
2894.521	184.5
2897.894	198.5
2901.264	202.5
2904.631	202.5
2907.996	206.5
2911.358	204.5
2914.717	202.5
2918.073	214.5
2921.426	224.5
2924.777	219.5
2928.124	228.5
2931.469	229.5
2934.811	234.5
2938.15	252.5
2941.487	244.5
2944.821	252.5
2948.152	242.5
2951.48	240.5
2954.805	261.5
2958.128	241.5
2961.447	235.5
2964.765	244.5
2968.079	236.5
2971.39	241.5
2974.699	241.5
2978.005	237.5
2981.308	249.5
2984.609	245.5
2987.907	247.5
2991.202	249.5
2994.494	244.5
2997.784	250.5
3001.07	250.5
3004.355	270.5
3007.636	265.5
3010.915	264.5
3014.191	264.5
3017.464	270.5
3020.734	269.5
3024.002	270.5
3027.267	284.5
3030.53	291.5
3033.789	297.5
3037.046	309.5
3040.301	312.5
3043.552	319.5
3046.801	324.5
3050.048	334.5
3053.291	332.5
3056.532	351.5
3059.771	371.5
3063.006	378.5
3066.239	396.5
3069.469	397.5
3072.697	419.5
3075.922	418.5
3079.144	430.5
3082.364	454.5
3085.581	468.5
3088.795	462.5
3092.007	469.5
3095.216	485.5
3098.423	488.5
3101.627	498.5
3104.828	520.5
3108.026	526.5
3111.222	541.5
3114.416	554.5
3117.607	557.5
3120.795	575.5
3123.98	577.5
3127.163	595.5
3130.344	612.5
3133.521	628.5
3136.696	653.5
3139.869	651.5
3143.039	651.5
3146.206	671.5
3149.371	673.5
3152.533	690.5
3155.693	690.5
3158.85	688.5
3162.005	703.5
3165.157	693.5
3168.306	696.5
3171.453	707.5
3174.597	707.5
3177.739	706.5
3180.878	735.5
3184.014	738.5
3187.149	737.5
3190.28	721.5
3193.409	727.5
3196.536	733.5
3199.659	748.5
3202.781	744.5
3205.9	745.5
3209.016	744.5
3212.13	738.5
3215.241	739.5
3218.35	726.5
3221.456	726.5
3224.56	706.5
3227.661	711.5
3230.76	698.5
3233.856	684.5
3236.95	674.5
3240.041	681.5
3243.13	644.5
3246.216	643.5
3249.3	639.5
3252.382	649.5
3255.46	637.5
3258.537	625.5
3261.611	615.5
3264.682	594.5
3267.751	613.5
3270.818	588.5
3273.882	603.5
3276.943	602.5
3280.002	588.5
3283.059	602.5
3286.113	587.5
3289.165	583.5
3292.214	570.5
3295.261	566.5
3298.306	552.5
3301.348	534.5
3304.387	542.5
3307.425	553.5
3310.459	537.5
3313.492	519.5
3316.521	515.5
3319.549	515.5
3322.574	511.5
3325.597	508.5
3328.617	511.5
3331.635	514.5
3334.65	502.5
3337.663	504.5
3340.674	507.5
3343.682	509.5
3346.688	491.5
3349.691	507.5
3352.692	492.5
3355.691	486.5
3358.687	493.5
3361.681	494.5
3364.673	483.5
3367.662	476.5
3370.649	463.5
3373.633	447.5
3376.615	455.5
3379.595	444.5
3382.572	443.5
3385.547	439.5
3388.52	425.5
3391.49	415.5
3394.458	404.5
3397.424	409.5
3400.387	402.5
3403.348	400.5
3406.307	382.5
3409.263	380.5
3412.217	376.5
3415.168	378.5
3418.118	371.5
3421.065	356.5
3424.009	358.5
3426.951	351.5
3429.891	350.5
3432.829	338.5
3435.764	325.5
3438.697	314.5
3441.628	302.5
3444.557	296.5
3447.483	286.5
3450.407	271.5
3453.328	272.5
3456.247	254.5
3459.164	248.5
3462.079	251.5
3464.991	235.5
3467.902	221.5
3470.809	219.5
3473.715	198.5
3476.618	194.5
3479.519	195.5
3482.418	179.5
3485.315	169.5
3488.209	148.5
3491.101	161.5
3493.99	160.5
3496.878	142.5
3499.763	138.5
3502.646	124.5
3505.527	115.5
3508.405	118.5
3511.281	103.5
3514.155	96.5
3517.027	91.5
3519.897	82.5
3522.764	74.5
3525.629	64.5
3528.492	61.5
3531.352	57.5
3534.211	44.5
3537.067	42.5
3539.921	32.5
3542.773	34.5
3545.622	22.5
3548.469	11.5
3551.315	18.5
3554.157	13.5
3556.998	3.5
3559.837	8.5
3562.673	-8.5
3565.507	-9.5
3568.339	-16.5
3571.169	-28.5
3573.996	-26.5
3576.822	-29.5
3579.645	-24.5
3582.466	-22.5
3585.285	-35.5
3588.101	-27.5
3590.916	-41.5
3593.728	-51.5
3596.538	-48.5
3599.346	-52.5
3602.152	-58.5
3604.956	-52.5
3607.757	-61.5
3610.556	-58.5
3613.354	-60.5
3616.149	-73.5
3618.942	-78.5
3621.732	-77.5
3624.521	-71.5
3627.307	-72.5
3630.092	-70.5
3632.874	-77.5
3635.654	-80.5
3638.432	-80.5
3641.208	-84.5
3643.982	-86.5
3646.753	-85.5
3649.523	-84.5
3652.29	-87.5
3655.055	-88.5
3657.818	-93.5
3660.579	-95.5
3663.338	-90.5
3666.095	-96.5
3668.849	-101.5
3671.602	-99.5
3674.352	-106.5
3677.101	-106.5
3679.847	-104.5
3682.591	-109.5
3685.333	-110.5
3688.073	-107.5
3690.811	-109.5
3693.547	-118.5
3696.281	-107.5
3699.013	-113.5
3701.742	-113.5
3704.47	-113.5
3707.195	-114.5
3709.919	-117.5
3712.64	-119.5
3715.359	-120.5
3718.076	-118.5
3720.792	-119.5
3723.505	-125.5
3726.216	-117.5
3728.925	-122.5
3731.632	-122.5
3734.336	-133.5
3737.039	-121.5
3739.74	-124.5
3742.439	-127.5
3745.136	-119.5
3747.83	-127.5
3750.523	-125.5
3753.213	-130.5
3755.902	-127.5
3758.589	-134.5
3761.273	-126.5
3763.956	-123.5
3766.636	-125.5
3769.315	-127.5
3771.991	-122.5
3774.665	-131.5
3777.338	-124.5
3780.008	-124.5
3782.677	-131.5
3785.343	-127.5
3788.007	-133.5
3790.67	-129.5
3793.33	-122.5
3795.989	-127.5
3798.645	-127.5
3801.299	-129.5
3803.952	-134.5
3806.602	-127.5
3809.251	-136.5
3811.897	-134.5
3814.542	-127.5
3817.184	-121.5
3819.825	-128.5
3822.463	-129.5
3825.1	-132.5
3827.735	-132.5
3830.367	-137.5
3832.998	-136.5
3835.627	-131.5
3838.253	-125.5
3840.878	-132.5
3843.501	-131.5
3846.122	-134.5
3848.741	-135.5
3851.358	-126.5
3853.973	-136.5
3856.586	-131.5
3859.197	-138.5
3861.806	-133.5
3864.414	-137.5
3867.019	-132.5
3869.622	-134.5
3872.224	-124.5
3874.823	-118.5
3877.421	-110.5
3880.016	-91.5
3882.61	-80.5
3885.202	-87.5
3887.792	-85.5
3890.38	-110.5
3892.966	-132.5
3895.55	-128.5
3898.132	-132.5
3900.713	-135.5
3903.291	-130.5
3905.868	-138.5
3908.442	-130.5
3911.015	-136.5
3913.586	-137.5
3916.155	-137.5
3918.722	-137.5
3921.287	-134.5
3923.85	-133.5
3926.411	-138.5
3928.971	-137.5
3931.528	-140.5
3934.084	-136.5
3936.638	-133.5
3939.19	-137.5
3941.74	-140.5
3944.288	-135.5
3946.834	-130.5
3949.378	-134.5
3951.921	-134.5
3954.462	-146.5
3957	-137.5
3959.537	-135.5
3962.072	-135.5
3964.606	-129.5
3967.137	-131.5
3969.667	-138.5
3972.194	-137.5
3974.72	-137.5
3977.244	-135.5
3979.766	-134.5
3982.286	-139.5
3984.805	-136.5
3987.321	-131.5
3989.836	-127.5
3992.349	-135.5
3994.86	-139.5
3997.369	-133.5
3999.877	-134.5
4002.382	-123.5
4004.886	-131.5
4007.388	-133.5
4009.888	-135.5
4012.386	-133.5
4014.883	-135.5
4017.377	-136.5
4019.87	-131.5
4022.361	-133.5
4024.85	-129.5
4027.338	-132.5
4029.823	-133.5
4032.307	-124.5
4034.789	-142.5
4037.269	-133.5
4039.747	-133.5
4042.224	-126.5
4044.699	-138.5
4047.172	-128.5
4049.643	-133.5
4052.112	-129.5
4054.58	-137.5
4057.046	-134.5
4059.51	-138.5
4061.972	-129.5
4064.432	-127.5
4066.891	-133.5
4069.348	-130.5
4071.803	-139.5
4074.256	-134.5
4076.708	-132.5
4079.158	-134.5
4081.606	-128.5
4084.052	-131.5
4086.497	-131.5
4088.939	-129.5
4091.38	-133.5
4093.819	-135.5
4096.257	-140.5
4098.693	-137.5
4101.127	-138.5
4103.559	-134.5
4105.989	-18.5
4108.418	-22.5
4110.845	-16.5
4113.27	-20.5
4115.694	-20.5
4118.115	-20.5
4120.535	-136.5
4122.954	-138.5
4125.37	-128.5
4127.785	-130.5
4130.198	-133.5
4132.609	-129.5
4135.019	-140.5
4137.427	-143.5
4139.833	-142.5
4142.237	-144.5
