Data from 2018-2-8_conc=3_n=6_RamanShift_05.txt Node
Date: Mon Mar 12 14:46:28 IST 2018
User: aro
Spectrometer: QEPB0276
Trigger mode: 0
Integration Time (sec): 3.000000E1
Scans to average: 1
Electric dark correction enabled: true
Nonlinearity correction enabled: false
Boxcar width: 0
XAxis mode: Raman Shifts
Number of Pixels in Spectrum: 1044
>>>>>Begin Spectral Data<<<<<
160.701	9.6
166.742	36.6
172.777	109.6
178.805	357.6
184.826	977.6
190.841	2114.6
196.849	3552.6
202.85	4690.6
208.845	5128.6
214.833	5125.6
220.815	5081.6
226.789	5043.6
232.758	5074.6
238.719	5079.6
244.674	5046.6
250.623	5002.6
256.565	4920.6
262.5	4858.6
268.429	4792.6
274.351	4744.6
280.267	4756.6
286.176	4717.6
292.079	4670.6
297.975	4658.6
303.865	4653.6
309.748	4655.6
315.625	4603.6
321.495	4604.6
327.359	4604.6
333.217	4630.6
339.068	4608.6
344.912	4604.6
350.751	4619.6
356.583	4644.6
362.408	4636.6
368.227	4668.6
374.04	4655.6
379.847	4684.6
385.647	4695.6
391.44	4699.6
397.228	4731.6
403.009	4775.6
408.784	4802.6
414.553	4806.6
420.315	4804.6
426.071	4815.6
431.821	4786.6
437.565	4819.6
443.302	4783.6
449.033	4776.6
454.758	4721.6
460.477	4727.6
466.189	4740.6
471.896	4683.6
477.596	4641.6
483.29	4651.6
488.978	4634.6
494.66	4633.6
500.335	4569.6
506.005	4439.6
511.668	4300.6
517.325	4197.6
522.977	4118.6
528.622	4044.6
534.261	3986.6
539.894	3953.6
545.521	3894.6
551.141	3888.6
556.756	3865.6
562.365	3857.6
567.968	3825.6
573.565	3791.6
579.155	3756.6
584.74	3763.6
590.319	3750.6
595.892	3755.6
601.459	3724.6
607.02	3724.6
612.575	3676.6
618.124	3659.6
623.667	3623.6
629.204	3615.6
634.735	3565.6
640.261	3533.6
645.781	3509.6
651.294	3509.6
656.802	3530.6
662.304	3502.6
667.8	3493.6
673.29	3491.6
678.775	3489.6
684.254	3445.6
689.726	3444.6
695.193	3428.6
700.655	3424.6
706.11	3411.6
711.56	3365.6
717.004	3359.6
722.442	3363.6
727.874	3316.6
733.301	3307.6
738.722	3275.6
744.137	3299.6
749.547	3292.6
754.951	3295.6
760.349	3297.6
765.741	3291.6
771.128	3277.6
776.509	3317.6
781.885	3354.6
787.254	3321.6
792.618	3327.6
797.977	3321.6
803.33	3286.6
808.677	3263.6
814.019	3269.6
819.355	3234.6
824.686	3216.6
830.011	3172.6
835.33	3203.6
840.644	3176.6
845.952	3174.6
851.255	3142.6
856.552	3162.6
861.844	3144.6
867.13	3160.6
872.41	3110.6
877.686	3086.6
882.955	3076.6
888.219	3029.6
893.478	2981.6
898.731	2967.6
903.979	2918.6
909.221	2902.6
914.458	2909.6
919.69	2875.6
924.916	2877.6
930.136	2923.6
935.351	2921.6
940.561	2945.6
945.766	2906.6
950.965	2879.6
956.158	2877.6
961.347	2852.6
966.529	2799.6
971.707	2745.6
976.879	2737.6
982.046	2688.6
987.208	2694.6
992.364	2703.6
997.515	2705.6
1002.66	2733.6
1007.801	2778.6
1012.936	2782.6
1018.066	2780.6
1023.19	2780.6
1028.309	2781.6
1033.423	2795.6
1038.532	2771.6
1043.636	2735.6
1048.734	2727.6
1053.827	2672.6
1058.915	2657.6
1063.998	2618.6
1069.075	2597.6
1074.147	2628.6
1079.214	2637.6
1084.276	2630.6
1089.333	2665.6
1094.385	2660.6
1099.431	2681.6
1104.472	2654.6
1109.509	2656.6
1114.54	2611.6
1119.565	2567.6
1124.586	2532.6
1129.602	2516.6
1134.613	2463.6
1139.618	2479.6
1144.619	2466.6
1149.614	2460.6
1154.604	2473.6
1159.589	2497.6
1164.57	2489.6
1169.545	2472.6
1174.515	2488.6
1179.48	2475.6
1184.44	2451.6
1189.395	2442.6
1194.345	2434.6
1199.29	2409.6
1204.23	2403.6
1209.165	2398.6
1214.095	2421.6
1219.021	2420.6
1223.941	2439.6
1228.856	2444.6
1233.766	2461.6
1238.672	2486.6
1243.572	2468.6
1248.467	2425.6
1253.358	2434.6
1258.244	2386.6
1263.124	2361.6
1268	2302.6
1272.871	2279.6
1277.737	2268.6
1282.599	2261.6
1287.455	2240.6
1292.306	2235.6
1297.153	2247.6
1301.995	2270.6
1306.832	2290.6
1311.664	2298.6
1316.491	2282.6
1321.314	2298.6
1326.132	2284.6
1330.945	2262.6
1335.753	2225.6
1340.556	2176.6
1345.354	2181.6
1350.148	2118.6
1354.937	2084.6
1359.722	2041.6
1364.501	2008.6
1369.276	1967.6
1374.046	1941.6
1378.811	1925.6
1383.572	1915.6
1388.327	1902.6
1393.079	1912.6
1397.825	1898.6
1402.567	1924.6
1407.304	1915.6
1412.036	1917.6
1416.764	1917.6
1421.487	1934.6
1426.205	1931.6
1430.919	1922.6
1435.628	1951.6
1440.333	1972.6
1445.032	1970.6
1449.727	1987.6
1454.418	1993.6
1459.104	1998.6
1463.785	1952.6
1468.462	1946.6
1473.134	1905.6
1477.802	1859.6
1482.465	1815.6
1487.123	1783.6
1491.777	1755.6
1496.426	1737.6
1501.071	1717.6
1505.711	1717.6
1510.347	1694.6
1514.978	1692.6
1519.604	1712.6
1524.226	1716.6
1528.844	1690.6
1533.457	1668.6
1538.065	1670.6
1542.669	1680.6
1547.269	1674.6
1551.864	1663.6
1556.454	1683.6
1561.041	1717.6
1565.622	1720.6
1570.199	1717.6
1574.772	1727.6
1579.34	1734.6
1583.904	1765.6
1588.464	1789.6
1593.019	1795.6
1597.569	1787.6
1602.115	1783.6
1606.657	1769.6
1611.195	1765.6
1615.728	1769.6
1620.256	1749.6
1624.78	1763.6
1629.3	1750.6
1633.816	1763.6
1638.327	1786.6
1642.834	1769.6
1647.336	1795.6
1651.834	1788.6
1656.328	1780.6
1660.817	1790.6
1665.302	1772.6
1669.783	1740.6
1674.259	1704.6
1678.732	1657.6
1683.199	1607.6
1687.663	1564.6
1692.122	1524.6
1696.577	1458.6
1701.028	1376.6
1705.474	1332.6
1709.917	1299.6
1714.355	1284.6
1718.788	1282.6
1723.218	1272.6
1727.643	1269.6
1732.064	1271.6
1736.481	1269.6
1740.893	1238.6
1745.301	1216.6
1749.705	1180.6
1754.105	1156.6
1758.501	1153.6
1762.893	1126.6
1767.28	1124.6
1771.663	1096.6
1776.042	1101.6
1780.417	1080.6
1784.787	1067.6
1789.154	1060.6
1793.516	1062.6
1797.874	1041.6
1802.228	1011.6
1806.578	990.6
1810.924	1009.6
1815.266	987.6
1819.603	984.6
1823.937	994.6
1828.266	978.6
1832.591	983.6
1836.913	973.6
1841.23	978.6
1845.543	984.6
1849.852	981.6
1854.156	994.6
1858.457	996.6
1862.754	977.6
1867.047	986.6
1871.335	991.6
1875.62	986.6
1879.9	998.6
1884.177	968.6
1888.449	977.6
1892.718	969.6
1896.982	942.6
1901.243	932.6
1905.499	919.6
1909.752	924.6
1914	895.6
1918.245	902.6
1922.485	878.6
1926.722	877.6
1930.954	864.6
1935.183	862.6
1939.408	857.6
1943.628	847.6
1947.845	841.6
1952.058	846.6
1956.267	825.6
1960.472	816.6
1964.673	817.6
1968.87	805.6
1973.063	807.6
1977.252	796.6
1981.438	805.6
1985.619	787.6
1989.797	789.6
1993.971	816.6
1998.14	799.6
2002.306	800.6
2006.469	807.6
2010.627	807.6
2014.781	812.6
2018.932	799.6
2023.078	805.6
2027.221	802.6
2031.36	784.6
2035.495	790.6
2039.627	759.6
2043.754	754.6
2047.878	747.6
2051.998	738.6
2056.114	747.6
2060.226	742.6
2064.334	735.6
2068.439	734.6
2072.54	738.6
2076.637	728.6
2080.73	733.6
2084.82	729.6
2088.906	728.6
2092.988	711.6
2097.066	702.6
2101.14	694.6
2105.211	689.6
2109.278	677.6
2113.342	666.6
2117.401	655.6
2121.457	656.6
2125.509	644.6
2129.558	653.6
2133.602	642.6
2137.643	655.6
2141.681	663.6
2145.714	657.6
2149.744	653.6
2153.77	644.6
2157.793	642.6
2161.812	635.6
2165.827	631.6
2169.838	627.6
2173.846	628.6
2177.851	612.6
2181.851	594.6
2185.848	597.6
2189.841	599.6
2193.831	596.6
2197.817	579.6
2201.799	567.6
2205.778	575.6
2209.753	569.6
2213.725	582.6
2217.693	581.6
2221.657	574.6
2225.618	574.6
2229.575	565.6
2233.529	564.6
2237.479	552.6
2241.425	555.6
2245.368	535.6
2249.307	540.6
2253.243	528.6
2257.175	516.6
2261.104	514.6
2265.029	502.6
2268.95	506.6
2272.868	502.6
2276.783	487.6
2280.694	488.6
2284.601	481.6
2288.505	483.6
2292.405	467.6
2296.302	461.6
2300.195	453.6
2304.085	454.6
2307.971	439.6
2311.854	436.6
2315.734	427.6
2319.609	420.6
2323.482	419.6
2327.351	438.6
2331.216	436.6
2335.078	441.6
2338.937	439.6
2342.792	418.6
2346.643	414.6
2350.492	401.6
2354.336	409.6
2358.178	408.6
2362.015	400.6
2365.85	422.6
2369.681	424.6
2373.508	418.6
2377.333	416.6
2381.153	415.6
2384.971	409.6
2388.785	418.6
2392.595	412.6
2396.402	407.6
2400.206	410.6
2404.007	398.6
2407.804	397.6
2411.597	400.6
2415.388	397.6
2419.174	395.6
2422.958	385.6
2426.738	395.6
2430.515	392.6
2434.289	384.6
2438.059	390.6
2441.825	369.6
2445.589	376.6
2449.349	366.6
2453.106	363.6
2456.859	365.6
2460.61	362.6
2464.356	355.6
2468.1	359.6
2471.84	343.6
2475.577	345.6
2479.311	326.6
2483.041	322.6
2486.768	334.6
2490.492	329.6
2494.213	348.6
2497.93	329.6
2501.644	325.6
2505.355	316.6
2509.062	312.6
2512.766	318.6
2516.467	310.6
2520.165	313.6
2523.859	312.6
2527.551	306.6
2531.239	287.6
2534.923	291.6
2538.605	293.6
2542.283	281.6
2545.958	287.6
2549.63	289.6
2553.299	277.6
2556.964	280.6
2560.626	274.6
2564.285	266.6
2567.941	268.6
2571.594	268.6
2575.243	258.6
2578.89	247.6
2582.533	251.6
2586.173	250.6
2589.809	243.6
2593.443	247.6
2597.073	244.6
2600.701	234.6
2604.325	230.6
2607.946	242.6
2611.564	227.6
2615.178	238.6
2618.79	229.6
2622.398	235.6
2626.004	221.6
2629.606	216.6
2633.205	225.6
2636.801	217.6
2640.394	210.6
2643.983	210.6
2647.57	231.6
2651.153	209.6
2654.734	210.6
2658.311	204.6
2661.885	199.6
2665.456	210.6
2669.025	207.6
2672.589	206.6
2676.151	202.6
2679.71	191.6
2683.266	193.6
2686.819	194.6
2690.368	185.6
2693.915	181.6
2697.458	185.6
2700.999	183.6
2704.536	175.6
2708.071	173.6
2711.602	165.6
2715.13	166.6
2718.656	165.6
2722.178	156.6
2725.697	160.6
2729.214	154.6
2732.727	166.6
2736.237	158.6
2739.744	156.6
2743.249	144.6
2746.75	148.6
2750.248	140.6
2753.743	142.6
2757.236	139.6
2760.725	139.6
2764.211	134.6
2767.695	125.6
2771.175	121.6
2774.652	131.6
2778.127	121.6
2781.598	121.6
2785.067	134.6
2788.532	130.6
2791.995	132.6
2795.455	133.6
2798.911	129.6
2802.365	128.6
2805.816	132.6
2809.264	125.6
2812.709	140.6
2816.151	139.6
2819.59	129.6
2823.026	124.6
2826.46	124.6
2829.89	125.6
2833.318	117.6
2836.742	136.6
2840.164	128.6
2843.583	133.6
2846.999	137.6
2850.412	125.6
2853.822	135.6
2857.229	133.6
2860.634	132.6
2864.035	142.6
2867.434	151.6
2870.83	148.6
2874.223	159.6
2877.613	155.6
2881	176.6
2884.385	160.6
2887.766	153.6
2891.145	157.6
2894.521	161.6
2897.894	167.6
2901.264	171.6
2904.631	167.6
2907.996	166.6
2911.358	160.6
2914.717	171.6
2918.073	176.6
2921.426	186.6
2924.777	186.6
2928.124	189.6
2931.469	192.6
2934.811	193.6
2938.15	199.6
2941.487	203.6
2944.821	203.6
2948.152	201.6
2951.48	214.6
2954.805	216.6
2958.128	199.6
2961.447	199.6
2964.765	196.6
2968.079	196.6
2971.39	194.6
2974.699	204.6
2978.005	201.6
2981.308	204.6
2984.609	210.6
2987.907	202.6
2991.202	208.6
2994.494	214.6
2997.784	204.6
3001.07	221.6
3004.355	223.6
3007.636	219.6
3010.915	224.6
3014.191	229.6
3017.464	231.6
3020.734	224.6
3024.002	224.6
3027.267	234.6
3030.53	243.6
3033.789	243.6
3037.046	257.6
3040.301	238.6
3043.552	267.6
3046.801	278.6
3050.048	278.6
3053.291	284.6
3056.532	297.6
3059.771	312.6
3063.006	319.6
3066.239	321.6
3069.469	355.6
3072.697	346.6
3075.922	360.6
3079.144	362.6
3082.364	383.6
3085.581	387.6
3088.795	380.6
3092.007	388.6
3095.216	407.6
3098.423	409.6
3101.627	420.6
3104.828	436.6
3108.026	442.6
3111.222	451.6
3114.416	452.6
3117.607	465.6
3120.795	479.6
3123.98	479.6
3127.163	501.6
3130.344	523.6
3133.521	516.6
3136.696	537.6
3139.869	545.6
3143.039	542.6
3146.206	553.6
3149.371	570.6
3152.533	582.6
3155.693	577.6
3158.85	585.6
3162.005	603.6
3165.157	591.6
3168.306	587.6
3171.453	585.6
3174.597	612.6
3177.739	600.6
3180.878	607.6
3184.014	603.6
3187.149	623.6
3190.28	608.6
3193.409	611.6
3196.536	619.6
3199.659	604.6
3202.781	614.6
3205.9	624.6
3209.016	623.6
3212.13	621.6
3215.241	625.6
3218.35	614.6
3221.456	594.6
3224.56	609.6
3227.661	588.6
3230.76	581.6
3233.856	577.6
3236.95	565.6
3240.041	559.6
3243.13	548.6
3246.216	543.6
3249.3	529.6
3252.382	528.6
3255.46	516.6
3258.537	513.6
3261.611	517.6
3264.682	505.6
3267.751	512.6
3270.818	510.6
3273.882	496.6
3276.943	506.6
3280.002	496.6
3283.059	482.6
3286.113	492.6
3289.165	491.6
3292.214	470.6
3295.261	466.6
3298.306	463.6
3301.348	456.6
3304.387	453.6
3307.425	446.6
3310.459	444.6
3313.492	444.6
3316.521	434.6
3319.549	435.6
3322.574	430.6
3325.597	429.6
3328.617	421.6
3331.635	424.6
3334.65	413.6
3337.663	420.6
3340.674	407.6
3343.682	418.6
3346.688	411.6
3349.691	407.6
3352.692	416.6
3355.691	416.6
3358.687	403.6
3361.681	407.6
3364.673	393.6
3367.662	396.6
3370.649	382.6
3373.633	377.6
3376.615	374.6
3379.595	364.6
3382.572	372.6
3385.547	361.6
3388.52	358.6
3391.49	343.6
3394.458	342.6
3397.424	330.6
3400.387	331.6
3403.348	320.6
3406.307	318.6
3409.263	320.6
3412.217	312.6
3415.168	311.6
3418.118	298.6
3421.065	301.6
3424.009	290.6
3426.951	291.6
3429.891	275.6
3432.829	285.6
3435.764	280.6
3438.697	263.6
3441.628	251.6
3444.557	246.6
3447.483	231.6
3450.407	220.6
3453.328	223.6
3456.247	213.6
3459.164	201.6
3462.079	197.6
3464.991	186.6
3467.902	181.6
3470.809	176.6
3473.715	157.6
3476.618	155.6
3479.519	153.6
3482.418	145.6
3485.315	130.6
3488.209	124.6
3491.101	119.6
3493.99	121.6
3496.878	106.6
3499.763	105.6
3502.646	98.6
3505.527	95.6
3508.405	95.6
3511.281	81.6
3514.155	80.6
3517.027	67.6
3519.897	62.6
3522.764	49.6
3525.629	43.6
3528.492	44.6
3531.352	39.6
3534.211	29.6
3537.067	21.6
3539.921	28.6
3542.773	14.6
3545.622	6.6
3548.469	1.6
3551.315	2.6
3554.157	3.6
3556.998	-11.4
3559.837	-8.4
3562.673	-9.4
3565.507	-8.4
3568.339	-17.4
3571.169	-29.4
3573.996	-24.4
3576.822	-23.4
3579.645	-27.4
3582.466	-30.4
3585.285	-43.4
3588.101	-36.4
3590.916	-43.4
3593.728	-50.4
3596.538	-53.4
3599.346	-49.4
3602.152	-51.4
3604.956	-53.4
3607.757	-48.4
3610.556	-57.4
3613.354	-58.4
3616.149	-67.4
3618.942	-71.4
3621.732	-71.4
3624.521	-71.4
3627.307	-67.4
3630.092	-75.4
3632.874	-65.4
3635.654	-78.4
3638.432	-75.4
3641.208	-75.4
3643.982	-87.4
3646.753	-81.4
3649.523	-82.4
3652.29	-77.4
3655.055	-80.4
3657.818	-89.4
3660.579	-85.4
3663.338	-91.4
3666.095	-91.4
3668.849	-96.4
3671.602	-93.4
3674.352	-91.4
3677.101	-93.4
3679.847	-98.4
3682.591	-99.4
3685.333	-95.4
3688.073	-98.4
3690.811	-97.4
3693.547	-101.4
3696.281	-101.4
3699.013	-100.4
3701.742	-104.4
3704.47	-108.4
3707.195	-102.4
3709.919	-107.4
3712.64	-101.4
3715.359	-112.4
3718.076	-104.4
3720.792	-107.4
3723.505	-109.4
3726.216	-107.4
3728.925	-109.4
3731.632	-109.4
3734.336	-117.4
3737.039	-111.4
3739.74	-112.4
3742.439	-116.4
3745.136	-110.4
3747.83	-114.4
3750.523	-116.4
3753.213	-125.4
3755.902	-115.4
3758.589	-117.4
3761.273	-114.4
3763.956	-107.4
3766.636	-112.4
3769.315	-108.4
3771.991	-112.4
3774.665	-122.4
3777.338	-112.4
3780.008	-114.4
3782.677	-122.4
3785.343	-116.4
3788.007	-119.4
3790.67	-118.4
3793.33	-118.4
3795.989	-116.4
3798.645	-112.4
3801.299	-117.4
3803.952	-122.4
3806.602	-113.4
3809.251	-126.4
3811.897	-125.4
3814.542	-123.4
3817.184	-115.4
3819.825	-119.4
3822.463	-117.4
3825.1	-114.4
3827.735	-118.4
3830.367	-118.4
3832.998	-119.4
3835.627	-113.4
3838.253	-112.4
3840.878	-120.4
3843.501	-116.4
3846.122	-119.4
3848.741	-123.4
3851.358	-116.4
3853.973	-123.4
3856.586	-120.4
3859.197	-125.4
3861.806	-119.4
3864.414	-125.4
3867.019	-124.4
3869.622	-119.4
3872.224	-110.4
3874.823	-100.4
3877.421	-99.4
3880.016	-81.4
3882.61	-67.4
3885.202	-73.4
3887.792	-79.4
3890.38	-95.4
3892.966	-114.4
3895.55	-120.4
3898.132	-119.4
3900.713	-117.4
3903.291	-129.4
3905.868	-123.4
3908.442	-118.4
3911.015	-124.4
3913.586	-120.4
3916.155	-126.4
3918.722	-122.4
3921.287	-119.4
3923.85	-125.4
3926.411	-124.4
3928.971	-126.4
3931.528	-118.4
3934.084	-121.4
3936.638	-114.4
3939.19	-123.4
3941.74	-128.4
3944.288	-126.4
3946.834	-122.4
3949.378	-121.4
3951.921	-125.4
3954.462	-128.4
3957	-123.4
3959.537	-119.4
3962.072	-124.4
3964.606	-116.4
3967.137	-122.4
3969.667	-127.4
3972.194	-125.4
3974.72	-123.4
3977.244	-119.4
3979.766	-119.4
3982.286	-121.4
3984.805	-122.4
3987.321	-121.4
3989.836	-118.4
3992.349	-122.4
3994.86	-122.4
3997.369	-117.4
3999.877	-122.4
4002.382	-113.4
4004.886	-123.4
4007.388	-119.4
4009.888	-119.4
4012.386	-119.4
4014.883	-122.4
4017.377	-118.4
4019.87	-115.4
4022.361	-125.4
4024.85	-121.4
4027.338	-118.4
4029.823	-120.4
4032.307	-118.4
4034.789	-120.4
4037.269	-120.4
4039.747	-117.4
4042.224	-116.4
4044.699	-122.4
4047.172	-118.4
4049.643	-115.4
4052.112	-122.4
4054.58	-114.4
4057.046	-119.4
4059.51	-120.4
4061.972	-116.4
4064.432	-117.4
4066.891	-124.4
4069.348	-117.4
4071.803	-130.4
4074.256	-120.4
4076.708	-116.4
4079.158	-116.4
4081.606	-112.4
4084.052	-124.4
4086.497	-122.4
4088.939	-114.4
4091.38	-118.4
4093.819	-118.4
4096.257	-125.4
4098.693	-125.4
4101.127	-127.4
4103.559	-127.4
4105.989	-17.4
4108.418	-15.4
4110.845	-9.4
4113.27	-8.4
4115.694	-16.4
4118.115	-18.4
4120.535	-122.4
4122.954	-122.4
4125.37	-120.4
4127.785	-123.4
4130.198	-124.4
4132.609	-120.4
4135.019	-129.4
4137.427	-128.4
4139.833	-127.4
4142.237	-128.4
