Data from 2018-2-8_conc=3_n=5_RamanShift_05.txt Node
Date: Mon Mar 12 14:43:28 IST 2018
User: aro
Spectrometer: QEPB0276
Trigger mode: 0
Integration Time (sec): 3.000000E1
Scans to average: 1
Electric dark correction enabled: true
Nonlinearity correction enabled: false
Boxcar width: 0
XAxis mode: Raman Shifts
Number of Pixels in Spectrum: 1044
>>>>>Begin Spectral Data<<<<<
160.701	2.2
166.742	35.2
172.777	109.2
178.805	350.2
184.826	971.2
190.841	2086.2
196.849	3469.2
202.85	4576.2
208.845	5013.2
214.833	5012.2
220.815	4944.2
226.789	4918.2
232.758	4954.2
238.719	4939.2
244.674	4886.2
250.623	4864.2
256.565	4793.2
262.5	4716.2
268.429	4678.2
274.351	4626.2
280.267	4577.2
286.176	4566.2
292.079	4545.2
297.975	4544.2
303.865	4495.2
309.748	4501.2
315.625	4489.2
321.495	4463.2
327.359	4441.2
333.217	4465.2
339.068	4467.2
344.912	4440.2
350.751	4471.2
356.583	4463.2
362.408	4472.2
368.227	4499.2
374.04	4505.2
379.847	4516.2
385.647	4545.2
391.44	4533.2
397.228	4583.2
403.009	4592.2
408.784	4642.2
414.553	4617.2
420.315	4666.2
426.071	4639.2
431.821	4633.2
437.565	4637.2
443.302	4619.2
449.033	4602.2
454.758	4579.2
460.477	4578.2
466.189	4563.2
471.896	4493.2
477.596	4473.2
483.29	4486.2
488.978	4479.2
494.66	4468.2
500.335	4369.2
506.005	4306.2
511.668	4157.2
517.325	4029.2
522.977	3963.2
528.622	3855.2
534.261	3820.2
539.894	3804.2
545.521	3740.2
551.141	3757.2
556.756	3720.2
562.365	3687.2
567.968	3667.2
573.565	3641.2
579.155	3644.2
584.74	3640.2
590.319	3603.2
595.892	3575.2
601.459	3581.2
607.02	3575.2
612.575	3543.2
618.124	3494.2
623.667	3455.2
629.204	3467.2
634.735	3422.2
640.261	3410.2
645.781	3388.2
651.294	3384.2
656.802	3372.2
662.304	3368.2
667.8	3359.2
673.29	3346.2
678.775	3369.2
684.254	3354.2
689.726	3318.2
695.193	3314.2
700.655	3297.2
706.11	3262.2
711.56	3246.2
717.004	3199.2
722.442	3228.2
727.874	3201.2
733.301	3198.2
738.722	3183.2
744.137	3159.2
749.547	3155.2
754.951	3155.2
760.349	3171.2
765.741	3164.2
771.128	3164.2
776.509	3192.2
781.885	3221.2
787.254	3208.2
792.618	3228.2
797.977	3217.2
803.33	3170.2
808.677	3172.2
814.019	3132.2
819.355	3106.2
824.686	3098.2
830.011	3069.2
835.33	3081.2
840.644	3068.2
845.952	3060.2
851.255	3057.2
856.552	3040.2
861.844	3032.2
867.13	3032.2
872.41	3017.2
877.686	2974.2
882.955	2965.2
888.219	2922.2
893.478	2905.2
898.731	2876.2
903.979	2816.2
909.221	2800.2
914.458	2804.2
919.69	2795.2
924.916	2773.2
930.136	2800.2
935.351	2800.2
940.561	2791.2
945.766	2797.2
950.965	2806.2
956.158	2751.2
961.347	2735.2
966.529	2719.2
971.707	2672.2
976.879	2621.2
982.046	2627.2
987.208	2594.2
992.364	2596.2
997.515	2603.2
1002.66	2640.2
1007.801	2646.2
1012.936	2671.2
1018.066	2680.2
1023.19	2668.2
1028.309	2700.2
1033.423	2686.2
1038.532	2662.2
1043.636	2655.2
1048.734	2613.2
1053.827	2590.2
1058.915	2578.2
1063.998	2527.2
1069.075	2543.2
1074.147	2526.2
1079.214	2533.2
1084.276	2538.2
1089.333	2545.2
1094.385	2585.2
1099.431	2597.2
1104.472	2570.2
1109.509	2545.2
1114.54	2507.2
1119.565	2481.2
1124.586	2464.2
1129.602	2412.2
1134.613	2390.2
1139.618	2403.2
1144.619	2387.2
1149.614	2391.2
1154.604	2387.2
1159.589	2401.2
1164.57	2393.2
1169.545	2404.2
1174.515	2413.2
1179.48	2404.2
1184.44	2386.2
1189.395	2380.2
1194.345	2319.2
1199.29	2312.2
1204.23	2323.2
1209.165	2316.2
1214.095	2338.2
1219.021	2371.2
1223.941	2356.2
1228.856	2382.2
1233.766	2381.2
1238.672	2382.2
1243.572	2387.2
1248.467	2356.2
1253.358	2333.2
1258.244	2316.2
1263.124	2286.2
1268	2224.2
1272.871	2218.2
1277.737	2208.2
1282.599	2172.2
1287.455	2172.2
1292.306	2180.2
1297.153	2192.2
1301.995	2184.2
1306.832	2228.2
1311.664	2233.2
1316.491	2232.2
1321.314	2237.2
1326.132	2219.2
1330.945	2187.2
1335.753	2152.2
1340.556	2123.2
1345.354	2099.2
1350.148	2047.2
1354.937	2026.2
1359.722	2004.2
1364.501	1943.2
1369.276	1903.2
1374.046	1874.2
1378.811	1867.2
1383.572	1844.2
1388.327	1838.2
1393.079	1857.2
1397.825	1844.2
1402.567	1843.2
1407.304	1848.2
1412.036	1867.2
1416.764	1880.2
1421.487	1867.2
1426.205	1889.2
1430.919	1898.2
1435.628	1891.2
1440.333	1910.2
1445.032	1921.2
1449.727	1945.2
1454.418	1940.2
1459.104	1929.2
1463.785	1924.2
1468.462	1886.2
1473.134	1853.2
1477.802	1798.2
1482.465	1776.2
1487.123	1727.2
1491.777	1699.2
1496.426	1698.2
1501.071	1675.2
1505.711	1675.2
1510.347	1661.2
1514.978	1653.2
1519.604	1654.2
1524.226	1675.2
1528.844	1636.2
1533.457	1615.2
1538.065	1615.2
1542.669	1603.2
1547.269	1620.2
1551.864	1624.2
1556.454	1647.2
1561.041	1655.2
1565.622	1659.2
1570.199	1685.2
1574.772	1669.2
1579.34	1710.2
1583.904	1730.2
1588.464	1729.2
1593.019	1741.2
1597.569	1730.2
1602.115	1739.2
1606.657	1737.2
1611.195	1735.2
1615.728	1732.2
1620.256	1714.2
1624.78	1732.2
1629.3	1726.2
1633.816	1725.2
1638.327	1736.2
1642.834	1739.2
1647.336	1758.2
1651.834	1753.2
1656.328	1761.2
1660.817	1754.2
1665.302	1732.2
1669.783	1698.2
1674.259	1673.2
1678.732	1640.2
1683.199	1588.2
1687.663	1530.2
1692.122	1474.2
1696.577	1408.2
1701.028	1366.2
1705.474	1305.2
1709.917	1275.2
1714.355	1259.2
1718.788	1244.2
1723.218	1240.2
1727.643	1250.2
1732.064	1232.2
1736.481	1218.2
1740.893	1203.2
1745.301	1187.2
1749.705	1166.2
1754.105	1133.2
1758.501	1121.2
1762.893	1090.2
1767.28	1084.2
1771.663	1080.2
1776.042	1075.2
1780.417	1056.2
1784.787	1046.2
1789.154	1033.2
1793.516	1017.2
1797.874	991.2
1802.228	995.2
1806.578	985.2
1810.924	984.2
1815.266	958.2
1819.603	957.2
1823.937	962.2
1828.266	957.2
1832.591	960.2
1836.913	977.2
1841.23	958.2
1845.543	975.2
1849.852	959.2
1854.156	959.2
1858.457	976.2
1862.754	953.2
1867.047	967.2
1871.335	963.2
1875.62	967.2
1879.9	978.2
1884.177	951.2
1888.449	941.2
1892.718	939.2
1896.982	919.2
1901.243	908.2
1905.499	895.2
1909.752	893.2
1914	880.2
1918.245	867.2
1922.485	856.2
1926.722	842.2
1930.954	850.2
1935.183	847.2
1939.408	832.2
1943.628	839.2
1947.845	835.2
1952.058	821.2
1956.267	816.2
1960.472	799.2
1964.673	782.2
1968.87	786.2
1973.063	789.2
1977.252	769.2
1981.438	788.2
1985.619	789.2
1989.797	771.2
1993.971	777.2
1998.14	781.2
2002.306	784.2
2006.469	790.2
2010.627	780.2
2014.781	785.2
2018.932	783.2
2023.078	787.2
2027.221	768.2
2031.36	780.2
2035.495	762.2
2039.627	748.2
2043.754	737.2
2047.878	733.2
2051.998	730.2
2056.114	735.2
2060.226	725.2
2064.334	732.2
2068.439	724.2
2072.54	711.2
2076.637	723.2
2080.73	703.2
2084.82	707.2
2088.906	707.2
2092.988	701.2
2097.066	696.2
2101.14	677.2
2105.211	673.2
2109.278	668.2
2113.342	648.2
2117.401	647.2
2121.457	654.2
2125.509	627.2
2129.558	637.2
2133.602	640.2
2137.643	633.2
2141.681	646.2
2145.714	644.2
2149.744	638.2
2153.77	647.2
2157.793	633.2
2161.812	634.2
2165.827	624.2
2169.838	611.2
2173.846	610.2
2177.851	588.2
2181.851	600.2
2185.848	578.2
2189.841	585.2
2193.831	578.2
2197.817	566.2
2201.799	572.2
2205.778	570.2
2209.753	565.2
2213.725	572.2
2217.693	571.2
2221.657	556.2
2225.618	566.2
2229.575	557.2
2233.529	555.2
2237.479	548.2
2241.425	539.2
2245.368	526.2
2249.307	527.2
2253.243	516.2
2257.175	516.2
2261.104	514.2
2265.029	503.2
2268.95	499.2
2272.868	495.2
2276.783	483.2
2280.694	478.2
2284.601	472.2
2288.505	467.2
2292.405	456.2
2296.302	464.2
2300.195	460.2
2304.085	447.2
2307.971	435.2
2311.854	443.2
2315.734	431.2
2319.609	416.2
2323.482	429.2
2327.351	421.2
2331.216	429.2
2335.078	446.2
2338.937	431.2
2342.792	418.2
2346.643	406.2
2350.492	410.2
2354.336	406.2
2358.178	427.2
2362.015	405.2
2365.85	408.2
2369.681	411.2
2373.508	419.2
2377.333	425.2
2381.153	417.2
2384.971	417.2
2388.785	413.2
2392.595	400.2
2396.402	391.2
2400.206	402.2
2404.007	402.2
2407.804	401.2
2411.597	407.2
2415.388	391.2
2419.174	391.2
2422.958	388.2
2426.738	390.2
2430.515	389.2
2434.289	393.2
2438.059	379.2
2441.825	385.2
2445.589	367.2
2449.349	372.2
2453.106	363.2
2456.859	352.2
2460.61	350.2
2464.356	348.2
2468.1	345.2
2471.84	339.2
2475.577	346.2
2479.311	335.2
2483.041	337.2
2486.768	337.2
2490.492	319.2
2494.213	327.2
2497.93	333.2
2501.644	323.2
2505.355	318.2
2509.062	321.2
2512.766	312.2
2516.467	304.2
2520.165	310.2
2523.859	309.2
2527.551	301.2
2531.239	289.2
2534.923	284.2
2538.605	289.2
2542.283	281.2
2545.958	285.2
2549.63	278.2
2553.299	281.2
2556.964	290.2
2560.626	278.2
2564.285	271.2
2567.941	273.2
2571.594	266.2
2575.243	261.2
2578.89	250.2
2582.533	252.2
2586.173	252.2
2589.809	252.2
2593.443	240.2
2597.073	241.2
2600.701	239.2
2604.325	228.2
2607.946	238.2
2611.564	240.2
2615.178	238.2
2618.79	237.2
2622.398	244.2
2626.004	230.2
2629.606	222.2
2633.205	225.2
2636.801	214.2
2640.394	227.2
2643.983	222.2
2647.57	219.2
2651.153	222.2
2654.734	220.2
2658.311	207.2
2661.885	195.2
2665.456	211.2
2669.025	201.2
2672.589	207.2
2676.151	202.2
2679.71	198.2
2683.266	201.2
2686.819	194.2
2690.368	184.2
2693.915	185.2
2697.458	184.2
2700.999	185.2
2704.536	186.2
2708.071	164.2
2711.602	174.2
2715.13	168.2
2718.656	170.2
2722.178	161.2
2725.697	159.2
2729.214	158.2
2732.727	169.2
2736.237	165.2
2739.744	152.2
2743.249	149.2
2746.75	149.2
2750.248	148.2
2753.743	141.2
2757.236	144.2
2760.725	132.2
2764.211	129.2
2767.695	122.2
2771.175	129.2
2774.652	122.2
2778.127	123.2
2781.598	120.2
2785.067	139.2
2788.532	121.2
2791.995	127.2
2795.455	128.2
2798.911	124.2
2802.365	139.2
2805.816	138.2
2809.264	132.2
2812.709	142.2
2816.151	138.2
2819.59	130.2
2823.026	124.2
2826.46	129.2
2829.89	131.2
2833.318	127.2
2836.742	136.2
2840.164	136.2
2843.583	137.2
2846.999	138.2
2850.412	134.2
2853.822	133.2
2857.229	131.2
2860.634	144.2
2864.035	147.2
2867.434	143.2
2870.83	151.2
2874.223	157.2
2877.613	159.2
2881	165.2
2884.385	172.2
2887.766	153.2
2891.145	156.2
2894.521	167.2
2897.894	174.2
2901.264	172.2
2904.631	176.2
2907.996	176.2
2911.358	170.2
2914.717	180.2
2918.073	182.2
2921.426	184.2
2924.777	191.2
2928.124	189.2
2931.469	187.2
2934.811	201.2
2938.15	204.2
2941.487	210.2
2944.821	210.2
2948.152	199.2
2951.48	209.2
2954.805	207.2
2958.128	210.2
2961.447	193.2
2964.765	209.2
2968.079	199.2
2971.39	198.2
2974.699	199.2
2978.005	199.2
2981.308	208.2
2984.609	216.2
2987.907	204.2
2991.202	209.2
2994.494	211.2
2997.784	209.2
3001.07	230.2
3004.355	221.2
3007.636	221.2
3010.915	221.2
3014.191	219.2
3017.464	232.2
3020.734	231.2
3024.002	231.2
3027.267	243.2
3030.53	245.2
3033.789	251.2
3037.046	259.2
3040.301	258.2
3043.552	270.2
3046.801	275.2
3050.048	285.2
3053.291	285.2
3056.532	300.2
3059.771	316.2
3063.006	330.2
3066.239	339.2
3069.469	334.2
3072.697	350.2
3075.922	368.2
3079.144	367.2
3082.364	380.2
3085.581	392.2
3088.795	390.2
3092.007	394.2
3095.216	413.2
3098.423	411.2
3101.627	436.2
3104.828	444.2
3108.026	442.2
3111.222	458.2
3114.416	470.2
3117.607	486.2
3120.795	478.2
3123.98	481.2
3127.163	502.2
3130.344	520.2
3133.521	523.2
3136.696	544.2
3139.869	545.2
3143.039	542.2
3146.206	564.2
3149.371	568.2
3152.533	574.2
3155.693	584.2
3158.85	589.2
3162.005	599.2
3165.157	586.2
3168.306	590.2
3171.453	596.2
3174.597	609.2
3177.739	606.2
3180.878	612.2
3184.014	613.2
3187.149	609.2
3190.28	609.2
3193.409	618.2
3196.536	604.2
3199.659	626.2
3202.781	623.2
3205.9	614.2
3209.016	619.2
3212.13	621.2
3215.241	620.2
3218.35	617.2
3221.456	607.2
3224.56	593.2
3227.661	581.2
3230.76	585.2
3233.856	586.2
3236.95	563.2
3240.041	563.2
3243.13	547.2
3246.216	543.2
3249.3	529.2
3252.382	538.2
3255.46	524.2
3258.537	519.2
3261.611	528.2
3264.682	497.2
3267.751	509.2
3270.818	508.2
3273.882	495.2
3276.943	504.2
3280.002	507.2
3283.059	490.2
3286.113	499.2
3289.165	478.2
3292.214	483.2
3295.261	469.2
3298.306	457.2
3301.348	466.2
3304.387	456.2
3307.425	454.2
3310.459	449.2
3313.492	443.2
3316.521	437.2
3319.549	422.2
3322.574	436.2
3325.597	425.2
3328.617	436.2
3331.635	432.2
3334.65	421.2
3337.663	416.2
3340.674	416.2
3343.682	420.2
3346.688	405.2
3349.691	426.2
3352.692	409.2
3355.691	428.2
3358.687	401.2
3361.681	411.2
3364.673	402.2
3367.662	398.2
3370.649	390.2
3373.633	383.2
3376.615	378.2
3379.595	369.2
3382.572	372.2
3385.547	368.2
3388.52	353.2
3391.49	356.2
3394.458	348.2
3397.424	340.2
3400.387	331.2
3403.348	334.2
3406.307	319.2
3409.263	330.2
3412.217	325.2
3415.168	312.2
3418.118	299.2
3421.065	285.2
3424.009	305.2
3426.951	297.2
3429.891	281.2
3432.829	274.2
3435.764	265.2
3438.697	270.2
3441.628	257.2
3444.557	252.2
3447.483	234.2
3450.407	225.2
3453.328	218.2
3456.247	217.2
3459.164	200.2
3462.079	196.2
3464.991	187.2
3467.902	171.2
3470.809	189.2
3473.715	157.2
3476.618	159.2
3479.519	163.2
3482.418	153.2
3485.315	135.2
3488.209	126.2
3491.101	127.2
3493.99	123.2
3496.878	119.2
3499.763	109.2
3502.646	97.2
3505.527	86.2
3508.405	98.2
3511.281	91.2
3514.155	88.2
3517.027	74.2
3519.897	73.2
3522.764	68.2
3525.629	52.2
3528.492	46.2
3531.352	39.2
3534.211	37.2
3537.067	25.2
3539.921	32.2
3542.773	21.2
3545.622	11.2
3548.469	12.2
3551.315	11.2
3554.157	5.2
3556.998	-9.8
3559.837	-10.8
3562.673	-9.8
3565.507	-9.8
3568.339	-14.8
3571.169	-22.8
3573.996	-21.8
3576.822	-24.8
3579.645	-27.8
3582.466	-25.8
3585.285	-33.8
3588.101	-29.8
3590.916	-39.8
3593.728	-41.8
3596.538	-45.8
3599.346	-46.8
3602.152	-45.8
3604.956	-47.8
3607.757	-49.8
3610.556	-56.8
3613.354	-53.8
3616.149	-63.8
3618.942	-68.8
3621.732	-68.8
3624.521	-64.8
3627.307	-65.8
3630.092	-71.8
3632.874	-64.8
3635.654	-76.8
3638.432	-70.8
3641.208	-72.8
3643.982	-80.8
3646.753	-77.8
3649.523	-77.8
3652.29	-82.8
3655.055	-84.8
3657.818	-88.8
3660.579	-82.8
3663.338	-81.8
3666.095	-83.8
3668.849	-92.8
3671.602	-92.8
3674.352	-90.8
3677.101	-99.8
3679.847	-95.8
3682.591	-99.8
3685.333	-91.8
3688.073	-93.8
3690.811	-93.8
3693.547	-101.8
3696.281	-104.8
3699.013	-98.8
3701.742	-102.8
3704.47	-103.8
3707.195	-96.8
3709.919	-105.8
3712.64	-108.8
3715.359	-105.8
3718.076	-103.8
3720.792	-106.8
3723.505	-109.8
3726.216	-105.8
3728.925	-111.8
3731.632	-103.8
3734.336	-112.8
3737.039	-105.8
3739.74	-112.8
3742.439	-118.8
3745.136	-108.8
3747.83	-114.8
3750.523	-113.8
3753.213	-118.8
3755.902	-106.8
3758.589	-118.8
3761.273	-110.8
3763.956	-110.8
3766.636	-115.8
3769.315	-107.8
3771.991	-111.8
3774.665	-112.8
3777.338	-108.8
3780.008	-115.8
3782.677	-117.8
3785.343	-117.8
3788.007	-115.8
3790.67	-114.8
3793.33	-112.8
3795.989	-117.8
3798.645	-106.8
3801.299	-120.8
3803.952	-121.8
3806.602	-115.8
3809.251	-120.8
3811.897	-123.8
3814.542	-116.8
3817.184	-106.8
3819.825	-113.8
3822.463	-113.8
3825.1	-117.8
3827.735	-114.8
3830.367	-122.8
3832.998	-119.8
3835.627	-112.8
3838.253	-112.8
3840.878	-117.8
3843.501	-111.8
3846.122	-116.8
3848.741	-124.8
3851.358	-120.8
3853.973	-120.8
3856.586	-112.8
3859.197	-122.8
3861.806	-113.8
3864.414	-122.8
3867.019	-119.8
3869.622	-116.8
3872.224	-106.8
3874.823	-103.8
3877.421	-97.8
3880.016	-76.8
3882.61	-57.8
3885.202	-56.8
3887.792	-74.8
3890.38	-95.8
3892.966	-115.8
3895.55	-109.8
3898.132	-112.8
3900.713	-113.8
3903.291	-120.8
3905.868	-117.8
3908.442	-116.8
3911.015	-120.8
3913.586	-120.8
3916.155	-119.8
3918.722	-118.8
3921.287	-119.8
3923.85	-118.8
3926.411	-125.8
3928.971	-120.8
3931.528	-126.8
3934.084	-118.8
3936.638	-109.8
3939.19	-121.8
3941.74	-117.8
3944.288	-119.8
3946.834	-119.8
3949.378	-118.8
3951.921	-117.8
3954.462	-121.8
3957	-116.8
3959.537	-111.8
3962.072	-117.8
3964.606	-117.8
3967.137	-122.8
3969.667	-119.8
3972.194	-126.8
3974.72	-116.8
3977.244	-121.8
3979.766	-116.8
3982.286	-117.8
3984.805	-120.8
3987.321	-122.8
3989.836	-110.8
3992.349	-120.8
3994.86	-117.8
3997.369	-115.8
3999.877	-116.8
4002.382	-115.8
4004.886	-120.8
4007.388	-116.8
4009.888	-119.8
4012.386	-117.8
4014.883	-120.8
4017.377	-117.8
4019.87	-114.8
4022.361	-118.8
4024.85	-125.8
4027.338	-118.8
4029.823	-117.8
4032.307	-114.8
4034.789	-117.8
4037.269	-117.8
4039.747	-115.8
4042.224	-114.8
4044.699	-119.8
4047.172	-117.8
4049.643	-116.8
4052.112	-116.8
4054.58	-114.8
4057.046	-114.8
4059.51	-119.8
4061.972	-114.8
4064.432	-116.8
4066.891	-116.8
4069.348	-114.8
4071.803	-120.8
4074.256	-119.8
4076.708	-115.8
4079.158	-120.8
4081.606	-114.8
4084.052	-122.8
4086.497	-114.8
4088.939	-113.8
4091.38	-114.8
4093.819	-116.8
4096.257	-125.8
4098.693	-124.8
4101.127	-127.8
4103.559	-121.8
4105.989	-10.8
4108.418	-16.8
4110.845	-16.8
4113.27	-13.8
4115.694	-17.8
4118.115	-20.8
4120.535	-121.8
4122.954	-124.8
4125.37	-117.8
4127.785	-121.8
4130.198	-117.8
4132.609	-116.8
4135.019	-123.8
4137.427	-123.8
4139.833	-123.8
4142.237	-125.8
