Data from 2018-2-8_conc=2_n=2_RamanShift_01.txt Node
Date: Mon Mar 12 13:58:28 IST 2018
User: aro
Spectrometer: QEPB0276
Trigger mode: 0
Integration Time (sec): 3.000000E1
Scans to average: 1
Electric dark correction enabled: true
Nonlinearity correction enabled: false
Boxcar width: 0
XAxis mode: Raman Shifts
Number of Pixels in Spectrum: 1044
>>>>>Begin Spectral Data<<<<<
160.701	19.6
166.742	46.6
172.777	122.6
178.805	367.6
184.826	971.6
190.841	2077.6
196.849	3432.6
202.85	4471.6
208.845	4886.6
214.833	4892.6
220.815	4865.6
226.789	4832.6
232.758	4822.6
238.719	4797.6
244.674	4750.6
250.623	4707.6
256.565	4640.6
262.5	4606.6
268.429	4511.6
274.351	4465.6
280.267	4448.6
286.176	4398.6
292.079	4380.6
297.975	4390.6
303.865	4395.6
309.748	4351.6
315.625	4303.6
321.495	4331.6
327.359	4326.6
333.217	4353.6
339.068	4320.6
344.912	4342.6
350.751	4320.6
356.583	4371.6
362.408	4365.6
368.227	4374.6
374.04	4398.6
379.847	4410.6
385.647	4438.6
391.44	4467.6
397.228	4490.6
403.009	4514.6
408.784	4512.6
414.553	4527.6
420.315	4558.6
426.071	4561.6
431.821	4534.6
437.565	4529.6
443.302	4540.6
449.033	4511.6
454.758	4504.6
460.477	4466.6
466.189	4440.6
471.896	4421.6
477.596	4390.6
483.29	4381.6
488.978	4372.6
494.66	4324.6
500.335	4291.6
506.005	4154.6
511.668	4012.6
517.325	3863.6
522.977	3765.6
528.622	3661.6
534.261	3651.6
539.894	3580.6
545.521	3534.6
551.141	3497.6
556.756	3499.6
562.365	3469.6
567.968	3448.6
573.565	3414.6
579.155	3402.6
584.74	3392.6
590.319	3390.6
595.892	3354.6
601.459	3336.6
607.02	3350.6
612.575	3338.6
618.124	3303.6
623.667	3241.6
629.204	3215.6
634.735	3189.6
640.261	3151.6
645.781	3161.6
651.294	3153.6
656.802	3147.6
662.304	3136.6
667.8	3099.6
673.29	3106.6
678.775	3089.6
684.254	3089.6
689.726	3085.6
695.193	3059.6
700.655	3069.6
706.11	3041.6
711.56	3006.6
717.004	2989.6
722.442	2987.6
727.874	2974.6
733.301	2959.6
738.722	2939.6
744.137	2944.6
749.547	2935.6
754.951	2933.6
760.349	2952.6
765.741	2938.6
771.128	2958.6
776.509	2983.6
781.885	2989.6
787.254	3012.6
792.618	3005.6
797.977	2994.6
803.33	2992.6
808.677	2935.6
814.019	2950.6
819.355	2930.6
824.686	2888.6
830.011	2879.6
835.33	2881.6
840.644	2837.6
845.952	2868.6
851.255	2833.6
856.552	2817.6
861.844	2800.6
867.13	2794.6
872.41	2785.6
877.686	2786.6
882.955	2736.6
888.219	2720.6
893.478	2668.6
898.731	2652.6
903.979	2614.6
909.221	2601.6
914.458	2560.6
919.69	2586.6
924.916	2571.6
930.136	2571.6
935.351	2549.6
940.561	2592.6
945.766	2575.6
950.965	2583.6
956.158	2537.6
961.347	2530.6
966.529	2484.6
971.707	2462.6
976.879	2427.6
982.046	2386.6
987.208	2395.6
992.364	2377.6
997.515	2368.6
1002.66	2417.6
1007.801	2444.6
1012.936	2451.6
1018.066	2476.6
1023.19	2470.6
1028.309	2473.6
1033.423	2458.6
1038.532	2475.6
1043.636	2449.6
1048.734	2423.6
1053.827	2382.6
1058.915	2344.6
1063.998	2334.6
1069.075	2350.6
1074.147	2332.6
1079.214	2355.6
1084.276	2347.6
1089.333	2343.6
1094.385	2363.6
1099.431	2386.6
1104.472	2359.6
1109.509	2339.6
1114.54	2315.6
1119.565	2283.6
1124.586	2248.6
1129.602	2231.6
1134.613	2203.6
1139.618	2190.6
1144.619	2203.6
1149.614	2192.6
1154.604	2209.6
1159.589	2178.6
1164.57	2194.6
1169.545	2188.6
1174.515	2209.6
1179.48	2196.6
1184.44	2196.6
1189.395	2164.6
1194.345	2151.6
1199.29	2132.6
1204.23	2139.6
1209.165	2154.6
1214.095	2164.6
1219.021	2183.6
1223.941	2160.6
1228.856	2200.6
1233.766	2172.6
1238.672	2183.6
1243.572	2173.6
1248.467	2148.6
1253.358	2155.6
1258.244	2107.6
1263.124	2072.6
1268	2041.6
1272.871	2028.6
1277.737	1999.6
1282.599	1986.6
1287.455	1979.6
1292.306	2002.6
1297.153	2008.6
1301.995	2013.6
1306.832	2027.6
1311.664	2052.6
1316.491	2051.6
1321.314	2025.6
1326.132	2023.6
1330.945	2006.6
1335.753	1977.6
1340.556	1943.6
1345.354	1922.6
1350.148	1887.6
1354.937	1858.6
1359.722	1837.6
1364.501	1820.6
1369.276	1752.6
1374.046	1749.6
1378.811	1729.6
1383.572	1724.6
1388.327	1721.6
1393.079	1712.6
1397.825	1721.6
1402.567	1712.6
1407.304	1717.6
1412.036	1720.6
1416.764	1718.6
1421.487	1730.6
1426.205	1725.6
1430.919	1723.6
1435.628	1734.6
1440.333	1768.6
1445.032	1759.6
1449.727	1784.6
1454.418	1798.6
1459.104	1794.6
1463.785	1756.6
1468.462	1734.6
1473.134	1706.6
1477.802	1665.6
1482.465	1621.6
1487.123	1594.6
1491.777	1581.6
1496.426	1552.6
1501.071	1539.6
1505.711	1517.6
1510.347	1534.6
1514.978	1529.6
1519.604	1546.6
1524.226	1544.6
1528.844	1521.6
1533.457	1515.6
1538.065	1518.6
1542.669	1510.6
1547.269	1504.6
1551.864	1506.6
1556.454	1542.6
1561.041	1540.6
1565.622	1537.6
1570.199	1554.6
1574.772	1572.6
1579.34	1587.6
1583.904	1619.6
1588.464	1635.6
1593.019	1640.6
1597.569	1638.6
1602.115	1630.6
1606.657	1630.6
1611.195	1604.6
1615.728	1616.6
1620.256	1618.6
1624.78	1597.6
1629.3	1613.6
1633.816	1617.6
1638.327	1627.6
1642.834	1637.6
1647.336	1638.6
1651.834	1645.6
1656.328	1634.6
1660.817	1627.6
1665.302	1613.6
1669.783	1583.6
1674.259	1569.6
1678.732	1512.6
1683.199	1478.6
1687.663	1423.6
1692.122	1379.6
1696.577	1330.6
1701.028	1281.6
1705.474	1218.6
1709.917	1197.6
1714.355	1158.6
1718.788	1159.6
1723.218	1138.6
1727.643	1156.6
1732.064	1150.6
1736.481	1138.6
1740.893	1107.6
1745.301	1084.6
1749.705	1076.6
1754.105	1037.6
1758.501	1022.6
1762.893	1011.6
1767.28	1003.6
1771.663	995.6
1776.042	981.6
1780.417	973.6
1784.787	963.6
1789.154	954.6
1793.516	951.6
1797.874	924.6
1802.228	936.6
1806.578	910.6
1810.924	898.6
1815.266	904.6
1819.603	910.6
1823.937	903.6
1828.266	887.6
1832.591	894.6
1836.913	891.6
1841.23	876.6
1845.543	890.6
1849.852	888.6
1854.156	881.6
1858.457	882.6
1862.754	889.6
1867.047	871.6
1871.335	882.6
1875.62	891.6
1879.9	895.6
1884.177	890.6
1888.449	870.6
1892.718	843.6
1896.982	847.6
1901.243	843.6
1905.499	831.6
1909.752	815.6
1914	799.6
1918.245	796.6
1922.485	784.6
1926.722	783.6
1930.954	776.6
1935.183	764.6
1939.408	759.6
1943.628	767.6
1947.845	746.6
1952.058	755.6
1956.267	751.6
1960.472	739.6
1964.673	722.6
1968.87	715.6
1973.063	725.6
1977.252	702.6
1981.438	719.6
1985.619	718.6
1989.797	716.6
1993.971	714.6
1998.14	728.6
2002.306	725.6
2006.469	727.6
2010.627	722.6
2014.781	722.6
2018.932	726.6
2023.078	722.6
2027.221	716.6
2031.36	708.6
2035.495	712.6
2039.627	699.6
2043.754	662.6
2047.878	668.6
2051.998	671.6
2056.114	658.6
2060.226	681.6
2064.334	664.6
2068.439	666.6
2072.54	646.6
2076.637	650.6
2080.73	654.6
2084.82	656.6
2088.906	650.6
2092.988	637.6
2097.066	637.6
2101.14	618.6
2105.211	607.6
2109.278	611.6
2113.342	605.6
2117.401	594.6
2121.457	593.6
2125.509	596.6
2129.558	583.6
2133.602	586.6
2137.643	580.6
2141.681	586.6
2145.714	579.6
2149.744	588.6
2153.77	584.6
2157.793	574.6
2161.812	587.6
2165.827	564.6
2169.838	566.6
2173.846	543.6
2177.851	545.6
2181.851	526.6
2185.848	533.6
2189.841	539.6
2193.831	530.6
2197.817	519.6
2201.799	509.6
2205.778	509.6
2209.753	505.6
2213.725	517.6
2217.693	516.6
2221.657	515.6
2225.618	513.6
2229.575	507.6
2233.529	498.6
2237.479	499.6
2241.425	490.6
2245.368	481.6
2249.307	472.6
2253.243	463.6
2257.175	453.6
2261.104	463.6
2265.029	445.6
2268.95	452.6
2272.868	439.6
2276.783	426.6
2280.694	430.6
2284.601	431.6
2288.505	416.6
2292.405	416.6
2296.302	411.6
2300.195	409.6
2304.085	393.6
2307.971	387.6
2311.854	389.6
2315.734	375.6
2319.609	377.6
2323.482	377.6
2327.351	373.6
2331.216	378.6
2335.078	388.6
2338.937	361.6
2342.792	360.6
2346.643	349.6
2350.492	352.6
2354.336	353.6
2358.178	348.6
2362.015	356.6
2365.85	343.6
2369.681	350.6
2373.508	346.6
2377.333	355.6
2381.153	357.6
2384.971	363.6
2388.785	354.6
2392.595	338.6
2396.402	330.6
2400.206	338.6
2404.007	334.6
2407.804	339.6
2411.597	342.6
2415.388	338.6
2419.174	331.6
2422.958	325.6
2426.738	327.6
2430.515	325.6
2434.289	326.6
2438.059	324.6
2441.825	313.6
2445.589	307.6
2449.349	299.6
2453.106	314.6
2456.859	295.6
2460.61	284.6
2464.356	287.6
2468.1	285.6
2471.84	278.6
2475.577	285.6
2479.311	275.6
2483.041	270.6
2486.768	264.6
2490.492	268.6
2494.213	272.6
2497.93	278.6
2501.644	262.6
2505.355	262.6
2509.062	259.6
2512.766	257.6
2516.467	257.6
2520.165	256.6
2523.859	254.6
2527.551	243.6
2531.239	239.6
2534.923	236.6
2538.605	227.6
2542.283	239.6
2545.958	231.6
2549.63	231.6
2553.299	221.6
2556.964	222.6
2560.626	226.6
2564.285	215.6
2567.941	218.6
2571.594	211.6
2575.243	205.6
2578.89	210.6
2582.533	201.6
2586.173	199.6
2589.809	202.6
2593.443	191.6
2597.073	196.6
2600.701	188.6
2604.325	195.6
2607.946	193.6
2611.564	181.6
2615.178	191.6
2618.79	191.6
2622.398	183.6
2626.004	180.6
2629.606	185.6
2633.205	170.6
2636.801	183.6
2640.394	183.6
2643.983	186.6
2647.57	171.6
2651.153	172.6
2654.734	162.6
2658.311	164.6
2661.885	159.6
2665.456	162.6
2669.025	162.6
2672.589	159.6
2676.151	161.6
2679.71	151.6
2683.266	148.6
2686.819	148.6
2690.368	145.6
2693.915	135.6
2697.458	146.6
2700.999	135.6
2704.536	142.6
2708.071	124.6
2711.602	124.6
2715.13	125.6
2718.656	131.6
2722.178	126.6
2725.697	122.6
2729.214	131.6
2732.727	115.6
2736.237	124.6
2739.744	114.6
2743.249	113.6
2746.75	115.6
2750.248	111.6
2753.743	108.6
2757.236	100.6
2760.725	102.6
2764.211	98.6
2767.695	100.6
2771.175	92.6
2774.652	91.6
2778.127	97.6
2781.598	91.6
2785.067	100.6
2788.532	91.6
2791.995	99.6
2795.455	98.6
2798.911	99.6
2802.365	100.6
2805.816	106.6
2809.264	95.6
2812.709	96.6
2816.151	106.6
2819.59	103.6
2823.026	103.6
2826.46	92.6
2829.89	100.6
2833.318	101.6
2836.742	95.6
2840.164	97.6
2843.583	103.6
2846.999	101.6
2850.412	101.6
2853.822	109.6
2857.229	105.6
2860.634	108.6
2864.035	121.6
2867.434	118.6
2870.83	126.6
2874.223	133.6
2877.613	124.6
2881	145.6
2884.385	144.6
2887.766	133.6
2891.145	143.6
2894.521	141.6
2897.894	147.6
2901.264	140.6
2904.631	141.6
2907.996	153.6
2911.358	148.6
2914.717	140.6
2918.073	158.6
2921.426	162.6
2924.777	163.6
2928.124	166.6
2931.469	164.6
2934.811	174.6
2938.15	173.6
2941.487	195.6
2944.821	187.6
2948.152	196.6
2951.48	188.6
2954.805	188.6
2958.128	182.6
2961.447	176.6
2964.765	179.6
2968.079	182.6
2971.39	182.6
2974.699	183.6
2978.005	185.6
2981.308	186.6
2984.609	192.6
2987.907	184.6
2991.202	191.6
2994.494	187.6
2997.784	197.6
3001.07	205.6
3004.355	203.6
3007.636	201.6
3010.915	206.6
3014.191	215.6
3017.464	212.6
3020.734	211.6
3024.002	222.6
3027.267	221.6
3030.53	241.6
3033.789	229.6
3037.046	241.6
3040.301	239.6
3043.552	256.6
3046.801	258.6
3050.048	268.6
3053.291	278.6
3056.532	288.6
3059.771	303.6
3063.006	304.6
3066.239	320.6
3069.469	323.6
3072.697	340.6
3075.922	345.6
3079.144	355.6
3082.364	366.6
3085.581	380.6
3088.795	388.6
3092.007	395.6
3095.216	388.6
3098.423	404.6
3101.627	420.6
3104.828	421.6
3108.026	425.6
3111.222	435.6
3114.416	460.6
3117.607	458.6
3120.795	469.6
3123.98	479.6
3127.163	490.6
3130.344	518.6
3133.521	503.6
3136.696	538.6
3139.869	529.6
3143.039	545.6
3146.206	561.6
3149.371	561.6
3152.533	571.6
3155.693	574.6
3158.85	581.6
3162.005	592.6
3165.157	586.6
3168.306	582.6
3171.453	597.6
3174.597	602.6
3177.739	596.6
3180.878	600.6
3184.014	621.6
3187.149	617.6
3190.28	620.6
3193.409	613.6
3196.536	612.6
3199.659	621.6
3202.781	631.6
3205.9	618.6
3209.016	632.6
3212.13	628.6
3215.241	628.6
3218.35	620.6
3221.456	614.6
3224.56	603.6
3227.661	590.6
3230.76	575.6
3233.856	585.6
3236.95	569.6
3240.041	558.6
3243.13	557.6
3246.216	542.6
3249.3	530.6
3252.382	535.6
3255.46	523.6
3258.537	533.6
3261.611	526.6
3264.682	520.6
3267.751	513.6
3270.818	507.6
3273.882	505.6
3276.943	491.6
3280.002	509.6
3283.059	509.6
3286.113	486.6
3289.165	492.6
3292.214	484.6
3295.261	476.6
3298.306	467.6
3301.348	463.6
3304.387	458.6
3307.425	447.6
3310.459	438.6
3313.492	446.6
3316.521	446.6
3319.549	436.6
3322.574	434.6
3325.597	425.6
3328.617	430.6
3331.635	430.6
3334.65	410.6
3337.663	423.6
3340.674	425.6
3343.682	419.6
3346.688	415.6
3349.691	414.6
3352.692	417.6
3355.691	411.6
3358.687	408.6
3361.681	405.6
3364.673	401.6
3367.662	397.6
3370.649	386.6
3373.633	377.6
3376.615	370.6
3379.595	365.6
3382.572	367.6
3385.547	350.6
3388.52	348.6
3391.49	341.6
3394.458	351.6
3397.424	335.6
3400.387	326.6
3403.348	328.6
3406.307	307.6
3409.263	311.6
3412.217	302.6
3415.168	317.6
3418.118	303.6
3421.065	294.6
3424.009	296.6
3426.951	290.6
3429.891	266.6
3432.829	275.6
3435.764	273.6
3438.697	263.6
3441.628	254.6
3444.557	246.6
3447.483	238.6
3450.407	221.6
3453.328	214.6
3456.247	201.6
3459.164	191.6
3462.079	189.6
3464.991	185.6
3467.902	177.6
3470.809	175.6
3473.715	152.6
3476.618	152.6
3479.519	148.6
3482.418	142.6
3485.315	133.6
3488.209	124.6
3491.101	128.6
3493.99	129.6
3496.878	107.6
3499.763	95.6
3502.646	94.6
3505.527	87.6
3508.405	83.6
3511.281	69.6
3514.155	78.6
3517.027	62.6
3519.897	59.6
3522.764	43.6
3525.629	42.6
3528.492	36.6
3531.352	31.6
3534.211	25.6
3537.067	14.6
3539.921	19.6
3542.773	10.6
3545.622	7.6
3548.469	-5.4
3551.315	-8.4
3554.157	-10.4
3556.998	-20.4
3559.837	-18.4
3562.673	-24.4
3565.507	-21.4
3568.339	-27.4
3571.169	-40.4
3573.996	-31.4
3576.822	-34.4
3579.645	-43.4
3582.466	-35.4
3585.285	-48.4
3588.101	-36.4
3590.916	-53.4
3593.728	-61.4
3596.538	-67.4
3599.346	-64.4
3602.152	-58.4
3604.956	-60.4
3607.757	-62.4
3610.556	-67.4
3613.354	-67.4
3616.149	-81.4
3618.942	-81.4
3621.732	-82.4
3624.521	-78.4
3627.307	-78.4
3630.092	-83.4
3632.874	-83.4
3635.654	-88.4
3638.432	-89.4
3641.208	-91.4
3643.982	-94.4
3646.753	-90.4
3649.523	-93.4
3652.29	-91.4
3655.055	-92.4
3657.818	-97.4
3660.579	-97.4
3663.338	-107.4
3666.095	-104.4
3668.849	-104.4
3671.602	-105.4
3674.352	-105.4
3677.101	-107.4
3679.847	-111.4
3682.591	-112.4
3685.333	-109.4
3688.073	-113.4
3690.811	-110.4
3693.547	-120.4
3696.281	-119.4
3699.013	-119.4
3701.742	-117.4
3704.47	-122.4
3707.195	-114.4
3709.919	-120.4
3712.64	-117.4
3715.359	-124.4
3718.076	-119.4
3720.792	-123.4
3723.505	-124.4
3726.216	-122.4
3728.925	-126.4
3731.632	-127.4
3734.336	-132.4
3737.039	-122.4
3739.74	-128.4
3742.439	-132.4
3745.136	-124.4
3747.83	-133.4
3750.523	-126.4
3753.213	-134.4
3755.902	-125.4
3758.589	-129.4
3761.273	-126.4
3763.956	-122.4
3766.636	-135.4
3769.315	-128.4
3771.991	-127.4
3774.665	-130.4
3777.338	-121.4
3780.008	-124.4
3782.677	-129.4
3785.343	-128.4
3788.007	-135.4
3790.67	-135.4
3793.33	-127.4
3795.989	-126.4
3798.645	-123.4
3801.299	-128.4
3803.952	-134.4
3806.602	-127.4
3809.251	-139.4
3811.897	-138.4
3814.542	-133.4
3817.184	-128.4
3819.825	-129.4
3822.463	-129.4
3825.1	-131.4
3827.735	-135.4
3830.367	-135.4
3832.998	-137.4
3835.627	-133.4
3838.253	-121.4
3840.878	-131.4
3843.501	-130.4
3846.122	-138.4
3848.741	-138.4
3851.358	-129.4
3853.973	-138.4
3856.586	-128.4
3859.197	-139.4
3861.806	-130.4
3864.414	-132.4
3867.019	-134.4
3869.622	-130.4
3872.224	-123.4
3874.823	-109.4
3877.421	-92.4
3880.016	-67.4
3882.61	-40.4
3885.202	-43.4
3887.792	-65.4
3890.38	-93.4
3892.966	-121.4
3895.55	-122.4
3898.132	-125.4
3900.713	-132.4
3903.291	-129.4
3905.868	-137.4
3908.442	-132.4
3911.015	-139.4
3913.586	-132.4
3916.155	-138.4
3918.722	-137.4
3921.287	-133.4
3923.85	-136.4
3926.411	-141.4
3928.971	-137.4
3931.528	-137.4
3934.084	-134.4
3936.638	-128.4
3939.19	-139.4
3941.74	-137.4
3944.288	-141.4
3946.834	-132.4
3949.378	-134.4
3951.921	-138.4
3954.462	-144.4
3957	-135.4
3959.537	-131.4
3962.072	-138.4
3964.606	-128.4
3967.137	-135.4
3969.667	-133.4
3972.194	-142.4
3974.72	-134.4
3977.244	-137.4
3979.766	-133.4
3982.286	-133.4
3984.805	-131.4
3987.321	-133.4
3989.836	-129.4
3992.349	-136.4
3994.86	-133.4
3997.369	-132.4
3999.877	-134.4
4002.382	-130.4
4004.886	-134.4
4007.388	-139.4
4009.888	-133.4
4012.386	-135.4
4014.883	-139.4
4017.377	-131.4
4019.87	-132.4
4022.361	-137.4
4024.85	-132.4
4027.338	-135.4
4029.823	-133.4
4032.307	-136.4
4034.789	-140.4
4037.269	-130.4
4039.747	-132.4
4042.224	-132.4
4044.699	-134.4
4047.172	-133.4
4049.643	-133.4
4052.112	-135.4
4054.58	-137.4
4057.046	-133.4
4059.51	-137.4
4061.972	-131.4
4064.432	-136.4
4066.891	-135.4
4069.348	-131.4
4071.803	-138.4
4074.256	-132.4
4076.708	-128.4
4079.158	-136.4
4081.606	-129.4
4084.052	-137.4
4086.497	-134.4
4088.939	-124.4
4091.38	-131.4
4093.819	-130.4
4096.257	-141.4
4098.693	-142.4
4101.127	-142.4
4103.559	-137.4
4105.989	14.6
4108.418	14.6
4110.845	10.6
4113.27	6.6
4115.694	-3.4
4118.115	1.6
4120.535	-133.4
4122.954	-138.4
4125.37	-136.4
4127.785	-140.4
4130.198	-132.4
4132.609	-134.4
4135.019	-139.4
4137.427	-139.4
4139.833	-141.4
4142.237	-136.4
