Data from 2018-2-8_conc=0_n=4_RamanShift_02.txt Node
Date: Mon Mar 12 13:29:59 IST 2018
User: aro
Spectrometer: QEPB0276
Trigger mode: 0
Integration Time (sec): 3.000000E1
Scans to average: 1
Electric dark correction enabled: true
Nonlinearity correction enabled: false
Boxcar width: 0
XAxis mode: Raman Shifts
Number of Pixels in Spectrum: 1044
>>>>>Begin Spectral Data<<<<<
160.701	15.9
166.742	51.9
172.777	121.9
178.805	360.9
184.826	968.9
190.841	2101.9
196.849	3461.9
202.85	4513.9
208.845	4964.9
214.833	4954.9
220.815	4875.9
226.789	4849.9
232.758	4832.9
238.719	4859.9
244.674	4781.9
250.623	4762.9
256.565	4673.9
262.5	4618.9
268.429	4575.9
274.351	4533.9
280.267	4490.9
286.176	4470.9
292.079	4487.9
297.975	4451.9
303.865	4401.9
309.748	4414.9
315.625	4374.9
321.495	4401.9
327.359	4427.9
333.217	4390.9
339.068	4388.9
344.912	4429.9
350.751	4410.9
356.583	4415.9
362.408	4427.9
368.227	4433.9
374.04	4475.9
379.847	4473.9
385.647	4494.9
391.44	4515.9
397.228	4528.9
403.009	4559.9
408.784	4595.9
414.553	4583.9
420.315	4632.9
426.071	4617.9
431.821	4575.9
437.565	4590.9
443.302	4610.9
449.033	4585.9
454.758	4536.9
460.477	4557.9
466.189	4552.9
471.896	4472.9
477.596	4447.9
483.29	4416.9
488.978	4438.9
494.66	4410.9
500.335	4328.9
506.005	4226.9
511.668	4057.9
517.325	3920.9
522.977	3818.9
528.622	3744.9
534.261	3708.9
539.894	3634.9
545.521	3617.9
551.141	3601.9
556.756	3541.9
562.365	3564.9
567.968	3518.9
573.565	3477.9
579.155	3455.9
584.74	3477.9
590.319	3487.9
595.892	3428.9
601.459	3464.9
607.02	3440.9
612.575	3407.9
618.124	3375.9
623.667	3341.9
629.204	3306.9
634.735	3280.9
640.261	3244.9
645.781	3257.9
651.294	3225.9
656.802	3236.9
662.304	3208.9
667.8	3178.9
673.29	3188.9
678.775	3182.9
684.254	3165.9
689.726	3139.9
695.193	3178.9
700.655	3114.9
706.11	3111.9
711.56	3080.9
717.004	3076.9
722.442	3059.9
727.874	3051.9
733.301	3045.9
738.722	3050.9
744.137	3014.9
749.547	3014.9
754.951	2994.9
760.349	3004.9
765.741	3011.9
771.128	3038.9
776.509	3054.9
781.885	3063.9
787.254	3099.9
792.618	3099.9
797.977	3064.9
803.33	3076.9
808.677	3033.9
814.019	3003.9
819.355	2975.9
824.686	2975.9
830.011	2959.9
835.33	2943.9
840.644	2923.9
845.952	2926.9
851.255	2936.9
856.552	2914.9
861.844	2884.9
867.13	2892.9
872.41	2877.9
877.686	2855.9
882.955	2834.9
888.219	2823.9
893.478	2783.9
898.731	2748.9
903.979	2689.9
909.221	2653.9
914.458	2653.9
919.69	2658.9
924.916	2673.9
930.136	2663.9
935.351	2670.9
940.561	2673.9
945.766	2662.9
950.965	2654.9
956.158	2621.9
961.347	2568.9
966.529	2581.9
971.707	2539.9
976.879	2498.9
982.046	2448.9
987.208	2468.9
992.364	2454.9
997.515	2482.9
1002.66	2484.9
1007.801	2520.9
1012.936	2527.9
1018.066	2549.9
1023.19	2557.9
1028.309	2557.9
1033.423	2556.9
1038.532	2557.9
1043.636	2520.9
1048.734	2501.9
1053.827	2475.9
1058.915	2454.9
1063.998	2431.9
1069.075	2430.9
1074.147	2412.9
1079.214	2421.9
1084.276	2430.9
1089.333	2444.9
1094.385	2455.9
1099.431	2449.9
1104.472	2446.9
1109.509	2429.9
1114.54	2399.9
1119.565	2369.9
1124.586	2313.9
1129.602	2308.9
1134.613	2291.9
1139.618	2271.9
1144.619	2258.9
1149.614	2267.9
1154.604	2279.9
1159.589	2267.9
1164.57	2285.9
1169.545	2265.9
1174.515	2299.9
1179.48	2279.9
1184.44	2261.9
1189.395	2216.9
1194.345	2196.9
1199.29	2201.9
1204.23	2207.9
1209.165	2201.9
1214.095	2229.9
1219.021	2254.9
1223.941	2256.9
1228.856	2262.9
1233.766	2264.9
1238.672	2260.9
1243.572	2258.9
1248.467	2235.9
1253.358	2220.9
1258.244	2201.9
1263.124	2136.9
1268	2094.9
1272.871	2106.9
1277.737	2064.9
1282.599	2071.9
1287.455	2064.9
1292.306	2072.9
1297.153	2067.9
1301.995	2107.9
1306.832	2097.9
1311.664	2124.9
1316.491	2121.9
1321.314	2095.9
1326.132	2105.9
1330.945	2081.9
1335.753	2035.9
1340.556	2027.9
1345.354	1982.9
1350.148	1952.9
1354.937	1920.9
1359.722	1884.9
1364.501	1847.9
1369.276	1816.9
1374.046	1791.9
1378.811	1781.9
1383.572	1760.9
1388.327	1776.9
1393.079	1802.9
1397.825	1763.9
1402.567	1777.9
1407.304	1765.9
1412.036	1769.9
1416.764	1773.9
1421.487	1783.9
1426.205	1783.9
1430.919	1773.9
1435.628	1811.9
1440.333	1821.9
1445.032	1811.9
1449.727	1845.9
1454.418	1874.9
1459.104	1854.9
1463.785	1814.9
1468.462	1791.9
1473.134	1769.9
1477.802	1722.9
1482.465	1674.9
1487.123	1631.9
1491.777	1617.9
1496.426	1605.9
1501.071	1578.9
1505.711	1596.9
1510.347	1574.9
1514.978	1567.9
1519.604	1568.9
1524.226	1555.9
1528.844	1551.9
1533.457	1537.9
1538.065	1542.9
1542.669	1548.9
1547.269	1539.9
1551.864	1526.9
1556.454	1565.9
1561.041	1560.9
1565.622	1596.9
1570.199	1585.9
1574.772	1622.9
1579.34	1620.9
1583.904	1626.9
1588.464	1649.9
1593.019	1666.9
1597.569	1654.9
1602.115	1671.9
1606.657	1654.9
1611.195	1660.9
1615.728	1639.9
1620.256	1640.9
1624.78	1643.9
1629.3	1623.9
1633.816	1653.9
1638.327	1640.9
1642.834	1637.9
1647.336	1678.9
1651.834	1665.9
1656.328	1662.9
1660.817	1651.9
1665.302	1636.9
1669.783	1607.9
1674.259	1586.9
1678.732	1529.9
1683.199	1475.9
1687.663	1443.9
1692.122	1400.9
1696.577	1339.9
1701.028	1267.9
1705.474	1227.9
1709.917	1192.9
1714.355	1171.9
1718.788	1162.9
1723.218	1156.9
1727.643	1165.9
1732.064	1151.9
1736.481	1155.9
1740.893	1121.9
1745.301	1110.9
1749.705	1087.9
1754.105	1065.9
1758.501	1038.9
1762.893	1031.9
1767.28	1014.9
1771.663	1007.9
1776.042	1002.9
1780.417	980.9
1784.787	975.9
1789.154	963.9
1793.516	944.9
1797.874	938.9
1802.228	922.9
1806.578	913.9
1810.924	910.9
1815.266	900.9
1819.603	890.9
1823.937	897.9
1828.266	889.9
1832.591	885.9
1836.913	893.9
1841.23	912.9
1845.543	890.9
1849.852	889.9
1854.156	891.9
1858.457	891.9
1862.754	903.9
1867.047	896.9
1871.335	899.9
1875.62	903.9
1879.9	894.9
1884.177	896.9
1888.449	886.9
1892.718	864.9
1896.982	852.9
1901.243	848.9
1905.499	828.9
1909.752	829.9
1914	798.9
1918.245	803.9
1922.485	793.9
1926.722	795.9
1930.954	792.9
1935.183	761.9
1939.408	774.9
1943.628	772.9
1947.845	749.9
1952.058	741.9
1956.267	746.9
1960.472	732.9
1964.673	733.9
1968.87	736.9
1973.063	721.9
1977.252	714.9
1981.438	727.9
1985.619	720.9
1989.797	724.9
1993.971	714.9
1998.14	735.9
2002.306	731.9
2006.469	728.9
2010.627	716.9
2014.781	740.9
2018.932	730.9
2023.078	718.9
2027.221	730.9
2031.36	727.9
2035.495	707.9
2039.627	700.9
2043.754	678.9
2047.878	676.9
2051.998	676.9
2056.114	676.9
2060.226	675.9
2064.334	667.9
2068.439	657.9
2072.54	657.9
2076.637	660.9
2080.73	666.9
2084.82	658.9
2088.906	648.9
2092.988	650.9
2097.066	649.9
2101.14	622.9
2105.211	625.9
2109.278	617.9
2113.342	598.9
2117.401	601.9
2121.457	589.9
2125.509	585.9
2129.558	580.9
2133.602	596.9
2137.643	592.9
2141.681	583.9
2145.714	589.9
2149.744	599.9
2153.77	590.9
2157.793	585.9
2161.812	574.9
2165.827	575.9
2169.838	561.9
2173.846	554.9
2177.851	540.9
2181.851	545.9
2185.848	540.9
2189.841	530.9
2193.831	531.9
2197.817	538.9
2201.799	520.9
2205.778	507.9
2209.753	511.9
2213.725	532.9
2217.693	508.9
2221.657	526.9
2225.618	521.9
2229.575	512.9
2233.529	512.9
2237.479	504.9
2241.425	503.9
2245.368	489.9
2249.307	483.9
2253.243	482.9
2257.175	471.9
2261.104	478.9
2265.029	457.9
2268.95	450.9
2272.868	448.9
2276.783	437.9
2280.694	436.9
2284.601	433.9
2288.505	434.9
2292.405	437.9
2296.302	427.9
2300.195	420.9
2304.085	415.9
2307.971	402.9
2311.854	399.9
2315.734	391.9
2319.609	377.9
2323.482	389.9
2327.351	401.9
2331.216	400.9
2335.078	411.9
2338.937	385.9
2342.792	373.9
2346.643	376.9
2350.492	379.9
2354.336	378.9
2358.178	380.9
2362.015	375.9
2365.85	378.9
2369.681	381.9
2373.508	378.9
2377.333	373.9
2381.153	377.9
2384.971	375.9
2388.785	368.9
2392.595	373.9
2396.402	366.9
2400.206	366.9
2404.007	374.9
2407.804	352.9
2411.597	357.9
2415.388	348.9
2419.174	359.9
2422.958	356.9
2426.738	353.9
2430.515	345.9
2434.289	352.9
2438.059	342.9
2441.825	342.9
2445.589	326.9
2449.349	331.9
2453.106	330.9
2456.859	324.9
2460.61	321.9
2464.356	316.9
2468.1	312.9
2471.84	308.9
2475.577	310.9
2479.311	296.9
2483.041	298.9
2486.768	302.9
2490.492	297.9
2494.213	304.9
2497.93	298.9
2501.644	290.9
2505.355	282.9
2509.062	277.9
2512.766	286.9
2516.467	275.9
2520.165	281.9
2523.859	279.9
2527.551	262.9
2531.239	263.9
2534.923	259.9
2538.605	250.9
2542.283	251.9
2545.958	250.9
2549.63	253.9
2553.299	238.9
2556.964	245.9
2560.626	238.9
2564.285	233.9
2567.941	235.9
2571.594	238.9
2575.243	234.9
2578.89	233.9
2582.533	217.9
2586.173	212.9
2589.809	214.9
2593.443	214.9
2597.073	225.9
2600.701	205.9
2604.325	198.9
2607.946	211.9
2611.564	206.9
2615.178	212.9
2618.79	203.9
2622.398	212.9
2626.004	204.9
2629.606	199.9
2633.205	191.9
2636.801	196.9
2640.394	196.9
2643.983	193.9
2647.57	189.9
2651.153	194.9
2654.734	185.9
2658.311	175.9
2661.885	178.9
2665.456	173.9
2669.025	179.9
2672.589	181.9
2676.151	186.9
2679.71	179.9
2683.266	171.9
2686.819	162.9
2690.368	159.9
2693.915	160.9
2697.458	148.9
2700.999	156.9
2704.536	155.9
2708.071	147.9
2711.602	152.9
2715.13	152.9
2718.656	140.9
2722.178	132.9
2725.697	133.9
2729.214	125.9
2732.727	143.9
2736.237	135.9
2739.744	137.9
2743.249	130.9
2746.75	129.9
2750.248	122.9
2753.743	123.9
2757.236	116.9
2760.725	109.9
2764.211	104.9
2767.695	110.9
2771.175	103.9
2774.652	110.9
2778.127	96.9
2781.598	102.9
2785.067	112.9
2788.532	109.9
2791.995	110.9
2795.455	107.9
2798.911	105.9
2802.365	116.9
2805.816	110.9
2809.264	109.9
2812.709	105.9
2816.151	113.9
2819.59	111.9
2823.026	116.9
2826.46	111.9
2829.89	113.9
2833.318	107.9
2836.742	107.9
2840.164	109.9
2843.583	116.9
2846.999	117.9
2850.412	114.9
2853.822	110.9
2857.229	113.9
2860.634	128.9
2864.035	119.9
2867.434	129.9
2870.83	134.9
2874.223	143.9
2877.613	143.9
2881	165.9
2884.385	157.9
2887.766	156.9
2891.145	151.9
2894.521	154.9
2897.894	160.9
2901.264	159.9
2904.631	152.9
2907.996	153.9
2911.358	158.9
2914.717	160.9
2918.073	173.9
2921.426	179.9
2924.777	181.9
2928.124	184.9
2931.469	181.9
2934.811	188.9
2938.15	197.9
2941.487	207.9
2944.821	204.9
2948.152	194.9
2951.48	203.9
2954.805	203.9
2958.128	188.9
2961.447	183.9
2964.765	191.9
2968.079	188.9
2971.39	185.9
2974.699	189.9
2978.005	183.9
2981.308	195.9
2984.609	188.9
2987.907	197.9
2991.202	195.9
2994.494	191.9
2997.784	188.9
3001.07	213.9
3004.355	206.9
3007.636	209.9
3010.915	206.9
3014.191	210.9
3017.464	216.9
3020.734	211.9
3024.002	212.9
3027.267	227.9
3030.53	229.9
3033.789	228.9
3037.046	234.9
3040.301	241.9
3043.552	244.9
3046.801	257.9
3050.048	259.9
3053.291	272.9
3056.532	281.9
3059.771	294.9
3063.006	299.9
3066.239	315.9
3069.469	328.9
3072.697	333.9
3075.922	338.9
3079.144	347.9
3082.364	358.9
3085.581	372.9
3088.795	377.9
3092.007	377.9
3095.216	382.9
3098.423	392.9
3101.627	402.9
3104.828	422.9
3108.026	427.9
3111.222	438.9
3114.416	433.9
3117.607	458.9
3120.795	456.9
3123.98	468.9
3127.163	468.9
3130.344	494.9
3133.521	503.9
3136.696	526.9
3139.869	526.9
3143.039	524.9
3146.206	532.9
3149.371	539.9
3152.533	551.9
3155.693	557.9
3158.85	562.9
3162.005	562.9
3165.157	577.9
3168.306	576.9
3171.453	576.9
3174.597	574.9
3177.739	589.9
3180.878	577.9
3184.014	589.9
3187.149	589.9
3190.28	578.9
3193.409	593.9
3196.536	585.9
3199.659	604.9
3202.781	604.9
3205.9	599.9
3209.016	592.9
3212.13	592.9
3215.241	599.9
3218.35	583.9
3221.456	583.9
3224.56	584.9
3227.661	565.9
3230.76	562.9
3233.856	548.9
3236.95	540.9
3240.041	523.9
3243.13	521.9
3246.216	513.9
3249.3	515.9
3252.382	493.9
3255.46	492.9
3258.537	498.9
3261.611	492.9
3264.682	490.9
3267.751	471.9
3270.818	461.9
3273.882	464.9
3276.943	470.9
3280.002	465.9
3283.059	459.9
3286.113	464.9
3289.165	458.9
3292.214	454.9
3295.261	445.9
3298.306	434.9
3301.348	441.9
3304.387	440.9
3307.425	423.9
3310.459	417.9
3313.492	418.9
3316.521	409.9
3319.549	406.9
3322.574	403.9
3325.597	406.9
3328.617	400.9
3331.635	404.9
3334.65	399.9
3337.663	388.9
3340.674	402.9
3343.682	399.9
3346.688	396.9
3349.691	397.9
3352.692	392.9
3355.691	393.9
3358.687	381.9
3361.681	386.9
3364.673	378.9
3367.662	377.9
3370.649	377.9
3373.633	358.9
3376.615	344.9
3379.595	345.9
3382.572	349.9
3385.547	342.9
3388.52	341.9
3391.49	331.9
3394.458	320.9
3397.424	315.9
3400.387	314.9
3403.348	306.9
3406.307	297.9
3409.263	304.9
3412.217	295.9
3415.168	290.9
3418.118	296.9
3421.065	277.9
3424.009	283.9
3426.951	265.9
3429.891	268.9
3432.829	254.9
3435.764	247.9
3438.697	253.9
3441.628	239.9
3444.557	242.9
3447.483	214.9
3450.407	212.9
3453.328	199.9
3456.247	182.9
3459.164	190.9
3462.079	170.9
3464.991	166.9
3467.902	162.9
3470.809	163.9
3473.715	147.9
3476.618	132.9
3479.519	138.9
3482.418	125.9
3485.315	118.9
3488.209	112.9
3491.101	109.9
3493.99	116.9
3496.878	106.9
3499.763	86.9
3502.646	80.9
3505.527	75.9
3508.405	72.9
3511.281	62.9
3514.155	62.9
3517.027	55.9
3519.897	48.9
3522.764	33.9
3525.629	34.9
3528.492	24.9
3531.352	27.9
3534.211	20.9
3537.067	16.9
3539.921	14.9
3542.773	4.9
3545.622	-2.1
3548.469	-11.1
3551.315	-7.1
3554.157	-17.1
3556.998	-25.1
3559.837	-21.1
3562.673	-26.1
3565.507	-29.1
3568.339	-32.1
3571.169	-46.1
3573.996	-42.1
3576.822	-42.1
3579.645	-35.1
3582.466	-44.1
3585.285	-54.1
3588.101	-38.1
3590.916	-56.1
3593.728	-60.1
3596.538	-62.1
3599.346	-58.1
3602.152	-61.1
3604.956	-63.1
3607.757	-67.1
3610.556	-64.1
3613.354	-63.1
3616.149	-79.1
3618.942	-82.1
3621.732	-80.1
3624.521	-75.1
3627.307	-76.1
3630.092	-79.1
3632.874	-81.1
3635.654	-88.1
3638.432	-86.1
3641.208	-84.1
3643.982	-94.1
3646.753	-93.1
3649.523	-92.1
3652.29	-84.1
3655.055	-92.1
3657.818	-96.1
3660.579	-98.1
3663.338	-96.1
3666.095	-100.1
3668.849	-99.1
3671.602	-106.1
3674.352	-94.1
3677.101	-107.1
3679.847	-104.1
3682.591	-112.1
3685.333	-105.1
3688.073	-110.1
3690.811	-113.1
3693.547	-112.1
3696.281	-115.1
3699.013	-111.1
3701.742	-111.1
3704.47	-114.1
3707.195	-109.1
3709.919	-118.1
3712.64	-112.1
3715.359	-118.1
3718.076	-115.1
3720.792	-118.1
3723.505	-122.1
3726.216	-114.1
3728.925	-124.1
3731.632	-121.1
3734.336	-127.1
3737.039	-124.1
3739.74	-121.1
3742.439	-126.1
3745.136	-120.1
3747.83	-129.1
3750.523	-127.1
3753.213	-122.1
3755.902	-122.1
3758.589	-125.1
3761.273	-114.1
3763.956	-119.1
3766.636	-123.1
3769.315	-116.1
3771.991	-121.1
3774.665	-130.1
3777.338	-121.1
3780.008	-125.1
3782.677	-128.1
3785.343	-124.1
3788.007	-126.1
3790.67	-121.1
3793.33	-126.1
3795.989	-127.1
3798.645	-124.1
3801.299	-127.1
3803.952	-132.1
3806.602	-121.1
3809.251	-130.1
3811.897	-133.1
3814.542	-132.1
3817.184	-123.1
3819.825	-134.1
3822.463	-131.1
3825.1	-126.1
3827.735	-125.1
3830.367	-130.1
3832.998	-131.1
3835.627	-127.1
3838.253	-131.1
3840.878	-128.1
3843.501	-127.1
3846.122	-130.1
3848.741	-133.1
3851.358	-126.1
3853.973	-127.1
3856.586	-129.1
3859.197	-129.1
3861.806	-122.1
3864.414	-129.1
3867.019	-126.1
3869.622	-124.1
3872.224	-113.1
3874.823	-101.1
3877.421	-89.1
3880.016	-65.1
3882.61	-34.1
3885.202	-36.1
3887.792	-57.1
3890.38	-90.1
3892.966	-116.1
3895.55	-121.1
3898.132	-122.1
3900.713	-126.1
3903.291	-131.1
3905.868	-132.1
3908.442	-128.1
3911.015	-133.1
3913.586	-134.1
3916.155	-131.1
3918.722	-134.1
3921.287	-130.1
3923.85	-132.1
3926.411	-134.1
3928.971	-127.1
3931.528	-137.1
3934.084	-131.1
3936.638	-127.1
3939.19	-139.1
3941.74	-136.1
3944.288	-128.1
3946.834	-129.1
3949.378	-132.1
3951.921	-130.1
3954.462	-134.1
3957	-130.1
3959.537	-128.1
3962.072	-137.1
3964.606	-128.1
3967.137	-126.1
3969.667	-131.1
3972.194	-134.1
3974.72	-129.1
3977.244	-138.1
3979.766	-132.1
3982.286	-129.1
3984.805	-133.1
3987.321	-128.1
3989.836	-123.1
3992.349	-131.1
3994.86	-131.1
3997.369	-129.1
3999.877	-134.1
4002.382	-130.1
4004.886	-134.1
4007.388	-133.1
4009.888	-125.1
4012.386	-133.1
4014.883	-128.1
4017.377	-133.1
4019.87	-132.1
4022.361	-137.1
4024.85	-134.1
4027.338	-129.1
4029.823	-123.1
4032.307	-125.1
4034.789	-132.1
4037.269	-132.1
4039.747	-126.1
4042.224	-131.1
4044.699	-130.1
4047.172	-131.1
4049.643	-126.1
4052.112	-126.1
4054.58	-128.1
4057.046	-128.1
4059.51	-128.1
4061.972	-130.1
4064.432	-128.1
4066.891	-129.1
4069.348	-125.1
4071.803	-135.1
4074.256	-131.1
4076.708	-127.1
4079.158	-133.1
4081.606	-125.1
4084.052	-130.1
4086.497	-130.1
4088.939	-121.1
4091.38	-124.1
4093.819	-127.1
4096.257	-138.1
4098.693	-134.1
4101.127	-135.1
4103.559	-132.1
4105.989	24.9
4108.418	5.9
4110.845	7.9
4113.27	2.9
4115.694	4.9
4118.115	4.9
4120.535	-131.1
4122.954	-134.1
4125.37	-130.1
4127.785	-131.1
4130.198	-128.1
4132.609	-134.1
4135.019	-137.1
4137.427	-139.1
4139.833	-136.1
4142.237	-138.1
