Data from 2018-2-8_conc=5_n=10_RamanShift_01.txt Node
Date: Mon Mar 12 16:20:28 IST 2018
User: aro
Spectrometer: QEPB0276
Trigger mode: 0
Integration Time (sec): 3.000000E1
Scans to average: 1
Electric dark correction enabled: true
Nonlinearity correction enabled: false
Boxcar width: 0
XAxis mode: Raman Shifts
Number of Pixels in Spectrum: 1044
>>>>>Begin Spectral Data<<<<<
160.701	22.8
166.742	44.8
172.777	114.8
178.805	330.8
184.826	862.8
190.841	1848.8
196.849	3084.8
202.85	3996.8
208.845	4343.8
214.833	4397.8
220.815	4301.8
226.789	4295.8
232.758	4317.8
238.719	4304.8
244.674	4252.8
250.623	4254.8
256.565	4190.8
262.5	4130.8
268.429	4076.8
274.351	4066.8
280.267	4021.8
286.176	4034.8
292.079	4025.8
297.975	4021.8
303.865	3992.8
309.748	3987.8
315.625	3969.8
321.495	3988.8
327.359	3965.8
333.217	3981.8
339.068	3982.8
344.912	3987.8
350.751	3996.8
356.583	4027.8
362.408	4027.8
368.227	4046.8
374.04	4056.8
379.847	4064.8
385.647	4097.8
391.44	4103.8
397.228	4100.8
403.009	4120.8
408.784	4170.8
414.553	4184.8
420.315	4214.8
426.071	4186.8
431.821	4189.8
437.565	4199.8
443.302	4175.8
449.033	4147.8
454.758	4173.8
460.477	4129.8
466.189	4109.8
471.896	4052.8
477.596	4031.8
483.29	3997.8
488.978	4004.8
494.66	3982.8
500.335	3954.8
506.005	3806.8
511.668	3665.8
517.325	3516.8
522.977	3388.8
528.622	3333.8
534.261	3281.8
539.894	3209.8
545.521	3172.8
551.141	3156.8
556.756	3123.8
562.365	3108.8
567.968	3089.8
573.565	3056.8
579.155	3039.8
584.74	3028.8
590.319	3032.8
595.892	3017.8
601.459	3024.8
607.02	2998.8
612.575	2976.8
618.124	2964.8
623.667	2922.8
629.204	2889.8
634.735	2858.8
640.261	2843.8
645.781	2812.8
651.294	2799.8
656.802	2808.8
662.304	2781.8
667.8	2783.8
673.29	2772.8
678.775	2777.8
684.254	2757.8
689.726	2777.8
695.193	2725.8
700.655	2723.8
706.11	2714.8
711.56	2690.8
717.004	2676.8
722.442	2648.8
727.874	2659.8
733.301	2651.8
738.722	2646.8
744.137	2610.8
749.547	2614.8
754.951	2621.8
760.349	2622.8
765.741	2630.8
771.128	2636.8
776.509	2681.8
781.885	2688.8
787.254	2685.8
792.618	2697.8
797.977	2695.8
803.33	2669.8
808.677	2641.8
814.019	2642.8
819.355	2626.8
824.686	2605.8
830.011	2586.8
835.33	2573.8
840.644	2567.8
845.952	2558.8
851.255	2547.8
856.552	2546.8
861.844	2507.8
867.13	2513.8
872.41	2472.8
877.686	2456.8
882.955	2434.8
888.219	2416.8
893.478	2399.8
898.731	2371.8
903.979	2318.8
909.221	2292.8
914.458	2288.8
919.69	2293.8
924.916	2316.8
930.136	2289.8
935.351	2303.8
940.561	2312.8
945.766	2299.8
950.965	2289.8
956.158	2273.8
961.347	2262.8
966.529	2225.8
971.707	2189.8
976.879	2146.8
982.046	2132.8
987.208	2143.8
992.364	2126.8
997.515	2162.8
1002.66	2160.8
1007.801	2192.8
1012.936	2214.8
1018.066	2199.8
1023.19	2204.8
1028.309	2213.8
1033.423	2213.8
1038.532	2189.8
1043.636	2183.8
1048.734	2178.8
1053.827	2144.8
1058.915	2100.8
1063.998	2086.8
1069.075	2088.8
1074.147	2089.8
1079.214	2102.8
1084.276	2108.8
1089.333	2117.8
1094.385	2122.8
1099.431	2128.8
1104.472	2107.8
1109.509	2121.8
1114.54	2058.8
1119.565	2045.8
1124.586	2002.8
1129.602	2000.8
1134.613	1992.8
1139.618	1960.8
1144.619	1964.8
1149.614	1937.8
1154.604	1963.8
1159.589	1958.8
1164.57	1974.8
1169.545	1980.8
1174.515	1975.8
1179.48	1972.8
1184.44	1947.8
1189.395	1942.8
1194.345	1913.8
1199.29	1900.8
1204.23	1908.8
1209.165	1921.8
1214.095	1915.8
1219.021	1949.8
1223.941	1952.8
1228.856	1948.8
1233.766	1967.8
1238.672	1957.8
1243.572	1960.8
1248.467	1933.8
1253.358	1916.8
1258.244	1888.8
1263.124	1849.8
1268	1843.8
1272.871	1802.8
1277.737	1775.8
1282.599	1793.8
1287.455	1788.8
1292.306	1790.8
1297.153	1807.8
1301.995	1819.8
1306.832	1821.8
1311.664	1833.8
1316.491	1815.8
1321.314	1816.8
1326.132	1827.8
1330.945	1786.8
1335.753	1761.8
1340.556	1771.8
1345.354	1727.8
1350.148	1700.8
1354.937	1682.8
1359.722	1664.8
1364.501	1620.8
1369.276	1591.8
1374.046	1560.8
1378.811	1549.8
1383.572	1543.8
1388.327	1541.8
1393.079	1540.8
1397.825	1548.8
1402.567	1542.8
1407.304	1531.8
1412.036	1535.8
1416.764	1530.8
1421.487	1531.8
1426.205	1530.8
1430.919	1534.8
1435.628	1551.8
1440.333	1570.8
1445.032	1572.8
1449.727	1608.8
1454.418	1604.8
1459.104	1608.8
1463.785	1585.8
1468.462	1547.8
1473.134	1533.8
1477.802	1500.8
1482.465	1496.8
1487.123	1439.8
1491.777	1435.8
1496.426	1418.8
1501.071	1425.8
1505.711	1405.8
1510.347	1405.8
1514.978	1419.8
1519.604	1414.8
1524.226	1401.8
1528.844	1382.8
1533.457	1367.8
1538.065	1382.8
1542.669	1360.8
1547.269	1368.8
1551.864	1362.8
1556.454	1396.8
1561.041	1387.8
1565.622	1394.8
1570.199	1382.8
1574.772	1401.8
1579.34	1424.8
1583.904	1434.8
1588.464	1436.8
1593.019	1472.8
1597.569	1469.8
1602.115	1441.8
1606.657	1449.8
1611.195	1427.8
1615.728	1445.8
1620.256	1428.8
1624.78	1455.8
1629.3	1441.8
1633.816	1461.8
1638.327	1457.8
1642.834	1445.8
1647.336	1478.8
1651.834	1475.8
1656.328	1489.8
1660.817	1455.8
1665.302	1461.8
1669.783	1433.8
1674.259	1407.8
1678.732	1380.8
1683.199	1336.8
1687.663	1305.8
1692.122	1265.8
1696.577	1223.8
1701.028	1168.8
1705.474	1134.8
1709.917	1099.8
1714.355	1080.8
1718.788	1069.8
1723.218	1063.8
1727.643	1065.8
1732.064	1039.8
1736.481	1030.8
1740.893	1027.8
1745.301	1010.8
1749.705	987.8
1754.105	946.8
1758.501	938.8
1762.893	923.8
1767.28	905.8
1771.663	926.8
1776.042	927.8
1780.417	896.8
1784.787	894.8
1789.154	885.8
1793.516	890.8
1797.874	872.8
1802.228	858.8
1806.578	844.8
1810.924	844.8
1815.266	837.8
1819.603	819.8
1823.937	823.8
1828.266	831.8
1832.591	825.8
1836.913	818.8
1841.23	801.8
1845.543	822.8
1849.852	817.8
1854.156	813.8
1858.457	824.8
1862.754	815.8
1867.047	815.8
1871.335	822.8
1875.62	831.8
1879.9	829.8
1884.177	822.8
1888.449	813.8
1892.718	797.8
1896.982	781.8
1901.243	776.8
1905.499	765.8
1909.752	760.8
1914	747.8
1918.245	752.8
1922.485	736.8
1926.722	746.8
1930.954	732.8
1935.183	730.8
1939.408	713.8
1943.628	721.8
1947.845	729.8
1952.058	714.8
1956.267	714.8
1960.472	703.8
1964.673	696.8
1968.87	677.8
1973.063	671.8
1977.252	680.8
1981.438	680.8
1985.619	676.8
1989.797	669.8
1993.971	660.8
1998.14	680.8
2002.306	658.8
2006.469	676.8
2010.627	669.8
2014.781	678.8
2018.932	663.8
2023.078	673.8
2027.221	658.8
2031.36	660.8
2035.495	658.8
2039.627	636.8
2043.754	622.8
2047.878	628.8
2051.998	627.8
2056.114	618.8
2060.226	612.8
2064.334	611.8
2068.439	607.8
2072.54	610.8
2076.637	609.8
2080.73	598.8
2084.82	616.8
2088.906	609.8
2092.988	598.8
2097.066	611.8
2101.14	594.8
2105.211	575.8
2109.278	567.8
2113.342	561.8
2117.401	552.8
2121.457	550.8
2125.509	539.8
2129.558	551.8
2133.602	551.8
2137.643	551.8
2141.681	550.8
2145.714	544.8
2149.744	540.8
2153.77	546.8
2157.793	544.8
2161.812	543.8
2165.827	521.8
2169.838	533.8
2173.846	507.8
2177.851	508.8
2181.851	491.8
2185.848	492.8
2189.841	498.8
2193.831	486.8
2197.817	485.8
2201.799	475.8
2205.778	469.8
2209.753	473.8
2213.725	468.8
2217.693	489.8
2221.657	472.8
2225.618	464.8
2229.575	467.8
2233.529	455.8
2237.479	458.8
2241.425	456.8
2245.368	444.8
2249.307	436.8
2253.243	427.8
2257.175	426.8
2261.104	422.8
2265.029	404.8
2268.95	417.8
2272.868	404.8
2276.783	397.8
2280.694	396.8
2284.601	390.8
2288.505	386.8
2292.405	375.8
2296.302	369.8
2300.195	380.8
2304.085	367.8
2307.971	353.8
2311.854	357.8
2315.734	339.8
2319.609	336.8
2323.482	334.8
2327.351	341.8
2331.216	351.8
2335.078	370.8
2338.937	347.8
2342.792	328.8
2346.643	319.8
2350.492	326.8
2354.336	331.8
2358.178	322.8
2362.015	322.8
2365.85	331.8
2369.681	328.8
2373.508	331.8
2377.333	328.8
2381.153	317.8
2384.971	325.8
2388.785	326.8
2392.595	315.8
2396.402	312.8
2400.206	318.8
2404.007	317.8
2407.804	306.8
2411.597	309.8
2415.388	305.8
2419.174	307.8
2422.958	294.8
2426.738	304.8
2430.515	301.8
2434.289	299.8
2438.059	294.8
2441.825	278.8
2445.589	284.8
2449.349	281.8
2453.106	285.8
2456.859	280.8
2460.61	285.8
2464.356	272.8
2468.1	261.8
2471.84	261.8
2475.577	263.8
2479.311	251.8
2483.041	259.8
2486.768	256.8
2490.492	252.8
2494.213	257.8
2497.93	245.8
2501.644	249.8
2505.355	245.8
2509.062	246.8
2512.766	244.8
2516.467	234.8
2520.165	238.8
2523.859	234.8
2527.551	227.8
2531.239	229.8
2534.923	216.8
2538.605	220.8
2542.283	221.8
2545.958	220.8
2549.63	220.8
2553.299	213.8
2556.964	214.8
2560.626	217.8
2564.285	205.8
2567.941	205.8
2571.594	200.8
2575.243	203.8
2578.89	194.8
2582.533	197.8
2586.173	192.8
2589.809	178.8
2593.443	191.8
2597.073	186.8
2600.701	177.8
2604.325	168.8
2607.946	175.8
2611.564	177.8
2615.178	167.8
2618.79	178.8
2622.398	180.8
2626.004	179.8
2629.606	170.8
2633.205	168.8
2636.801	156.8
2640.394	163.8
2643.983	156.8
2647.57	167.8
2651.153	157.8
2654.734	157.8
2658.311	149.8
2661.885	151.8
2665.456	159.8
2669.025	156.8
2672.589	150.8
2676.151	149.8
2679.71	145.8
2683.266	140.8
2686.819	145.8
2690.368	138.8
2693.915	132.8
2697.458	135.8
2700.999	131.8
2704.536	124.8
2708.071	128.8
2711.602	123.8
2715.13	133.8
2718.656	122.8
2722.178	114.8
2725.697	120.8
2729.214	106.8
2732.727	119.8
2736.237	112.8
2739.744	112.8
2743.249	110.8
2746.75	103.8
2750.248	111.8
2753.743	97.8
2757.236	105.8
2760.725	96.8
2764.211	93.8
2767.695	89.8
2771.175	91.8
2774.652	84.8
2778.127	97.8
2781.598	89.8
2785.067	105.8
2788.532	94.8
2791.995	96.8
2795.455	98.8
2798.911	89.8
2802.365	88.8
2805.816	90.8
2809.264	86.8
2812.709	100.8
2816.151	96.8
2819.59	95.8
2823.026	95.8
2826.46	84.8
2829.89	96.8
2833.318	92.8
2836.742	99.8
2840.164	94.8
2843.583	96.8
2846.999	93.8
2850.412	94.8
2853.822	90.8
2857.229	94.8
2860.634	98.8
2864.035	104.8
2867.434	112.8
2870.83	106.8
2874.223	119.8
2877.613	119.8
2881	132.8
2884.385	130.8
2887.766	121.8
2891.145	122.8
2894.521	126.8
2897.894	135.8
2901.264	127.8
2904.631	123.8
2907.996	129.8
2911.358	127.8
2914.717	128.8
2918.073	144.8
2921.426	142.8
2924.777	151.8
2928.124	149.8
2931.469	144.8
2934.811	159.8
2938.15	151.8
2941.487	161.8
2944.821	161.8
2948.152	169.8
2951.48	173.8
2954.805	163.8
2958.128	161.8
2961.447	154.8
2964.765	155.8
2968.079	156.8
2971.39	160.8
2974.699	164.8
2978.005	159.8
2981.308	171.8
2984.609	165.8
2987.907	167.8
2991.202	168.8
2994.494	172.8
2997.784	170.8
3001.07	181.8
3004.355	184.8
3007.636	178.8
3010.915	188.8
3014.191	178.8
3017.464	195.8
3020.734	184.8
3024.002	188.8
3027.267	202.8
3030.53	195.8
3033.789	210.8
3037.046	208.8
3040.301	201.8
3043.552	221.8
3046.801	220.8
3050.048	238.8
3053.291	238.8
3056.532	258.8
3059.771	264.8
3063.006	260.8
3066.239	269.8
3069.469	283.8
3072.697	286.8
3075.922	304.8
3079.144	311.8
3082.364	318.8
3085.581	331.8
3088.795	331.8
3092.007	343.8
3095.216	349.8
3098.423	349.8
3101.627	361.8
3104.828	367.8
3108.026	383.8
3111.222	380.8
3114.416	388.8
3117.607	398.8
3120.795	411.8
3123.98	417.8
3127.163	425.8
3130.344	443.8
3133.521	441.8
3136.696	456.8
3139.869	466.8
3143.039	472.8
3146.206	477.8
3149.371	497.8
3152.533	510.8
3155.693	513.8
3158.85	501.8
3162.005	522.8
3165.157	510.8
3168.306	520.8
3171.453	521.8
3174.597	534.8
3177.739	516.8
3180.878	528.8
3184.014	528.8
3187.149	523.8
3190.28	542.8
3193.409	522.8
3196.536	525.8
3199.659	539.8
3202.781	541.8
3205.9	538.8
3209.016	549.8
3212.13	541.8
3215.241	541.8
3218.35	524.8
3221.456	519.8
3224.56	515.8
3227.661	508.8
3230.76	513.8
3233.856	504.8
3236.95	482.8
3240.041	492.8
3243.13	471.8
3246.216	469.8
3249.3	461.8
3252.382	468.8
3255.46	459.8
3258.537	455.8
3261.611	456.8
3264.682	427.8
3267.751	439.8
3270.818	439.8
3273.882	434.8
3276.943	428.8
3280.002	430.8
3283.059	435.8
3286.113	426.8
3289.165	417.8
3292.214	412.8
3295.261	404.8
3298.306	401.8
3301.348	396.8
3304.387	392.8
3307.425	392.8
3310.459	374.8
3313.492	372.8
3316.521	372.8
3319.549	372.8
3322.574	356.8
3325.597	353.8
3328.617	371.8
3331.635	367.8
3334.65	362.8
3337.663	354.8
3340.674	355.8
3343.682	362.8
3346.688	355.8
3349.691	360.8
3352.692	348.8
3355.691	352.8
3358.687	358.8
3361.681	344.8
3364.673	344.8
3367.662	339.8
3370.649	325.8
3373.633	327.8
3376.615	307.8
3379.595	302.8
3382.572	315.8
3385.547	301.8
3388.52	307.8
3391.49	296.8
3394.458	298.8
3397.424	281.8
3400.387	291.8
3403.348	283.8
3406.307	268.8
3409.263	276.8
3412.217	259.8
3415.168	260.8
3418.118	261.8
3421.065	253.8
3424.009	244.8
3426.951	253.8
3429.891	236.8
3432.829	226.8
3435.764	223.8
3438.697	219.8
3441.628	215.8
3444.557	207.8
3447.483	203.8
3450.407	185.8
3453.328	177.8
3456.247	175.8
3459.164	162.8
3462.079	154.8
3464.991	151.8
3467.902	144.8
3470.809	145.8
3473.715	133.8
3476.618	125.8
3479.519	130.8
3482.418	116.8
3485.315	104.8
3488.209	99.8
3491.101	98.8
3493.99	104.8
3496.878	95.8
3499.763	80.8
3502.646	75.8
3505.527	70.8
3508.405	62.8
3511.281	58.8
3514.155	52.8
3517.027	52.8
3519.897	45.8
3522.764	40.8
3525.629	34.8
3528.492	27.8
3531.352	25.8
3534.211	15.8
3537.067	9.8
3539.921	7.8
3542.773	9.8
3545.622	-7.2
3548.469	-9.2
3551.315	-11.2
3554.157	-14.2
3556.998	-22.2
3559.837	-13.2
3562.673	-24.2
3565.507	-20.2
3568.339	-33.2
3571.169	-39.2
3573.996	-39.2
3576.822	-37.2
3579.645	-39.2
3582.466	-43.2
3585.285	-47.2
3588.101	-37.2
3590.916	-48.2
3593.728	-59.2
3596.538	-57.2
3599.346	-60.2
3602.152	-66.2
3604.956	-63.2
3607.757	-60.2
3610.556	-67.2
3613.354	-61.2
3616.149	-77.2
3618.942	-78.2
3621.732	-72.2
3624.521	-75.2
3627.307	-74.2
3630.092	-71.2
3632.874	-71.2
3635.654	-82.2
3638.432	-78.2
3641.208	-86.2
3643.982	-83.2
3646.753	-91.2
3649.523	-86.2
3652.29	-81.2
3655.055	-92.2
3657.818	-87.2
3660.579	-88.2
3663.338	-95.2
3666.095	-97.2
3668.849	-99.2
3671.602	-99.2
3674.352	-96.2
3677.101	-99.2
3679.847	-100.2
3682.591	-100.2
3685.333	-104.2
3688.073	-102.2
3690.811	-100.2
3693.547	-115.2
3696.281	-105.2
3699.013	-108.2
3701.742	-110.2
3704.47	-109.2
3707.195	-106.2
3709.919	-105.2
3712.64	-109.2
3715.359	-114.2
3718.076	-110.2
3720.792	-113.2
3723.505	-118.2
3726.216	-108.2
3728.925	-112.2
3731.632	-110.2
3734.336	-122.2
3737.039	-112.2
3739.74	-113.2
3742.439	-124.2
3745.136	-115.2
3747.83	-123.2
3750.523	-119.2
3753.213	-123.2
3755.902	-113.2
3758.589	-118.2
3761.273	-115.2
3763.956	-116.2
3766.636	-118.2
3769.315	-114.2
3771.991	-116.2
3774.665	-122.2
3777.338	-113.2
3780.008	-117.2
3782.677	-119.2
3785.343	-123.2
3788.007	-124.2
3790.67	-120.2
3793.33	-118.2
3795.989	-118.2
3798.645	-115.2
3801.299	-119.2
3803.952	-129.2
3806.602	-119.2
3809.251	-124.2
3811.897	-125.2
3814.542	-125.2
3817.184	-114.2
3819.825	-124.2
3822.463	-123.2
3825.1	-118.2
3827.735	-122.2
3830.367	-125.2
3832.998	-125.2
3835.627	-118.2
3838.253	-116.2
3840.878	-117.2
3843.501	-120.2
3846.122	-124.2
3848.741	-122.2
3851.358	-116.2
3853.973	-122.2
3856.586	-118.2
3859.197	-129.2
3861.806	-117.2
3864.414	-125.2
3867.019	-117.2
3869.622	-118.2
3872.224	-108.2
3874.823	-92.2
3877.421	-86.2
3880.016	-62.2
3882.61	-40.2
3885.202	-34.2
3887.792	-55.2
3890.38	-78.2
3892.966	-104.2
3895.55	-113.2
3898.132	-112.2
3900.713	-122.2
3903.291	-125.2
3905.868	-122.2
3908.442	-118.2
3911.015	-120.2
3913.586	-119.2
3916.155	-126.2
3918.722	-127.2
3921.287	-124.2
3923.85	-126.2
3926.411	-131.2
3928.971	-122.2
3931.528	-124.2
3934.084	-119.2
3936.638	-117.2
3939.19	-130.2
3941.74	-124.2
3944.288	-125.2
3946.834	-126.2
3949.378	-119.2
3951.921	-119.2
3954.462	-134.2
3957	-124.2
3959.537	-116.2
3962.072	-121.2
3964.606	-118.2
3967.137	-126.2
3969.667	-127.2
3972.194	-128.2
3974.72	-123.2
3977.244	-126.2
3979.766	-127.2
3982.286	-117.2
3984.805	-124.2
3987.321	-124.2
3989.836	-114.2
3992.349	-122.2
3994.86	-121.2
3997.369	-128.2
3999.877	-122.2
4002.382	-117.2
4004.886	-126.2
4007.388	-124.2
4009.888	-120.2
4012.386	-123.2
4014.883	-120.2
4017.377	-124.2
4019.87	-122.2
4022.361	-125.2
4024.85	-121.2
4027.338	-122.2
4029.823	-116.2
4032.307	-119.2
4034.789	-124.2
4037.269	-125.2
4039.747	-118.2
4042.224	-120.2
4044.699	-123.2
4047.172	-124.2
4049.643	-120.2
4052.112	-124.2
4054.58	-124.2
4057.046	-123.2
4059.51	-129.2
4061.972	-118.2
4064.432	-120.2
4066.891	-122.2
4069.348	-118.2
4071.803	-126.2
4074.256	-122.2
4076.708	-118.2
4079.158	-122.2
4081.606	-117.2
4084.052	-126.2
4086.497	-123.2
4088.939	-119.2
4091.38	-120.2
4093.819	-119.2
4096.257	-125.2
4098.693	-124.2
4101.127	-126.2
4103.559	-125.2
4105.989	23.8
4108.418	16.8
4110.845	11.8
4113.27	13.8
4115.694	9.8
4118.115	11.8
4120.535	-119.2
4122.954	-123.2
4125.37	-117.2
4127.785	-123.2
4130.198	-126.2
4132.609	-118.2
4135.019	-127.2
4137.427	-131.2
4139.833	-126.2
4142.237	-128.2
