Data from 2018-2-8_conc=3_n=4_RamanShift_01.txt Node
Date: Mon Mar 12 14:37:58 IST 2018
User: aro
Spectrometer: QEPB0276
Trigger mode: 0
Integration Time (sec): 3.000000E1
Scans to average: 1
Electric dark correction enabled: true
Nonlinearity correction enabled: false
Boxcar width: 0
XAxis mode: Raman Shifts
Number of Pixels in Spectrum: 1044
>>>>>Begin Spectral Data<<<<<
160.701	21.4
166.742	45.4
172.777	110.4
178.805	357.4
184.826	945.4
190.841	2021.4
196.849	3342.4
202.85	4405.4
208.845	4802.4
214.833	4813.4
220.815	4722.4
226.789	4721.4
232.758	4719.4
238.719	4709.4
244.674	4675.4
250.623	4620.4
256.565	4558.4
262.5	4505.4
268.429	4453.4
274.351	4409.4
280.267	4377.4
286.176	4352.4
292.079	4316.4
297.975	4321.4
303.865	4336.4
309.748	4296.4
315.625	4282.4
321.495	4305.4
327.359	4293.4
333.217	4292.4
339.068	4283.4
344.912	4277.4
350.751	4300.4
356.583	4320.4
362.408	4320.4
368.227	4342.4
374.04	4329.4
379.847	4365.4
385.647	4405.4
391.44	4389.4
397.228	4420.4
403.009	4447.4
408.784	4459.4
414.553	4505.4
420.315	4487.4
426.071	4496.4
431.821	4503.4
437.565	4484.4
443.302	4476.4
449.033	4475.4
454.758	4445.4
460.477	4435.4
466.189	4397.4
471.896	4369.4
477.596	4331.4
483.29	4318.4
488.978	4310.4
494.66	4297.4
500.335	4240.4
506.005	4115.4
511.668	3960.4
517.325	3820.4
522.977	3734.4
528.622	3649.4
534.261	3607.4
539.894	3552.4
545.521	3499.4
551.141	3481.4
556.756	3470.4
562.365	3417.4
567.968	3435.4
573.565	3383.4
579.155	3370.4
584.74	3365.4
590.319	3378.4
595.892	3343.4
601.459	3341.4
607.02	3344.4
612.575	3310.4
618.124	3260.4
623.667	3236.4
629.204	3202.4
634.735	3164.4
640.261	3161.4
645.781	3144.4
651.294	3129.4
656.802	3103.4
662.304	3122.4
667.8	3083.4
673.29	3093.4
678.775	3071.4
684.254	3071.4
689.726	3050.4
695.193	3061.4
700.655	3039.4
706.11	3023.4
711.56	2995.4
717.004	2991.4
722.442	2967.4
727.874	2955.4
733.301	2955.4
738.722	2939.4
744.137	2953.4
749.547	2922.4
754.951	2930.4
760.349	2934.4
765.741	2917.4
771.128	2929.4
776.509	2961.4
781.885	2986.4
787.254	2979.4
792.618	2983.4
797.977	2979.4
803.33	2969.4
808.677	2938.4
814.019	2924.4
819.355	2896.4
824.686	2883.4
830.011	2836.4
835.33	2864.4
840.644	2852.4
845.952	2836.4
851.255	2816.4
856.552	2807.4
861.844	2806.4
867.13	2769.4
872.41	2753.4
877.686	2745.4
882.955	2701.4
888.219	2700.4
893.478	2654.4
898.731	2616.4
903.979	2603.4
909.221	2559.4
914.458	2541.4
919.69	2568.4
924.916	2569.4
930.136	2576.4
935.351	2565.4
940.561	2580.4
945.766	2576.4
950.965	2568.4
956.158	2519.4
961.347	2511.4
966.529	2475.4
971.707	2431.4
976.879	2407.4
982.046	2382.4
987.208	2399.4
992.364	2385.4
997.515	2414.4
1002.66	2418.4
1007.801	2436.4
1012.936	2445.4
1018.066	2452.4
1023.19	2455.4
1028.309	2460.4
1033.423	2461.4
1038.532	2438.4
1043.636	2420.4
1048.734	2412.4
1053.827	2372.4
1058.915	2347.4
1063.998	2320.4
1069.075	2315.4
1074.147	2324.4
1079.214	2326.4
1084.276	2323.4
1089.333	2349.4
1094.385	2336.4
1099.431	2367.4
1104.472	2347.4
1109.509	2328.4
1114.54	2301.4
1119.565	2287.4
1124.586	2248.4
1129.602	2203.4
1134.613	2197.4
1139.618	2181.4
1144.619	2163.4
1149.614	2187.4
1154.604	2185.4
1159.589	2180.4
1164.57	2189.4
1169.545	2192.4
1174.515	2202.4
1179.48	2174.4
1184.44	2179.4
1189.395	2157.4
1194.345	2149.4
1199.29	2142.4
1204.23	2108.4
1209.165	2141.4
1214.095	2134.4
1219.021	2154.4
1223.941	2152.4
1228.856	2165.4
1233.766	2157.4
1238.672	2176.4
1243.572	2158.4
1248.467	2141.4
1253.358	2142.4
1258.244	2108.4
1263.124	2067.4
1268	2030.4
1272.871	2027.4
1277.737	1984.4
1282.599	1975.4
1287.455	1988.4
1292.306	1981.4
1297.153	1995.4
1301.995	1990.4
1306.832	2022.4
1311.664	2025.4
1316.491	2027.4
1321.314	2020.4
1326.132	2031.4
1330.945	1990.4
1335.753	1970.4
1340.556	1942.4
1345.354	1899.4
1350.148	1868.4
1354.937	1859.4
1359.722	1824.4
1364.501	1799.4
1369.276	1769.4
1374.046	1738.4
1378.811	1738.4
1383.572	1737.4
1388.327	1703.4
1393.079	1705.4
1397.825	1698.4
1402.567	1700.4
1407.304	1715.4
1412.036	1693.4
1416.764	1692.4
1421.487	1723.4
1426.205	1700.4
1430.919	1723.4
1435.628	1732.4
1440.333	1744.4
1445.032	1759.4
1449.727	1772.4
1454.418	1779.4
1459.104	1772.4
1463.785	1749.4
1468.462	1707.4
1473.134	1698.4
1477.802	1660.4
1482.465	1622.4
1487.123	1603.4
1491.777	1574.4
1496.426	1555.4
1501.071	1530.4
1505.711	1537.4
1510.347	1543.4
1514.978	1517.4
1519.604	1553.4
1524.226	1537.4
1528.844	1518.4
1533.457	1506.4
1538.065	1493.4
1542.669	1506.4
1547.269	1510.4
1551.864	1519.4
1556.454	1523.4
1561.041	1521.4
1565.622	1540.4
1570.199	1536.4
1574.772	1571.4
1579.34	1587.4
1583.904	1592.4
1588.464	1596.4
1593.019	1622.4
1597.569	1624.4
1602.115	1590.4
1606.657	1623.4
1611.195	1613.4
1615.728	1587.4
1620.256	1597.4
1624.78	1603.4
1629.3	1615.4
1633.816	1604.4
1638.327	1602.4
1642.834	1601.4
1647.336	1619.4
1651.834	1636.4
1656.328	1621.4
1660.817	1611.4
1665.302	1612.4
1669.783	1583.4
1674.259	1529.4
1678.732	1514.4
1683.199	1468.4
1687.663	1433.4
1692.122	1375.4
1696.577	1328.4
1701.028	1269.4
1705.474	1233.4
1709.917	1186.4
1714.355	1159.4
1718.788	1154.4
1723.218	1142.4
1727.643	1141.4
1732.064	1136.4
1736.481	1127.4
1740.893	1113.4
1745.301	1093.4
1749.705	1057.4
1754.105	1046.4
1758.501	1028.4
1762.893	1006.4
1767.28	1025.4
1771.663	1004.4
1776.042	990.4
1780.417	975.4
1784.787	961.4
1789.154	959.4
1793.516	962.4
1797.874	942.4
1802.228	930.4
1806.578	925.4
1810.924	908.4
1815.266	891.4
1819.603	895.4
1823.937	901.4
1828.266	900.4
1832.591	888.4
1836.913	882.4
1841.23	889.4
1845.543	888.4
1849.852	883.4
1854.156	888.4
1858.457	894.4
1862.754	895.4
1867.047	895.4
1871.335	891.4
1875.62	900.4
1879.9	880.4
1884.177	880.4
1888.449	870.4
1892.718	859.4
1896.982	844.4
1901.243	846.4
1905.499	827.4
1909.752	831.4
1914	813.4
1918.245	808.4
1922.485	805.4
1926.722	795.4
1930.954	779.4
1935.183	781.4
1939.408	772.4
1943.628	785.4
1947.845	767.4
1952.058	762.4
1956.267	773.4
1960.472	759.4
1964.673	732.4
1968.87	721.4
1973.063	723.4
1977.252	725.4
1981.438	736.4
1985.619	715.4
1989.797	724.4
1993.971	733.4
1998.14	734.4
2002.306	729.4
2006.469	737.4
2010.627	732.4
2014.781	744.4
2018.932	730.4
2023.078	723.4
2027.221	723.4
2031.36	725.4
2035.495	708.4
2039.627	688.4
2043.754	671.4
2047.878	681.4
2051.998	682.4
2056.114	669.4
2060.226	683.4
2064.334	663.4
2068.439	658.4
2072.54	668.4
2076.637	683.4
2080.73	661.4
2084.82	650.4
2088.906	655.4
2092.988	648.4
2097.066	637.4
2101.14	628.4
2105.211	624.4
2109.278	620.4
2113.342	601.4
2117.401	600.4
2121.457	602.4
2125.509	586.4
2129.558	598.4
2133.602	593.4
2137.643	599.4
2141.681	600.4
2145.714	585.4
2149.744	585.4
2153.77	595.4
2157.793	580.4
2161.812	588.4
2165.827	581.4
2169.838	558.4
2173.846	559.4
2177.851	549.4
2181.851	542.4
2185.848	530.4
2189.841	532.4
2193.831	522.4
2197.817	511.4
2201.799	512.4
2205.778	511.4
2209.753	519.4
2213.725	505.4
2217.693	512.4
2221.657	517.4
2225.618	511.4
2229.575	508.4
2233.529	507.4
2237.479	498.4
2241.425	495.4
2245.368	479.4
2249.307	478.4
2253.243	468.4
2257.175	463.4
2261.104	451.4
2265.029	444.4
2268.95	453.4
2272.868	431.4
2276.783	434.4
2280.694	422.4
2284.601	415.4
2288.505	423.4
2292.405	415.4
2296.302	414.4
2300.195	412.4
2304.085	405.4
2307.971	386.4
2311.854	386.4
2315.734	376.4
2319.609	372.4
2323.482	373.4
2327.351	368.4
2331.216	387.4
2335.078	399.4
2338.937	372.4
2342.792	363.4
2346.643	343.4
2350.492	347.4
2354.336	350.4
2358.178	360.4
2362.015	354.4
2365.85	364.4
2369.681	360.4
2373.508	351.4
2377.333	361.4
2381.153	348.4
2384.971	361.4
2388.785	354.4
2392.595	349.4
2396.402	336.4
2400.206	344.4
2404.007	348.4
2407.804	335.4
2411.597	335.4
2415.388	331.4
2419.174	328.4
2422.958	326.4
2426.738	331.4
2430.515	321.4
2434.289	318.4
2438.059	315.4
2441.825	311.4
2445.589	315.4
2449.349	299.4
2453.106	306.4
2456.859	306.4
2460.61	304.4
2464.356	297.4
2468.1	286.4
2471.84	291.4
2475.577	286.4
2479.311	285.4
2483.041	285.4
2486.768	278.4
2490.492	276.4
2494.213	273.4
2497.93	262.4
2501.644	261.4
2505.355	264.4
2509.062	268.4
2512.766	266.4
2516.467	257.4
2520.165	259.4
2523.859	257.4
2527.551	260.4
2531.239	239.4
2534.923	241.4
2538.605	243.4
2542.283	246.4
2545.958	234.4
2549.63	229.4
2553.299	222.4
2556.964	236.4
2560.626	227.4
2564.285	214.4
2567.941	221.4
2571.594	219.4
2575.243	210.4
2578.89	203.4
2582.533	201.4
2586.173	202.4
2589.809	196.4
2593.443	205.4
2597.073	191.4
2600.701	189.4
2604.325	180.4
2607.946	187.4
2611.564	192.4
2615.178	188.4
2618.79	198.4
2622.398	187.4
2626.004	183.4
2629.606	173.4
2633.205	180.4
2636.801	174.4
2640.394	184.4
2643.983	183.4
2647.57	178.4
2651.153	169.4
2654.734	174.4
2658.311	160.4
2661.885	156.4
2665.456	168.4
2669.025	167.4
2672.589	166.4
2676.151	154.4
2679.71	156.4
2683.266	153.4
2686.819	152.4
2690.368	142.4
2693.915	137.4
2697.458	144.4
2700.999	145.4
2704.536	141.4
2708.071	132.4
2711.602	130.4
2715.13	127.4
2718.656	135.4
2722.178	132.4
2725.697	123.4
2729.214	121.4
2732.727	125.4
2736.237	124.4
2739.744	114.4
2743.249	111.4
2746.75	123.4
2750.248	118.4
2753.743	111.4
2757.236	111.4
2760.725	118.4
2764.211	99.4
2767.695	99.4
2771.175	93.4
2774.652	98.4
2778.127	93.4
2781.598	99.4
2785.067	98.4
2788.532	105.4
2791.995	100.4
2795.455	105.4
2798.911	95.4
2802.365	105.4
2805.816	113.4
2809.264	101.4
2812.709	104.4
2816.151	111.4
2819.59	101.4
2823.026	104.4
2826.46	103.4
2829.89	96.4
2833.318	103.4
2836.742	103.4
2840.164	113.4
2843.583	108.4
2846.999	109.4
2850.412	99.4
2853.822	104.4
2857.229	100.4
2860.634	113.4
2864.035	122.4
2867.434	108.4
2870.83	119.4
2874.223	135.4
2877.613	132.4
2881	142.4
2884.385	148.4
2887.766	139.4
2891.145	138.4
2894.521	142.4
2897.894	148.4
2901.264	144.4
2904.631	149.4
2907.996	145.4
2911.358	143.4
2914.717	148.4
2918.073	155.4
2921.426	156.4
2924.777	164.4
2928.124	165.4
2931.469	170.4
2934.811	175.4
2938.15	173.4
2941.487	188.4
2944.821	184.4
2948.152	181.4
2951.48	183.4
2954.805	184.4
2958.128	183.4
2961.447	178.4
2964.765	191.4
2968.079	175.4
2971.39	178.4
2974.699	182.4
2978.005	178.4
2981.308	175.4
2984.609	187.4
2987.907	182.4
2991.202	190.4
2994.494	185.4
2997.784	195.4
3001.07	196.4
3004.355	205.4
3007.636	203.4
3010.915	201.4
3014.191	216.4
3017.464	224.4
3020.734	214.4
3024.002	217.4
3027.267	219.4
3030.53	222.4
3033.789	232.4
3037.046	228.4
3040.301	229.4
3043.552	243.4
3046.801	262.4
3050.048	269.4
3053.291	262.4
3056.532	275.4
3059.771	294.4
3063.006	297.4
3066.239	312.4
3069.469	313.4
3072.697	336.4
3075.922	330.4
3079.144	341.4
3082.364	361.4
3085.581	368.4
3088.795	373.4
3092.007	381.4
3095.216	377.4
3098.423	399.4
3101.627	407.4
3104.828	402.4
3108.026	407.4
3111.222	434.4
3114.416	434.4
3117.607	446.4
3120.795	448.4
3123.98	462.4
3127.163	479.4
3130.344	502.4
3133.521	499.4
3136.696	511.4
3139.869	513.4
3143.039	530.4
3146.206	540.4
3149.371	552.4
3152.533	552.4
3155.693	563.4
3158.85	565.4
3162.005	573.4
3165.157	568.4
3168.306	575.4
3171.453	578.4
3174.597	576.4
3177.739	586.4
3180.878	599.4
3184.014	606.4
3187.149	586.4
3190.28	578.4
3193.409	584.4
3196.536	593.4
3199.659	595.4
3202.781	612.4
3205.9	611.4
3209.016	610.4
3212.13	608.4
3215.241	596.4
3218.35	590.4
3221.456	585.4
3224.56	582.4
3227.661	585.4
3230.76	567.4
3233.856	573.4
3236.95	544.4
3240.041	548.4
3243.13	534.4
3246.216	537.4
3249.3	525.4
3252.382	520.4
3255.46	521.4
3258.537	512.4
3261.611	503.4
3264.682	498.4
3267.751	508.4
3270.818	507.4
3273.882	501.4
3276.943	482.4
3280.002	487.4
3283.059	486.4
3286.113	483.4
3289.165	470.4
3292.214	464.4
3295.261	462.4
3298.306	461.4
3301.348	450.4
3304.387	442.4
3307.425	442.4
3310.459	444.4
3313.492	418.4
3316.521	419.4
3319.549	417.4
3322.574	425.4
3325.597	404.4
3328.617	417.4
3331.635	408.4
3334.65	403.4
3337.663	403.4
3340.674	408.4
3343.682	408.4
3346.688	392.4
3349.691	414.4
3352.692	400.4
3355.691	402.4
3358.687	389.4
3361.681	397.4
3364.673	385.4
3367.662	385.4
3370.649	366.4
3373.633	369.4
3376.615	359.4
3379.595	350.4
3382.572	351.4
3385.547	348.4
3388.52	343.4
3391.49	335.4
3394.458	334.4
3397.424	318.4
3400.387	319.4
3403.348	316.4
3406.307	309.4
3409.263	310.4
3412.217	300.4
3415.168	297.4
3418.118	297.4
3421.065	283.4
3424.009	294.4
3426.951	283.4
3429.891	281.4
3432.829	263.4
3435.764	257.4
3438.697	249.4
3441.628	244.4
3444.557	237.4
3447.483	235.4
3450.407	222.4
3453.328	205.4
3456.247	202.4
3459.164	188.4
3462.079	182.4
3464.991	180.4
3467.902	168.4
3470.809	172.4
3473.715	150.4
3476.618	150.4
3479.519	147.4
3482.418	133.4
3485.315	129.4
3488.209	113.4
3491.101	131.4
3493.99	122.4
3496.878	111.4
3499.763	101.4
3502.646	96.4
3505.527	85.4
3508.405	87.4
3511.281	76.4
3514.155	73.4
3517.027	64.4
3519.897	55.4
3522.764	57.4
3525.629	41.4
3528.492	31.4
3531.352	34.4
3534.211	25.4
3537.067	14.4
3539.921	19.4
3542.773	13.4
3545.622	3.4
3548.469	-5.6
3551.315	-3.6
3554.157	-10.6
3556.998	-9.6
3559.837	-17.6
3562.673	-14.6
3565.507	-22.6
3568.339	-20.6
3571.169	-30.6
3573.996	-32.6
3576.822	-39.6
3579.645	-35.6
3582.466	-32.6
3585.285	-46.6
3588.101	-34.6
3590.916	-53.6
3593.728	-56.6
3596.538	-56.6
3599.346	-58.6
3602.152	-58.6
3604.956	-60.6
3607.757	-58.6
3610.556	-62.6
3613.354	-64.6
3616.149	-72.6
3618.942	-76.6
3621.732	-76.6
3624.521	-78.6
3627.307	-74.6
3630.092	-72.6
3632.874	-77.6
3635.654	-84.6
3638.432	-83.6
3641.208	-85.6
3643.982	-90.6
3646.753	-90.6
3649.523	-94.6
3652.29	-85.6
3655.055	-85.6
3657.818	-92.6
3660.579	-97.6
3663.338	-99.6
3666.095	-100.6
3668.849	-97.6
3671.602	-95.6
3674.352	-101.6
3677.101	-103.6
3679.847	-102.6
3682.591	-105.6
3685.333	-105.6
3688.073	-101.6
3690.811	-100.6
3693.547	-115.6
3696.281	-105.6
3699.013	-112.6
3701.742	-119.6
3704.47	-113.6
3707.195	-107.6
3709.919	-114.6
3712.64	-110.6
3715.359	-116.6
3718.076	-116.6
3720.792	-116.6
3723.505	-120.6
3726.216	-115.6
3728.925	-116.6
3731.632	-117.6
3734.336	-123.6
3737.039	-94.6
3739.74	-105.6
3742.439	-129.6
3745.136	-114.6
3747.83	-125.6
3750.523	-117.6
3753.213	-129.6
3755.902	-113.6
3758.589	-130.6
3761.273	-115.6
3763.956	-123.6
3766.636	-123.6
3769.315	-117.6
3771.991	-118.6
3774.665	-123.6
3777.338	-115.6
3780.008	-120.6
3782.677	-124.6
3785.343	-130.6
3788.007	-127.6
3790.67	-124.6
3793.33	-125.6
3795.989	-121.6
3798.645	-118.6
3801.299	-121.6
3803.952	-129.6
3806.602	-122.6
3809.251	-129.6
3811.897	-132.6
3814.542	-128.6
3817.184	-118.6
3819.825	-124.6
3822.463	-123.6
3825.1	-122.6
3827.735	-126.6
3830.367	-129.6
3832.998	-125.6
3835.627	-125.6
3838.253	-119.6
3840.878	-122.6
3843.501	-123.6
3846.122	-126.6
3848.741	-131.6
3851.358	-125.6
3853.973	-130.6
3856.586	-122.6
3859.197	-132.6
3861.806	-121.6
3864.414	-127.6
3867.019	-124.6
3869.622	-130.6
3872.224	-117.6
3874.823	-106.6
3877.421	-96.6
3880.016	-69.6
3882.61	-47.6
3885.202	-50.6
3887.792	-62.6
3890.38	-93.6
3892.966	-116.6
3895.55	-118.6
3898.132	-121.6
3900.713	-126.6
3903.291	-124.6
3905.868	-126.6
3908.442	-123.6
3911.015	-130.6
3913.586	-129.6
3916.155	-133.6
3918.722	-126.6
3921.287	-123.6
3923.85	-119.6
3926.411	-130.6
3928.971	-128.6
3931.528	-128.6
3934.084	-127.6
3936.638	-126.6
3939.19	-131.6
3941.74	-129.6
3944.288	-128.6
3946.834	-126.6
3949.378	-126.6
3951.921	-128.6
3954.462	-133.6
3957	-132.6
3959.537	-128.6
3962.072	-127.6
3964.606	-124.6
3967.137	-124.6
3969.667	-124.6
3972.194	-130.6
3974.72	-129.6
3977.244	-131.6
3979.766	-131.6
3982.286	-120.6
3984.805	-128.6
3987.321	-126.6
3989.836	-119.6
3992.349	-133.6
3994.86	-129.6
3997.369	-126.6
3999.877	-125.6
4002.382	-122.6
4004.886	-130.6
4007.388	-127.6
4009.888	-123.6
4012.386	-129.6
4014.883	-130.6
4017.377	-129.6
4019.87	-126.6
4022.361	-130.6
4024.85	-124.6
4027.338	-127.6
4029.823	-125.6
4032.307	-120.6
4034.789	-128.6
4037.269	-129.6
4039.747	-129.6
4042.224	-125.6
4044.699	-125.6
4047.172	-125.6
4049.643	-119.6
4052.112	-126.6
4054.58	-127.6
4057.046	-131.6
4059.51	-133.6
4061.972	-127.6
4064.432	-126.6
4066.891	-126.6
4069.348	-120.6
4071.803	-130.6
4074.256	-127.6
4076.708	-128.6
4079.158	-124.6
4081.606	-124.6
4084.052	-128.6
4086.497	-121.6
4088.939	-119.6
4091.38	-122.6
4093.819	-127.6
4096.257	-133.6
4098.693	-129.6
4101.127	-135.6
4103.559	-127.6
4105.989	14.4
4108.418	4.4
4110.845	7.4
4113.27	3.4
4115.694	-5.6
4118.115	-0.6
4120.535	-124.6
4122.954	-130.6
4125.37	-123.6
4127.785	-133.6
4130.198	-131.6
4132.609	-124.6
4135.019	-131.6
4137.427	-136.6
4139.833	-131.6
4142.237	-134.6
