Data from 2018-2-8_conc=6_n=3_RamanShift_01.txt Node
Date: Mon Mar 12 16:29:58 IST 2018
User: aro
Spectrometer: QEPB0276
Trigger mode: 0
Integration Time (sec): 3.000000E1
Scans to average: 1
Electric dark correction enabled: true
Nonlinearity correction enabled: false
Boxcar width: 0
XAxis mode: Raman Shifts
Number of Pixels in Spectrum: 1044
>>>>>Begin Spectral Data<<<<<
160.701	19.9
166.742	45.9
172.777	113.9
178.805	352.9
184.826	941.9
190.841	2012.9
196.849	3328.9
202.85	4313.9
208.845	4739.9
214.833	4743.9
220.815	4631.9
226.789	4647.9
232.758	4654.9
238.719	4644.9
244.674	4594.9
250.623	4557.9
256.565	4495.9
262.5	4443.9
268.429	4343.9
274.351	4330.9
280.267	4306.9
286.176	4266.9
292.079	4263.9
297.975	4242.9
303.865	4220.9
309.748	4219.9
315.625	4200.9
321.495	4184.9
327.359	4222.9
333.217	4209.9
339.068	4210.9
344.912	4239.9
350.751	4228.9
356.583	4242.9
362.408	4259.9
368.227	4255.9
374.04	4281.9
379.847	4303.9
385.647	4293.9
391.44	4326.9
397.228	4354.9
403.009	4371.9
408.784	4426.9
414.553	4414.9
420.315	4410.9
426.071	4406.9
431.821	4426.9
437.565	4401.9
443.302	4398.9
449.033	4406.9
454.758	4373.9
460.477	4360.9
466.189	4291.9
471.896	4284.9
477.596	4278.9
483.29	4256.9
488.978	4271.9
494.66	4208.9
500.335	4157.9
506.005	4022.9
511.668	3910.9
517.325	3732.9
522.977	3652.9
528.622	3572.9
534.261	3535.9
539.894	3473.9
545.521	3467.9
551.141	3419.9
556.756	3406.9
562.365	3379.9
567.968	3359.9
573.565	3337.9
579.155	3316.9
584.74	3286.9
590.319	3286.9
595.892	3294.9
601.459	3247.9
607.02	3258.9
612.575	3241.9
618.124	3207.9
623.667	3181.9
629.204	3160.9
634.735	3114.9
640.261	3092.9
645.781	3068.9
651.294	3056.9
656.802	3058.9
662.304	3058.9
667.8	3023.9
673.29	3043.9
678.775	3029.9
684.254	3022.9
689.726	3003.9
695.193	2988.9
700.655	2969.9
706.11	2935.9
711.56	2921.9
717.004	2924.9
722.442	2903.9
727.874	2906.9
733.301	2872.9
738.722	2875.9
744.137	2848.9
749.547	2863.9
754.951	2870.9
760.349	2840.9
765.741	2865.9
771.128	2887.9
776.509	2901.9
781.885	2943.9
787.254	2942.9
792.618	2950.9
797.977	2923.9
803.33	2900.9
808.677	2887.9
814.019	2856.9
819.355	2858.9
824.686	2840.9
830.011	2810.9
835.33	2800.9
840.644	2802.9
845.952	2794.9
851.255	2771.9
856.552	2761.9
861.844	2727.9
867.13	2736.9
872.41	2705.9
877.686	2685.9
882.955	2659.9
888.219	2637.9
893.478	2601.9
898.731	2585.9
903.979	2523.9
909.221	2526.9
914.458	2500.9
919.69	2512.9
924.916	2505.9
930.136	2494.9
935.351	2501.9
940.561	2610.9
945.766	2815.9
950.965	2741.9
956.158	2575.9
961.347	2477.9
966.529	2426.9
971.707	2406.9
976.879	2368.9
982.046	2341.9
987.208	2328.9
992.364	2330.9
997.515	2329.9
1002.66	2359.9
1007.801	2366.9
1012.936	2421.9
1018.066	2403.9
1023.19	2422.9
1028.309	2404.9
1033.423	2431.9
1038.532	2404.9
1043.636	2372.9
1048.734	2364.9
1053.827	2330.9
1058.915	2294.9
1063.998	2274.9
1069.075	2269.9
1074.147	2283.9
1079.214	2276.9
1084.276	2290.9
1089.333	2299.9
1094.385	2326.9
1099.431	2311.9
1104.472	2310.9
1109.509	2286.9
1114.54	2233.9
1119.565	2219.9
1124.586	2199.9
1129.602	2145.9
1134.613	2140.9
1139.618	2143.9
1144.619	2143.9
1149.614	2138.9
1154.604	2140.9
1159.589	2157.9
1164.57	2147.9
1169.545	2145.9
1174.515	2163.9
1179.48	2145.9
1184.44	2148.9
1189.395	2126.9
1194.345	2086.9
1199.29	2084.9
1204.23	2088.9
1209.165	2103.9
1214.095	2092.9
1219.021	2129.9
1223.941	2129.9
1228.856	2128.9
1233.766	2138.9
1238.672	2142.9
1243.572	2137.9
1248.467	2116.9
1253.358	2105.9
1258.244	2058.9
1263.124	2027.9
1268	1999.9
1272.871	1949.9
1277.737	1953.9
1282.599	1952.9
1287.455	1933.9
1292.306	1933.9
1297.153	1950.9
1301.995	1978.9
1306.832	1981.9
1311.664	1994.9
1316.491	1998.9
1321.314	1990.9
1326.132	1982.9
1330.945	1970.9
1335.753	1941.9
1340.556	1889.9
1345.354	1894.9
1350.148	1849.9
1354.937	1830.9
1359.722	1784.9
1364.501	1780.9
1369.276	1766.9
1374.046	1735.9
1378.811	1712.9
1383.572	1681.9
1388.327	1681.9
1393.079	1683.9
1397.825	1679.9
1402.567	1683.9
1407.304	1660.9
1412.036	1659.9
1416.764	1686.9
1421.487	1671.9
1426.205	1690.9
1430.919	1693.9
1435.628	1709.9
1440.333	1722.9
1445.032	1718.9
1449.727	1734.9
1454.418	1766.9
1459.104	1762.9
1463.785	1713.9
1468.462	1709.9
1473.134	1668.9
1477.802	1637.9
1482.465	1611.9
1487.123	1575.9
1491.777	1566.9
1496.426	1563.9
1501.071	1548.9
1505.711	1531.9
1510.347	1543.9
1514.978	1526.9
1519.604	1519.9
1524.226	1529.9
1528.844	1513.9
1533.457	1519.9
1538.065	1511.9
1542.669	1486.9
1547.269	1501.9
1551.864	1506.9
1556.454	1499.9
1561.041	1504.9
1565.622	1519.9
1570.199	1534.9
1574.772	1533.9
1579.34	1575.9
1583.904	1569.9
1588.464	1593.9
1593.019	1577.9
1597.569	1580.9
1602.115	1599.9
1606.657	1596.9
1611.195	1582.9
1615.728	1581.9
1620.256	1572.9
1624.78	1590.9
1629.3	1590.9
1633.816	1591.9
1638.327	1573.9
1642.834	1616.9
1647.336	1630.9
1651.834	1620.9
1656.328	1616.9
1660.817	1632.9
1665.302	1606.9
1669.783	1568.9
1674.259	1541.9
1678.732	1511.9
1683.199	1479.9
1687.663	1423.9
1692.122	1387.9
1696.577	1336.9
1701.028	1288.9
1705.474	1251.9
1709.917	1188.9
1714.355	1175.9
1718.788	1157.9
1723.218	1162.9
1727.643	1157.9
1732.064	1147.9
1736.481	1155.9
1740.893	1110.9
1745.301	1093.9
1749.705	1079.9
1754.105	1054.9
1758.501	1044.9
1762.893	1018.9
1767.28	1012.9
1771.663	1008.9
1776.042	1001.9
1780.417	981.9
1784.787	976.9
1789.154	964.9
1793.516	965.9
1797.874	962.9
1802.228	939.9
1806.578	925.9
1810.924	917.9
1815.266	915.9
1819.603	901.9
1823.937	897.9
1828.266	919.9
1832.591	898.9
1836.913	885.9
1841.23	900.9
1845.543	908.9
1849.852	893.9
1854.156	886.9
1858.457	908.9
1862.754	902.9
1867.047	893.9
1871.335	892.9
1875.62	892.9
1879.9	899.9
1884.177	883.9
1888.449	888.9
1892.718	881.9
1896.982	847.9
1901.243	853.9
1905.499	844.9
1909.752	834.9
1914	825.9
1918.245	825.9
1922.485	813.9
1926.722	791.9
1930.954	799.9
1935.183	793.9
1939.408	784.9
1943.628	787.9
1947.845	798.9
1952.058	785.9
1956.267	773.9
1960.472	763.9
1964.673	751.9
1968.87	749.9
1973.063	748.9
1977.252	728.9
1981.438	733.9
1985.619	739.9
1989.797	733.9
1993.971	730.9
1998.14	745.9
2002.306	723.9
2006.469	740.9
2010.627	749.9
2014.781	747.9
2018.932	741.9
2023.078	739.9
2027.221	732.9
2031.36	727.9
2035.495	718.9
2039.627	715.9
2043.754	676.9
2047.878	688.9
2051.998	684.9
2056.114	688.9
2060.226	686.9
2064.334	676.9
2068.439	684.9
2072.54	671.9
2076.637	674.9
2080.73	673.9
2084.82	674.9
2088.906	669.9
2092.988	666.9
2097.066	658.9
2101.14	644.9
2105.211	633.9
2109.278	618.9
2113.342	625.9
2117.401	610.9
2121.457	606.9
2125.509	611.9
2129.558	593.9
2133.602	608.9
2137.643	601.9
2141.681	604.9
2145.714	595.9
2149.744	602.9
2153.77	588.9
2157.793	591.9
2161.812	587.9
2165.827	569.9
2169.838	581.9
2173.846	561.9
2177.851	551.9
2181.851	539.9
2185.848	536.9
2189.841	534.9
2193.831	526.9
2197.817	518.9
2201.799	527.9
2205.778	521.9
2209.753	511.9
2213.725	513.9
2217.693	520.9
2221.657	509.9
2225.618	518.9
2229.575	523.9
2233.529	517.9
2237.479	512.9
2241.425	487.9
2245.368	480.9
2249.307	469.9
2253.243	475.9
2257.175	467.9
2261.104	466.9
2265.029	451.9
2268.95	451.9
2272.868	445.9
2276.783	435.9
2280.694	421.9
2284.601	425.9
2288.505	422.9
2292.405	424.9
2296.302	408.9
2300.195	414.9
2304.085	402.9
2307.971	391.9
2311.854	396.9
2315.734	366.9
2319.609	367.9
2323.482	375.9
2327.351	372.9
2331.216	386.9
2335.078	395.9
2338.937	379.9
2342.792	354.9
2346.643	351.9
2350.492	358.9
2354.336	360.9
2358.178	349.9
2362.015	349.9
2365.85	363.9
2369.681	353.9
2373.508	366.9
2377.333	361.9
2381.153	348.9
2384.971	359.9
2388.785	344.9
2392.595	347.9
2396.402	339.9
2400.206	340.9
2404.007	337.9
2407.804	339.9
2411.597	333.9
2415.388	330.9
2419.174	329.9
2422.958	319.9
2426.738	321.9
2430.515	319.9
2434.289	324.9
2438.059	319.9
2441.825	312.9
2445.589	313.9
2449.349	313.9
2453.106	300.9
2456.859	300.9
2460.61	306.9
2464.356	299.9
2468.1	293.9
2471.84	288.9
2475.577	283.9
2479.311	275.9
2483.041	283.9
2486.768	280.9
2490.492	278.9
2494.213	280.9
2497.93	274.9
2501.644	275.9
2505.355	267.9
2509.062	271.9
2512.766	263.9
2516.467	263.9
2520.165	264.9
2523.859	254.9
2527.551	258.9
2531.239	248.9
2534.923	231.9
2538.605	238.9
2542.283	238.9
2545.958	242.9
2549.63	236.9
2553.299	231.9
2556.964	234.9
2560.626	224.9
2564.285	225.9
2567.941	222.9
2571.594	213.9
2575.243	223.9
2578.89	214.9
2582.533	206.9
2586.173	207.9
2589.809	206.9
2593.443	203.9
2597.073	199.9
2600.701	191.9
2604.325	195.9
2607.946	197.9
2611.564	188.9
2615.178	196.9
2618.79	194.9
2622.398	194.9
2626.004	193.9
2629.606	189.9
2633.205	171.9
2636.801	178.9
2640.394	183.9
2643.983	181.9
2647.57	187.9
2651.153	173.9
2654.734	174.9
2658.311	159.9
2661.885	152.9
2665.456	168.9
2669.025	167.9
2672.589	165.9
2676.151	162.9
2679.71	161.9
2683.266	156.9
2686.819	156.9
2690.368	148.9
2693.915	145.9
2697.458	142.9
2700.999	145.9
2704.536	144.9
2708.071	132.9
2711.602	141.9
2715.13	138.9
2718.656	131.9
2722.178	128.9
2725.697	127.9
2729.214	127.9
2732.727	124.9
2736.237	125.9
2739.744	125.9
2743.249	122.9
2746.75	122.9
2750.248	113.9
2753.743	118.9
2757.236	120.9
2760.725	109.9
2764.211	115.9
2767.695	102.9
2771.175	97.9
2774.652	93.9
2778.127	102.9
2781.598	99.9
2785.067	106.9
2788.532	102.9
2791.995	101.9
2795.455	104.9
2798.911	97.9
2802.365	104.9
2805.816	109.9
2809.264	104.9
2812.709	109.9
2816.151	110.9
2819.59	106.9
2823.026	103.9
2826.46	99.9
2829.89	97.9
2833.318	102.9
2836.742	109.9
2840.164	107.9
2843.583	111.9
2846.999	111.9
2850.412	105.9
2853.822	112.9
2857.229	104.9
2860.634	110.9
2864.035	117.9
2867.434	120.9
2870.83	128.9
2874.223	141.9
2877.613	133.9
2881	142.9
2884.385	149.9
2887.766	139.9
2891.145	128.9
2894.521	135.9
2897.894	153.9
2901.264	150.9
2904.631	147.9
2907.996	147.9
2911.358	136.9
2914.717	150.9
2918.073	160.9
2921.426	158.9
2924.777	164.9
2928.124	169.9
2931.469	167.9
2934.811	173.9
2938.15	180.9
2941.487	189.9
2944.821	179.9
2948.152	179.9
2951.48	188.9
2954.805	185.9
2958.128	184.9
2961.447	176.9
2964.765	182.9
2968.079	176.9
2971.39	177.9
2974.699	181.9
2978.005	184.9
2981.308	187.9
2984.609	192.9
2987.907	188.9
2991.202	199.9
2994.494	191.9
2997.784	193.9
3001.07	202.9
3004.355	207.9
3007.636	213.9
3010.915	206.9
3014.191	211.9
3017.464	220.9
3020.734	209.9
3024.002	222.9
3027.267	232.9
3030.53	222.9
3033.789	231.9
3037.046	240.9
3040.301	249.9
3043.552	262.9
3046.801	254.9
3050.048	264.9
3053.291	271.9
3056.532	285.9
3059.771	301.9
3063.006	302.9
3066.239	314.9
3069.469	331.9
3072.697	328.9
3075.922	333.9
3079.144	343.9
3082.364	351.9
3085.581	377.9
3088.795	378.9
3092.007	388.9
3095.216	391.9
3098.423	396.9
3101.627	411.9
3104.828	414.9
3108.026	437.9
3111.222	431.9
3114.416	451.9
3117.607	454.9
3120.795	454.9
3123.98	464.9
3127.163	489.9
3130.344	496.9
3133.521	518.9
3136.696	519.9
3139.869	532.9
3143.039	535.9
3146.206	544.9
3149.371	560.9
3152.533	560.9
3155.693	572.9
3158.85	574.9
3162.005	583.9
3165.157	576.9
3168.306	578.9
3171.453	592.9
3174.597	582.9
3177.739	596.9
3180.878	596.9
3184.014	608.9
3187.149	599.9
3190.28	600.9
3193.409	610.9
3196.536	594.9
3199.659	605.9
3202.781	616.9
3205.9	615.9
3209.016	615.9
3212.13	609.9
3215.241	620.9
3218.35	607.9
3221.456	594.9
3224.56	584.9
3227.661	587.9
3230.76	562.9
3233.856	570.9
3236.95	556.9
3240.041	561.9
3243.13	542.9
3246.216	535.9
3249.3	545.9
3252.382	534.9
3255.46	523.9
3258.537	520.9
3261.611	516.9
3264.682	512.9
3267.751	503.9
3270.818	505.9
3273.882	504.9
3276.943	497.9
3280.002	488.9
3283.059	486.9
3286.113	486.9
3289.165	483.9
3292.214	481.9
3295.261	464.9
3298.306	465.9
3301.348	453.9
3304.387	451.9
3307.425	441.9
3310.459	450.9
3313.492	440.9
3316.521	435.9
3319.549	427.9
3322.574	428.9
3325.597	421.9
3328.617	433.9
3331.635	417.9
3334.65	419.9
3337.663	403.9
3340.674	411.9
3343.682	412.9
3346.688	407.9
3349.691	411.9
3352.692	401.9
3355.691	398.9
3358.687	389.9
3361.681	398.9
3364.673	393.9
3367.662	383.9
3370.649	378.9
3373.633	364.9
3376.615	369.9
3379.595	365.9
3382.572	349.9
3385.547	357.9
3388.52	348.9
3391.49	337.9
3394.458	335.9
3397.424	326.9
3400.387	315.9
3403.348	332.9
3406.307	315.9
3409.263	311.9
3412.217	306.9
3415.168	299.9
3418.118	297.9
3421.065	287.9
3424.009	287.9
3426.951	285.9
3429.891	280.9
3432.829	261.9
3435.764	259.9
3438.697	259.9
3441.628	243.9
3444.557	247.9
3447.483	234.9
3450.407	228.9
3453.328	209.9
3456.247	200.9
3459.164	185.9
3462.079	189.9
3464.991	182.9
3467.902	165.9
3470.809	177.9
3473.715	159.9
3476.618	149.9
3479.519	144.9
3482.418	139.9
3485.315	122.9
3488.209	117.9
3491.101	114.9
3493.99	129.9
3496.878	110.9
3499.763	97.9
3502.646	99.9
3505.527	82.9
3508.405	80.9
3511.281	78.9
3514.155	73.9
3517.027	65.9
3519.897	58.9
3522.764	52.9
3525.629	43.9
3528.492	35.9
3531.352	33.9
3534.211	29.9
3537.067	21.9
3539.921	20.9
3542.773	16.9
3545.622	9.9
3548.469	-0.1
3551.315	0.9
3554.157	-10.1
3556.998	-10.1
3559.837	-16.1
3562.673	-15.1
3565.507	-12.1
3568.339	-26.1
3571.169	-31.1
3573.996	-31.1
3576.822	-26.1
3579.645	-31.1
3582.466	-32.1
3585.285	-39.1
3588.101	-36.1
3590.916	-53.1
3593.728	-54.1
3596.538	-50.1
3599.346	-54.1
3602.152	-56.1
3604.956	-54.1
3607.757	-55.1
3610.556	-60.1
3613.354	-59.1
3616.149	-74.1
3618.942	-75.1
3621.732	-73.1
3624.521	-73.1
3627.307	-75.1
3630.092	-79.1
3632.874	-73.1
3635.654	-80.1
3638.432	-77.1
3641.208	-81.1
3643.982	-82.1
3646.753	-83.1
3649.523	-85.1
3652.29	-86.1
3655.055	-90.1
3657.818	-94.1
3660.579	-89.1
3663.338	-84.1
3666.095	-93.1
3668.849	-100.1
3671.602	-100.1
3674.352	-102.1
3677.101	-102.1
3679.847	-100.1
3682.591	-106.1
3685.333	-95.1
3688.073	-96.1
3690.811	-109.1
3693.547	-109.1
3696.281	-111.1
3699.013	-115.1
3701.742	-111.1
3704.47	-107.1
3707.195	-104.1
3709.919	-107.1
3712.64	-110.1
3715.359	-112.1
3718.076	-116.1
3720.792	-114.1
3723.505	-117.1
3726.216	-111.1
3728.925	-119.1
3731.632	-113.1
3734.336	-122.1
3737.039	-116.1
3739.74	-120.1
3742.439	-127.1
3745.136	-116.1
3747.83	-123.1
3750.523	-116.1
3753.213	-126.1
3755.902	-115.1
3758.589	-118.1
3761.273	-117.1
3763.956	-117.1
3766.636	-122.1
3769.315	-112.1
3771.991	-115.1
3774.665	-122.1
3777.338	-114.1
3780.008	-123.1
3782.677	-121.1
3785.343	-125.1
3788.007	-126.1
3790.67	-118.1
3793.33	-115.1
3795.989	-122.1
3798.645	-114.1
3801.299	-119.1
3803.952	-126.1
3806.602	-118.1
3809.251	-133.1
3811.897	-128.1
3814.542	-124.1
3817.184	-118.1
3819.825	-123.1
3822.463	-124.1
3825.1	-124.1
3827.735	-125.1
3830.367	-126.1
3832.998	-129.1
3835.627	-124.1
3838.253	-122.1
3840.878	-121.1
3843.501	-120.1
3846.122	-128.1
3848.741	-131.1
3851.358	-124.1
3853.973	-129.1
3856.586	-123.1
3859.197	-131.1
3861.806	-122.1
3864.414	-128.1
3867.019	-122.1
3869.622	-127.1
3872.224	-115.1
3874.823	-106.1
3877.421	-87.1
3880.016	-69.1
3882.61	-48.1
3885.202	-46.1
3887.792	-64.1
3890.38	-92.1
3892.966	-113.1
3895.55	-114.1
3898.132	-118.1
3900.713	-126.1
3903.291	-126.1
3905.868	-128.1
3908.442	-120.1
3911.015	-135.1
3913.586	-132.1
3916.155	-131.1
3918.722	-126.1
3921.287	-125.1
3923.85	-126.1
3926.411	-128.1
3928.971	-127.1
3931.528	-126.1
3934.084	-126.1
3936.638	-119.1
3939.19	-131.1
3941.74	-128.1
3944.288	-129.1
3946.834	-124.1
3949.378	-122.1
3951.921	-130.1
3954.462	-133.1
3957	-125.1
3959.537	-125.1
3962.072	-121.1
3964.606	-121.1
3967.137	-130.1
3969.667	-130.1
3972.194	-130.1
3974.72	-131.1
3977.244	-128.1
3979.766	-130.1
3982.286	-127.1
3984.805	-128.1
3987.321	-124.1
3989.836	-116.1
3992.349	-130.1
3994.86	-129.1
3997.369	-132.1
3999.877	-128.1
4002.382	-123.1
4004.886	-130.1
4007.388	-127.1
4009.888	-122.1
4012.386	-131.1
4014.883	-131.1
4017.377	-125.1
4019.87	-128.1
4022.361	-125.1
4024.85	-124.1
4027.338	-123.1
4029.823	-126.1
4032.307	-121.1
4034.789	-130.1
4037.269	-128.1
4039.747	-127.1
4042.224	-122.1
4044.699	-127.1
4047.172	-123.1
4049.643	-116.1
4052.112	-124.1
4054.58	-128.1
4057.046	-129.1
4059.51	-131.1
4061.972	-119.1
4064.432	-121.1
4066.891	-124.1
4069.348	-122.1
4071.803	-134.1
4074.256	-130.1
4076.708	-124.1
4079.158	-121.1
4081.606	-115.1
4084.052	-123.1
4086.497	-124.1
4088.939	-118.1
4091.38	-125.1
4093.819	-126.1
4096.257	-136.1
4098.693	-128.1
4101.127	-132.1
4103.559	-128.1
4105.989	14.9
4108.418	10.9
4110.845	4.9
4113.27	2.9
4115.694	3.9
4118.115	-5.1
4120.535	-124.1
4122.954	-130.1
4125.37	-123.1
4127.785	-124.1
4130.198	-121.1
4132.609	-126.1
4135.019	-129.1
4137.427	-137.1
4139.833	-133.1
4142.237	-133.1
