Data from 2018-2-8_conc=2_n=5_RamanShift_06.txt Node
Date: Mon Mar 12 14:11:58 IST 2018
User: aro
Spectrometer: QEPB0276
Trigger mode: 0
Integration Time (sec): 3.000000E1
Scans to average: 1
Electric dark correction enabled: true
Nonlinearity correction enabled: false
Boxcar width: 0
XAxis mode: Raman Shifts
Number of Pixels in Spectrum: 1044
>>>>>Begin Spectral Data<<<<<
160.701	0.8
166.742	37.8
172.777	118.8
178.805	386.8
184.826	1078.8
190.841	2340.8
196.849	3932.8
202.85	5186.8
208.845	5666.8
214.833	5626.8
220.815	5574.8
226.789	5557.8
232.758	5525.8
238.719	5511.8
244.674	5436.8
250.623	5402.8
256.565	5285.8
262.5	5188.8
268.429	5152.8
274.351	5075.8
280.267	5046.8
286.176	4999.8
292.079	4951.8
297.975	4935.8
303.865	4924.8
309.748	4869.8
315.625	4860.8
321.495	4833.8
327.359	4820.8
333.217	4821.8
339.068	4820.8
344.912	4863.8
350.751	4825.8
356.583	4859.8
362.408	4846.8
368.227	4858.8
374.04	4858.8
379.847	4872.8
385.647	4895.8
391.44	4900.8
397.228	4932.8
403.009	4948.8
408.784	4974.8
414.553	4961.8
420.315	4984.8
426.071	5011.8
431.821	5001.8
437.565	5022.8
443.302	4981.8
449.033	4966.8
454.758	4948.8
460.477	4960.8
466.189	4940.8
471.896	4875.8
477.596	4861.8
483.29	4827.8
488.978	4816.8
494.66	4806.8
500.335	4743.8
506.005	4651.8
511.668	4525.8
517.325	4409.8
522.977	4318.8
528.622	4243.8
534.261	4192.8
539.894	4150.8
545.521	4100.8
551.141	4060.8
556.756	4052.8
562.365	4034.8
567.968	4005.8
573.565	3977.8
579.155	3983.8
584.74	3965.8
590.319	3934.8
595.892	3942.8
601.459	3901.8
607.02	3903.8
612.575	3876.8
618.124	3813.8
623.667	3829.8
629.204	3795.8
634.735	3743.8
640.261	3717.8
645.781	3727.8
651.294	3698.8
656.802	3700.8
662.304	3672.8
667.8	3675.8
673.29	3650.8
678.775	3649.8
684.254	3640.8
689.726	3643.8
695.193	3630.8
700.655	3594.8
706.11	3611.8
711.56	3533.8
717.004	3547.8
722.442	3518.8
727.874	3493.8
733.301	3479.8
738.722	3485.8
744.137	3474.8
749.547	3485.8
754.951	3438.8
760.349	3469.8
765.741	3460.8
771.128	3477.8
776.509	3497.8
781.885	3511.8
787.254	3511.8
792.618	3523.8
797.977	3500.8
803.33	3451.8
808.677	3441.8
814.019	3416.8
819.355	3398.8
824.686	3385.8
830.011	3372.8
835.33	3343.8
840.644	3331.8
845.952	3349.8
851.255	3327.8
856.552	3331.8
861.844	3310.8
867.13	3295.8
872.41	3297.8
877.686	3294.8
882.955	3242.8
888.219	3223.8
893.478	3170.8
898.731	3124.8
903.979	3116.8
909.221	3060.8
914.458	3052.8
919.69	3048.8
924.916	3043.8
930.136	3050.8
935.351	3065.8
940.561	3082.8
945.766	3054.8
950.965	3033.8
956.158	3027.8
961.347	3001.8
966.529	2962.8
971.707	2935.8
976.879	2877.8
982.046	2839.8
987.208	2839.8
992.364	2849.8
997.515	2859.8
1002.66	2871.8
1007.801	2908.8
1012.936	2906.8
1018.066	2921.8
1023.19	2935.8
1028.309	2937.8
1033.423	2944.8
1038.532	2928.8
1043.636	2880.8
1048.734	2853.8
1053.827	2828.8
1058.915	2799.8
1063.998	2761.8
1069.075	2787.8
1074.147	2762.8
1079.214	2754.8
1084.276	2788.8
1089.333	2794.8
1094.385	2804.8
1099.431	2820.8
1104.472	2813.8
1109.509	2806.8
1114.54	2752.8
1119.565	2721.8
1124.586	2690.8
1129.602	2657.8
1134.613	2645.8
1139.618	2623.8
1144.619	2597.8
1149.614	2610.8
1154.604	2616.8
1159.589	2615.8
1164.57	2641.8
1169.545	2656.8
1174.515	2630.8
1179.48	2617.8
1184.44	2629.8
1189.395	2582.8
1194.345	2564.8
1199.29	2556.8
1204.23	2545.8
1209.165	2552.8
1214.095	2570.8
1219.021	2586.8
1223.941	2592.8
1228.856	2610.8
1233.766	2604.8
1238.672	2630.8
1243.572	2618.8
1248.467	2598.8
1253.358	2567.8
1258.244	2530.8
1263.124	2480.8
1268	2442.8
1272.871	2453.8
1277.737	2397.8
1282.599	2390.8
1287.455	2372.8
1292.306	2387.8
1297.153	2418.8
1301.995	2422.8
1306.832	2427.8
1311.664	2432.8
1316.491	2458.8
1321.314	2453.8
1326.132	2415.8
1330.945	2404.8
1335.753	2365.8
1340.556	2331.8
1345.354	2303.8
1350.148	2258.8
1354.937	2217.8
1359.722	2203.8
1364.501	2154.8
1369.276	2110.8
1374.046	2074.8
1378.811	2039.8
1383.572	2047.8
1388.327	2020.8
1393.079	2035.8
1397.825	2047.8
1402.567	2043.8
1407.304	2062.8
1412.036	2074.8
1416.764	2057.8
1421.487	2072.8
1426.205	2072.8
1430.919	2081.8
1435.628	2084.8
1440.333	2117.8
1445.032	2116.8
1449.727	2135.8
1454.418	2121.8
1459.104	2152.8
1463.785	2092.8
1468.462	2079.8
1473.134	2024.8
1477.802	1985.8
1482.465	1939.8
1487.123	1908.8
1491.777	1883.8
1496.426	1869.8
1501.071	1839.8
1505.711	1847.8
1510.347	1838.8
1514.978	1831.8
1519.604	1823.8
1524.226	1818.8
1528.844	1818.8
1533.457	1798.8
1538.065	1780.8
1542.669	1802.8
1547.269	1802.8
1551.864	1779.8
1556.454	1837.8
1561.041	1818.8
1565.622	1837.8
1570.199	1857.8
1574.772	1850.8
1579.34	1896.8
1583.904	1922.8
1588.464	1937.8
1593.019	1929.8
1597.569	1933.8
1602.115	1939.8
1606.657	1922.8
1611.195	1917.8
1615.728	1916.8
1620.256	1930.8
1624.78	1910.8
1629.3	1919.8
1633.816	1948.8
1638.327	1952.8
1642.834	1959.8
1647.336	1968.8
1651.834	1971.8
1656.328	1945.8
1660.817	1945.8
1665.302	1934.8
1669.783	1911.8
1674.259	1865.8
1678.732	1810.8
1683.199	1751.8
1687.663	1692.8
1692.122	1637.8
1696.577	1566.8
1701.028	1512.8
1705.474	1450.8
1709.917	1407.8
1714.355	1371.8
1718.788	1365.8
1723.218	1359.8
1727.643	1376.8
1732.064	1346.8
1736.481	1337.8
1740.893	1312.8
1745.301	1291.8
1749.705	1265.8
1754.105	1245.8
1758.501	1225.8
1762.893	1186.8
1767.28	1195.8
1771.663	1171.8
1776.042	1171.8
1780.417	1158.8
1784.787	1133.8
1789.154	1131.8
1793.516	1124.8
1797.874	1097.8
1802.228	1070.8
1806.578	1071.8
1810.924	1060.8
1815.266	1037.8
1819.603	1041.8
1823.937	1064.8
1828.266	1057.8
1832.591	1046.8
1836.913	1039.8
1841.23	1044.8
1845.543	1053.8
1849.852	1053.8
1854.156	1044.8
1858.457	1044.8
1862.754	1052.8
1867.047	1058.8
1871.335	1046.8
1875.62	1064.8
1879.9	1067.8
1884.177	1048.8
1888.449	1026.8
1892.718	1027.8
1896.982	993.8
1901.243	996.8
1905.499	982.8
1909.752	954.8
1914	953.8
1918.245	942.8
1922.485	920.8
1926.722	915.8
1930.954	920.8
1935.183	911.8
1939.408	905.8
1943.628	904.8
1947.845	898.8
1952.058	890.8
1956.267	877.8
1960.472	883.8
1964.673	854.8
1968.87	856.8
1973.063	844.8
1977.252	845.8
1981.438	848.8
1985.619	854.8
1989.797	834.8
1993.971	848.8
1998.14	865.8
2002.306	847.8
2006.469	864.8
2010.627	871.8
2014.781	862.8
2018.932	853.8
2023.078	863.8
2027.221	859.8
2031.36	844.8
2035.495	828.8
2039.627	824.8
2043.754	805.8
2047.878	811.8
2051.998	816.8
2056.114	792.8
2060.226	798.8
2064.334	802.8
2068.439	783.8
2072.54	787.8
2076.637	781.8
2080.73	779.8
2084.82	777.8
2088.906	768.8
2092.988	757.8
2097.066	750.8
2101.14	747.8
2105.211	736.8
2109.278	726.8
2113.342	709.8
2117.401	721.8
2121.457	713.8
2125.509	704.8
2129.558	702.8
2133.602	701.8
2137.643	703.8
2141.681	712.8
2145.714	700.8
2149.744	695.8
2153.77	696.8
2157.793	688.8
2161.812	690.8
2165.827	688.8
2169.838	681.8
2173.846	673.8
2177.851	647.8
2181.851	648.8
2185.848	639.8
2189.841	632.8
2193.831	636.8
2197.817	621.8
2201.799	615.8
2205.778	638.8
2209.753	609.8
2213.725	637.8
2217.693	611.8
2221.657	610.8
2225.618	614.8
2229.575	624.8
2233.529	605.8
2237.479	600.8
2241.425	594.8
2245.368	587.8
2249.307	581.8
2253.243	567.8
2257.175	567.8
2261.104	556.8
2265.029	544.8
2268.95	556.8
2272.868	532.8
2276.783	527.8
2280.694	518.8
2284.601	521.8
2288.505	510.8
2292.405	513.8
2296.302	511.8
2300.195	491.8
2304.085	495.8
2307.971	490.8
2311.854	486.8
2315.734	468.8
2319.609	463.8
2323.482	459.8
2327.351	465.8
2331.216	478.8
2335.078	488.8
2338.937	471.8
2342.792	444.8
2346.643	446.8
2350.492	439.8
2354.336	444.8
2358.178	448.8
2362.015	456.8
2365.85	446.8
2369.681	446.8
2373.508	455.8
2377.333	445.8
2381.153	444.8
2384.971	460.8
2388.785	459.8
2392.595	447.8
2396.402	441.8
2400.206	450.8
2404.007	435.8
2407.804	431.8
2411.597	431.8
2415.388	428.8
2419.174	429.8
2422.958	426.8
2426.738	420.8
2430.515	423.8
2434.289	421.8
2438.059	409.8
2441.825	392.8
2445.589	409.8
2449.349	390.8
2453.106	389.8
2456.859	392.8
2460.61	395.8
2464.356	383.8
2468.1	376.8
2471.84	377.8
2475.577	370.8
2479.311	361.8
2483.041	369.8
2486.768	367.8
2490.492	367.8
2494.213	376.8
2497.93	366.8
2501.644	346.8
2505.355	354.8
2509.062	339.8
2512.766	342.8
2516.467	336.8
2520.165	341.8
2523.859	341.8
2527.551	323.8
2531.239	317.8
2534.923	308.8
2538.605	314.8
2542.283	313.8
2545.958	310.8
2549.63	311.8
2553.299	308.8
2556.964	296.8
2560.626	297.8
2564.285	281.8
2567.941	286.8
2571.594	293.8
2575.243	280.8
2578.89	276.8
2582.533	259.8
2586.173	274.8
2589.809	262.8
2593.443	269.8
2597.073	255.8
2600.701	253.8
2604.325	258.8
2607.946	260.8
2611.564	247.8
2615.178	262.8
2618.79	253.8
2622.398	261.8
2626.004	255.8
2629.606	237.8
2633.205	244.8
2636.801	242.8
2640.394	242.8
2643.983	244.8
2647.57	235.8
2651.153	234.8
2654.734	242.8
2658.311	218.8
2661.885	222.8
2665.456	231.8
2669.025	225.8
2672.589	218.8
2676.151	219.8
2679.71	219.8
2683.266	217.8
2686.819	212.8
2690.368	205.8
2693.915	208.8
2697.458	200.8
2700.999	201.8
2704.536	196.8
2708.071	188.8
2711.602	180.8
2715.13	186.8
2718.656	182.8
2722.178	175.8
2725.697	171.8
2729.214	175.8
2732.727	171.8
2736.237	171.8
2739.744	163.8
2743.249	167.8
2746.75	174.8
2750.248	159.8
2753.743	160.8
2757.236	151.8
2760.725	152.8
2764.211	148.8
2767.695	147.8
2771.175	131.8
2774.652	129.8
2778.127	139.8
2781.598	133.8
2785.067	145.8
2788.532	149.8
2791.995	149.8
2795.455	151.8
2798.911	146.8
2802.365	146.8
2805.816	145.8
2809.264	148.8
2812.709	152.8
2816.151	150.8
2819.59	148.8
2823.026	149.8
2826.46	139.8
2829.89	144.8
2833.318	140.8
2836.742	153.8
2840.164	154.8
2843.583	158.8
2846.999	147.8
2850.412	153.8
2853.822	152.8
2857.229	159.8
2860.634	165.8
2864.035	164.8
2867.434	179.8
2870.83	181.8
2874.223	184.8
2877.613	179.8
2881	194.8
2884.385	197.8
2887.766	190.8
2891.145	193.8
2894.521	200.8
2897.894	203.8
2901.264	193.8
2904.631	203.8
2907.996	207.8
2911.358	197.8
2914.717	206.8
2918.073	213.8
2921.426	223.8
2924.777	232.8
2928.124	232.8
2931.469	227.8
2934.811	234.8
2938.15	240.8
2941.487	243.8
2944.821	260.8
2948.152	256.8
2951.48	250.8
2954.805	255.8
2958.128	240.8
2961.447	245.8
2964.765	244.8
2968.079	246.8
2971.39	247.8
2974.699	247.8
2978.005	245.8
2981.308	248.8
2984.609	254.8
2987.907	249.8
2991.202	257.8
2994.494	258.8
2997.784	272.8
3001.07	259.8
3004.355	278.8
3007.636	276.8
3010.915	264.8
3014.191	274.8
3017.464	277.8
3020.734	265.8
3024.002	281.8
3027.267	297.8
3030.53	292.8
3033.789	304.8
3037.046	309.8
3040.301	316.8
3043.552	323.8
3046.801	331.8
3050.048	342.8
3053.291	348.8
3056.532	367.8
3059.771	375.8
3063.006	396.8
3066.239	404.8
3069.469	411.8
3072.697	432.8
3075.922	435.8
3079.144	449.8
3082.364	461.8
3085.581	481.8
3088.795	469.8
3092.007	475.8
3095.216	497.8
3098.423	498.8
3101.627	522.8
3104.828	539.8
3108.026	544.8
3111.222	548.8
3114.416	563.8
3117.607	571.8
3120.795	592.8
3123.98	598.8
3127.163	610.8
3130.344	628.8
3133.521	633.8
3136.696	648.8
3139.869	667.8
3143.039	673.8
3146.206	675.8
3149.371	683.8
3152.533	704.8
3155.693	698.8
3158.85	703.8
3162.005	722.8
3165.157	707.8
3168.306	726.8
3171.453	725.8
3174.597	725.8
3177.739	734.8
3180.878	735.8
3184.014	755.8
3187.149	749.8
3190.28	742.8
3193.409	747.8
3196.536	752.8
3199.659	764.8
3202.781	763.8
3205.9	755.8
3209.016	748.8
3212.13	768.8
3215.241	750.8
3218.35	741.8
3221.456	741.8
3224.56	737.8
3227.661	711.8
3230.76	705.8
3233.856	700.8
3236.95	702.8
3240.041	687.8
3243.13	671.8
3246.216	664.8
3249.3	655.8
3252.382	662.8
3255.46	657.8
3258.537	644.8
3261.611	622.8
3264.682	624.8
3267.751	626.8
3270.818	622.8
3273.882	627.8
3276.943	603.8
3280.002	610.8
3283.059	596.8
3286.113	596.8
3289.165	605.8
3292.214	595.8
3295.261	584.8
3298.306	578.8
3301.348	565.8
3304.387	562.8
3307.425	553.8
3310.459	563.8
3313.492	547.8
3316.521	535.8
3319.549	533.8
3322.574	536.8
3325.597	530.8
3328.617	535.8
3331.635	530.8
3334.65	507.8
3337.663	513.8
3340.674	527.8
3343.682	519.8
3346.688	510.8
3349.691	522.8
3352.692	513.8
3355.691	509.8
3358.687	506.8
3361.681	509.8
3364.673	503.8
3367.662	492.8
3370.649	473.8
3373.633	480.8
3376.615	467.8
3379.595	457.8
3382.572	451.8
3385.547	447.8
3388.52	449.8
3391.49	433.8
3394.458	435.8
3397.424	425.8
3400.387	422.8
3403.348	411.8
3406.307	406.8
3409.263	402.8
3412.217	396.8
3415.168	384.8
3418.118	386.8
3421.065	375.8
3424.009	370.8
3426.951	366.8
3429.891	360.8
3432.829	348.8
3435.764	338.8
3438.697	339.8
3441.628	323.8
3444.557	316.8
3447.483	305.8
3450.407	289.8
3453.328	270.8
3456.247	273.8
3459.164	251.8
3462.079	241.8
3464.991	244.8
3467.902	229.8
3470.809	233.8
3473.715	211.8
3476.618	208.8
3479.519	201.8
3482.418	195.8
3485.315	171.8
3488.209	166.8
3491.101	173.8
3493.99	166.8
3496.878	150.8
3499.763	145.8
3502.646	144.8
3505.527	133.8
3508.405	123.8
3511.281	118.8
3514.155	116.8
3517.027	105.8
3519.897	95.8
3522.764	78.8
3525.629	75.8
3528.492	62.8
3531.352	63.8
3534.211	54.8
3537.067	34.8
3539.921	42.8
3542.773	42.8
3545.622	29.8
3548.469	28.8
3551.315	23.8
3554.157	12.8
3556.998	10.8
3559.837	5.8
3562.673	4.8
3565.507	1.8
3568.339	-9.2
3571.169	-22.2
3573.996	-9.2
3576.822	-16.2
3579.645	-14.2
3582.466	-26.2
3585.285	-28.2
3588.101	-24.2
3590.916	-38.2
3593.728	-46.2
3596.538	-33.2
3599.346	-46.2
3602.152	-49.2
3604.956	-49.2
3607.757	-50.2
3610.556	-55.2
3613.354	-53.2
3616.149	-67.2
3618.942	-65.2
3621.732	-67.2
3624.521	-66.2
3627.307	-64.2
3630.092	-71.2
3632.874	-69.2
3635.654	-76.2
3638.432	-71.2
3641.208	-73.2
3643.982	-76.2
3646.753	-85.2
3649.523	-85.2
3652.29	-80.2
3655.055	-85.2
3657.818	-84.2
3660.579	-90.2
3663.338	-87.2
3666.095	-95.2
3668.849	-93.2
3671.602	-92.2
3674.352	-99.2
3677.101	-100.2
3679.847	-97.2
3682.591	-99.2
3685.333	-95.2
3688.073	-101.2
3690.811	-102.2
3693.547	-114.2
3696.281	-109.2
3699.013	-112.2
3701.742	-112.2
3704.47	-106.2
3707.195	-108.2
3709.919	-109.2
3712.64	-112.2
3715.359	-117.2
3718.076	-115.2
3720.792	-118.2
3723.505	-117.2
3726.216	-112.2
3728.925	-117.2
3731.632	-115.2
3734.336	-119.2
3737.039	-115.2
3739.74	-119.2
3742.439	-128.2
3745.136	-113.2
3747.83	-124.2
3750.523	-121.2
3753.213	-130.2
3755.902	-122.2
3758.589	-125.2
3761.273	-120.2
3763.956	-117.2
3766.636	-125.2
3769.315	-119.2
3771.991	-120.2
3774.665	-127.2
3777.338	-117.2
3780.008	-124.2
3782.677	-124.2
3785.343	-123.2
3788.007	-124.2
3790.67	-127.2
3793.33	-122.2
3795.989	-117.2
3798.645	-119.2
3801.299	-121.2
3803.952	-132.2
3806.602	-118.2
3809.251	-134.2
3811.897	-134.2
3814.542	-125.2
3817.184	-120.2
3819.825	-128.2
3822.463	-123.2
3825.1	-126.2
3827.735	-124.2
3830.367	-126.2
3832.998	-135.2
3835.627	-131.2
3838.253	-126.2
3840.878	-123.2
3843.501	-121.2
3846.122	-125.2
3848.741	-130.2
3851.358	-122.2
3853.973	-128.2
3856.586	-128.2
3859.197	-134.2
3861.806	-125.2
3864.414	-127.2
3867.019	-126.2
3869.622	-126.2
3872.224	-119.2
3874.823	-118.2
3877.421	-106.2
3880.016	-91.2
3882.61	-74.2
3885.202	-67.2
3887.792	-83.2
3890.38	-100.2
3892.966	-117.2
3895.55	-124.2
3898.132	-127.2
3900.713	-127.2
3903.291	-128.2
3905.868	-128.2
3908.442	-124.2
3911.015	-130.2
3913.586	-127.2
3916.155	-131.2
3918.722	-131.2
3921.287	-131.2
3923.85	-125.2
3926.411	-133.2
3928.971	-130.2
3931.528	-131.2
3934.084	-129.2
3936.638	-131.2
3939.19	-132.2
3941.74	-136.2
3944.288	-132.2
3946.834	-127.2
3949.378	-129.2
3951.921	-133.2
3954.462	-136.2
3957	-131.2
3959.537	-129.2
3962.072	-129.2
3964.606	-131.2
3967.137	-130.2
3969.667	-128.2
3972.194	-134.2
3974.72	-127.2
3977.244	-130.2
3979.766	-134.2
3982.286	-128.2
3984.805	-136.2
3987.321	-129.2
3989.836	-122.2
3992.349	-124.2
3994.86	-130.2
3997.369	-127.2
3999.877	-129.2
4002.382	-124.2
4004.886	-133.2
4007.388	-126.2
4009.888	-127.2
4012.386	-129.2
4014.883	-129.2
4017.377	-128.2
4019.87	-129.2
4022.361	-130.2
4024.85	-127.2
4027.338	-126.2
4029.823	-128.2
4032.307	-125.2
4034.789	-128.2
4037.269	-131.2
4039.747	-127.2
4042.224	-126.2
4044.699	-129.2
4047.172	-128.2
4049.643	-131.2
4052.112	-127.2
4054.58	-129.2
4057.046	-129.2
4059.51	-130.2
4061.972	-130.2
4064.432	-129.2
4066.891	-130.2
4069.348	-122.2
4071.803	-130.2
4074.256	-125.2
4076.708	-125.2
4079.158	-132.2
4081.606	-124.2
4084.052	-133.2
4086.497	-132.2
4088.939	-123.2
4091.38	-123.2
4093.819	-127.2
4096.257	-135.2
4098.693	-129.2
4101.127	-133.2
4103.559	-134.2
4105.989	-22.2
4108.418	-14.2
4110.845	-21.2
4113.27	-16.2
4115.694	-12.2
4118.115	-9.2
4120.535	-135.2
4122.954	-136.2
4125.37	-128.2
4127.785	-130.2
4130.198	-128.2
4132.609	-121.2
4135.019	-130.2
4137.427	-137.2
4139.833	-138.2
4142.237	-138.2
