Data from 2018-2-8_conc=3_n=6_RamanShift_02.txt Node
Date: Mon Mar 12 14:44:58 IST 2018
User: aro
Spectrometer: QEPB0276
Trigger mode: 0
Integration Time (sec): 3.000000E1
Scans to average: 1
Electric dark correction enabled: true
Nonlinearity correction enabled: false
Boxcar width: 0
XAxis mode: Raman Shifts
Number of Pixels in Spectrum: 1044
>>>>>Begin Spectral Data<<<<<
160.701	13.6
166.742	49.6
172.777	116.6
178.805	335.6
184.826	896.6
190.841	1942.6
196.849	3228.6
202.85	4218.6
208.845	4653.6
214.833	4631.6
220.815	4561.6
226.789	4557.6
232.758	4596.6
238.719	4561.6
244.674	4560.6
250.623	4517.6
256.565	4454.6
262.5	4393.6
268.429	4323.6
274.351	4298.6
280.267	4281.6
286.176	4237.6
292.079	4228.6
297.975	4217.6
303.865	4211.6
309.748	4200.6
315.625	4212.6
321.495	4172.6
327.359	4197.6
333.217	4186.6
339.068	4203.6
344.912	4209.6
350.751	4227.6
356.583	4235.6
362.408	4226.6
368.227	4245.6
374.04	4275.6
379.847	4259.6
385.647	4291.6
391.44	4281.6
397.228	4309.6
403.009	4375.6
408.784	4372.6
414.553	4389.6
420.315	4393.6
426.071	4400.6
431.821	4378.6
437.565	4383.6
443.302	4380.6
449.033	4354.6
454.758	4365.6
460.477	4331.6
466.189	4330.6
471.896	4276.6
477.596	4236.6
483.29	4224.6
488.978	4214.6
494.66	4187.6
500.335	4165.6
506.005	4051.6
511.668	3903.6
517.325	3778.6
522.977	3679.6
528.622	3587.6
534.261	3529.6
539.894	3469.6
545.521	3446.6
551.141	3411.6
556.756	3404.6
562.365	3368.6
567.968	3359.6
573.565	3341.6
579.155	3307.6
584.74	3309.6
590.319	3295.6
595.892	3274.6
601.459	3277.6
607.02	3262.6
612.575	3242.6
618.124	3196.6
623.667	3174.6
629.204	3166.6
634.735	3130.6
640.261	3105.6
645.781	3108.6
651.294	3079.6
656.802	3056.6
662.304	3065.6
667.8	3037.6
673.29	3057.6
678.775	3021.6
684.254	3030.6
689.726	3013.6
695.193	3004.6
700.655	2975.6
706.11	2970.6
711.56	2970.6
717.004	2952.6
722.442	2922.6
727.874	2899.6
733.301	2887.6
738.722	2878.6
744.137	2866.6
749.547	2893.6
754.951	2864.6
760.349	2878.6
765.741	2872.6
771.128	2888.6
776.509	2907.6
781.885	2938.6
787.254	2948.6
792.618	2951.6
797.977	2945.6
803.33	2918.6
808.677	2885.6
814.019	2856.6
819.355	2850.6
824.686	2843.6
830.011	2799.6
835.33	2797.6
840.644	2806.6
845.952	2780.6
851.255	2775.6
856.552	2763.6
861.844	2757.6
867.13	2748.6
872.41	2715.6
877.686	2702.6
882.955	2657.6
888.219	2649.6
893.478	2610.6
898.731	2575.6
903.979	2556.6
909.221	2528.6
914.458	2496.6
919.69	2522.6
924.916	2528.6
930.136	2526.6
935.351	2537.6
940.561	2532.6
945.766	2515.6
950.965	2510.6
956.158	2510.6
961.347	2467.6
966.529	2445.6
971.707	2403.6
976.879	2389.6
982.046	2347.6
987.208	2346.6
992.364	2344.6
997.515	2359.6
1002.66	2370.6
1007.801	2390.6
1012.936	2408.6
1018.066	2403.6
1023.19	2418.6
1028.309	2415.6
1033.423	2420.6
1038.532	2406.6
1043.636	2382.6
1048.734	2368.6
1053.827	2333.6
1058.915	2305.6
1063.998	2289.6
1069.075	2281.6
1074.147	2281.6
1079.214	2275.6
1084.276	2289.6
1089.333	2322.6
1094.385	2318.6
1099.431	2319.6
1104.472	2310.6
1109.509	2309.6
1114.54	2272.6
1119.565	2256.6
1124.586	2221.6
1129.602	2181.6
1134.613	2159.6
1139.618	2132.6
1144.619	2141.6
1149.614	2135.6
1154.604	2144.6
1159.589	2160.6
1164.57	2155.6
1169.545	2162.6
1174.515	2156.6
1179.48	2141.6
1184.44	2144.6
1189.395	2122.6
1194.345	2117.6
1199.29	2074.6
1204.23	2098.6
1209.165	2098.6
1214.095	2107.6
1219.021	2120.6
1223.941	2131.6
1228.856	2130.6
1233.766	2149.6
1238.672	2162.6
1243.572	2138.6
1248.467	2123.6
1253.358	2116.6
1258.244	2076.6
1263.124	2029.6
1268	1987.6
1272.871	1979.6
1277.737	1961.6
1282.599	1943.6
1287.455	1949.6
1292.306	1979.6
1297.153	1951.6
1301.995	1985.6
1306.832	1993.6
1311.664	2009.6
1316.491	2001.6
1321.314	1990.6
1326.132	1998.6
1330.945	1967.6
1335.753	1919.6
1340.556	1905.6
1345.354	1882.6
1350.148	1850.6
1354.937	1815.6
1359.722	1773.6
1364.501	1774.6
1369.276	1714.6
1374.046	1705.6
1378.811	1683.6
1383.572	1677.6
1388.327	1673.6
1393.079	1671.6
1397.825	1649.6
1402.567	1678.6
1407.304	1683.6
1412.036	1661.6
1416.764	1678.6
1421.487	1689.6
1426.205	1679.6
1430.919	1695.6
1435.628	1696.6
1440.333	1725.6
1445.032	1720.6
1449.727	1745.6
1454.418	1752.6
1459.104	1726.6
1463.785	1712.6
1468.462	1671.6
1473.134	1655.6
1477.802	1609.6
1482.465	1589.6
1487.123	1553.6
1491.777	1538.6
1496.426	1543.6
1501.071	1523.6
1505.711	1514.6
1510.347	1517.6
1514.978	1494.6
1519.604	1498.6
1524.226	1505.6
1528.844	1481.6
1533.457	1468.6
1538.065	1473.6
1542.669	1484.6
1547.269	1455.6
1551.864	1476.6
1556.454	1483.6
1561.041	1495.6
1565.622	1508.6
1570.199	1502.6
1574.772	1511.6
1579.34	1544.6
1583.904	1553.6
1588.464	1549.6
1593.019	1557.6
1597.569	1557.6
1602.115	1569.6
1606.657	1558.6
1611.195	1547.6
1615.728	1544.6
1620.256	1545.6
1624.78	1531.6
1629.3	1555.6
1633.816	1553.6
1638.327	1573.6
1642.834	1557.6
1647.336	1568.6
1651.834	1571.6
1656.328	1588.6
1660.817	1584.6
1665.302	1558.6
1669.783	1525.6
1674.259	1502.6
1678.732	1480.6
1683.199	1433.6
1687.663	1388.6
1692.122	1357.6
1696.577	1281.6
1701.028	1235.6
1705.474	1179.6
1709.917	1162.6
1714.355	1144.6
1718.788	1121.6
1723.218	1135.6
1727.643	1135.6
1732.064	1113.6
1736.481	1105.6
1740.893	1079.6
1745.301	1069.6
1749.705	1044.6
1754.105	1020.6
1758.501	1006.6
1762.893	987.6
1767.28	981.6
1771.663	989.6
1776.042	983.6
1780.417	964.6
1784.787	928.6
1789.154	945.6
1793.516	945.6
1797.874	917.6
1802.228	906.6
1806.578	882.6
1810.924	882.6
1815.266	876.6
1819.603	871.6
1823.937	868.6
1828.266	878.6
1832.591	879.6
1836.913	865.6
1841.23	867.6
1845.543	866.6
1849.852	859.6
1854.156	858.6
1858.457	856.6
1862.754	870.6
1867.047	879.6
1871.335	882.6
1875.62	858.6
1879.9	871.6
1884.177	876.6
1888.449	858.6
1892.718	847.6
1896.982	819.6
1901.243	824.6
1905.499	820.6
1909.752	809.6
1914	785.6
1918.245	796.6
1922.485	768.6
1926.722	774.6
1930.954	782.6
1935.183	778.6
1939.408	765.6
1943.628	768.6
1947.845	751.6
1952.058	745.6
1956.267	734.6
1960.472	733.6
1964.673	730.6
1968.87	714.6
1973.063	708.6
1977.252	695.6
1981.438	708.6
1985.619	699.6
1989.797	695.6
1993.971	710.6
1998.14	708.6
2002.306	708.6
2006.469	703.6
2010.627	715.6
2014.781	717.6
2018.932	708.6
2023.078	698.6
2027.221	699.6
2031.36	691.6
2035.495	682.6
2039.627	670.6
2043.754	671.6
2047.878	658.6
2051.998	655.6
2056.114	650.6
2060.226	655.6
2064.334	654.6
2068.439	651.6
2072.54	646.6
2076.637	635.6
2080.73	640.6
2084.82	633.6
2088.906	624.6
2092.988	633.6
2097.066	625.6
2101.14	617.6
2105.211	612.6
2109.278	598.6
2113.342	585.6
2117.401	592.6
2121.457	586.6
2125.509	579.6
2129.558	584.6
2133.602	583.6
2137.643	574.6
2141.681	573.6
2145.714	579.6
2149.744	564.6
2153.77	570.6
2157.793	561.6
2161.812	566.6
2165.827	558.6
2169.838	551.6
2173.846	535.6
2177.851	532.6
2181.851	512.6
2185.848	515.6
2189.841	513.6
2193.831	516.6
2197.817	505.6
2201.799	510.6
2205.778	501.6
2209.753	502.6
2213.725	488.6
2217.693	498.6
2221.657	505.6
2225.618	499.6
2229.575	497.6
2233.529	491.6
2237.479	490.6
2241.425	473.6
2245.368	476.6
2249.307	464.6
2253.243	461.6
2257.175	449.6
2261.104	452.6
2265.029	432.6
2268.95	440.6
2272.868	438.6
2276.783	423.6
2280.694	418.6
2284.601	411.6
2288.505	408.6
2292.405	414.6
2296.302	398.6
2300.195	402.6
2304.085	393.6
2307.971	379.6
2311.854	377.6
2315.734	367.6
2319.609	371.6
2323.482	359.6
2327.351	366.6
2331.216	379.6
2335.078	379.6
2338.937	371.6
2342.792	345.6
2346.643	349.6
2350.492	348.6
2354.336	349.6
2358.178	350.6
2362.015	341.6
2365.85	358.6
2369.681	345.6
2373.508	357.6
2377.333	347.6
2381.153	348.6
2384.971	353.6
2388.785	356.6
2392.595	356.6
2396.402	341.6
2400.206	340.6
2404.007	327.6
2407.804	336.6
2411.597	327.6
2415.388	329.6
2419.174	332.6
2422.958	323.6
2426.738	332.6
2430.515	323.6
2434.289	330.6
2438.059	323.6
2441.825	301.6
2445.589	314.6
2449.349	306.6
2453.106	313.6
2456.859	313.6
2460.61	299.6
2464.356	298.6
2468.1	290.6
2471.84	277.6
2475.577	286.6
2479.311	277.6
2483.041	267.6
2486.768	287.6
2490.492	286.6
2494.213	287.6
2497.93	279.6
2501.644	271.6
2505.355	266.6
2509.062	262.6
2512.766	265.6
2516.467	255.6
2520.165	256.6
2523.859	260.6
2527.551	248.6
2531.239	243.6
2534.923	236.6
2538.605	239.6
2542.283	227.6
2545.958	234.6
2549.63	243.6
2553.299	231.6
2556.964	237.6
2560.626	229.6
2564.285	223.6
2567.941	215.6
2571.594	218.6
2575.243	218.6
2578.89	206.6
2582.533	212.6
2586.173	211.6
2589.809	204.6
2593.443	211.6
2597.073	199.6
2600.701	196.6
2604.325	192.6
2607.946	195.6
2611.564	190.6
2615.178	193.6
2618.79	199.6
2622.398	196.6
2626.004	194.6
2629.606	183.6
2633.205	185.6
2636.801	179.6
2640.394	172.6
2643.983	172.6
2647.57	182.6
2651.153	171.6
2654.734	177.6
2658.311	166.6
2661.885	172.6
2665.456	172.6
2669.025	166.6
2672.589	162.6
2676.151	163.6
2679.71	170.6
2683.266	158.6
2686.819	161.6
2690.368	150.6
2693.915	142.6
2697.458	143.6
2700.999	142.6
2704.536	142.6
2708.071	141.6
2711.602	133.6
2715.13	137.6
2718.656	135.6
2722.178	127.6
2725.697	121.6
2729.214	127.6
2732.727	124.6
2736.237	136.6
2739.744	117.6
2743.249	124.6
2746.75	123.6
2750.248	113.6
2753.743	116.6
2757.236	109.6
2760.725	109.6
2764.211	114.6
2767.695	106.6
2771.175	100.6
2774.652	100.6
2778.127	105.6
2781.598	97.6
2785.067	104.6
2788.532	105.6
2791.995	103.6
2795.455	103.6
2798.911	94.6
2802.365	104.6
2805.816	102.6
2809.264	97.6
2812.709	105.6
2816.151	101.6
2819.59	108.6
2823.026	102.6
2826.46	91.6
2829.89	97.6
2833.318	93.6
2836.742	99.6
2840.164	99.6
2843.583	105.6
2846.999	110.6
2850.412	102.6
2853.822	103.6
2857.229	102.6
2860.634	113.6
2864.035	115.6
2867.434	115.6
2870.83	120.6
2874.223	131.6
2877.613	126.6
2881	138.6
2884.385	137.6
2887.766	133.6
2891.145	124.6
2894.521	138.6
2897.894	141.6
2901.264	136.6
2904.631	138.6
2907.996	135.6
2911.358	144.6
2914.717	141.6
2918.073	146.6
2921.426	148.6
2924.777	151.6
2928.124	158.6
2931.469	162.6
2934.811	166.6
2938.15	169.6
2941.487	173.6
2944.821	176.6
2948.152	169.6
2951.48	172.6
2954.805	178.6
2958.128	168.6
2961.447	161.6
2964.765	175.6
2968.079	162.6
2971.39	169.6
2974.699	169.6
2978.005	164.6
2981.308	167.6
2984.609	171.6
2987.907	167.6
2991.202	173.6
2994.494	173.6
2997.784	178.6
3001.07	184.6
3004.355	185.6
3007.636	194.6
3010.915	186.6
3014.191	191.6
3017.464	195.6
3020.734	195.6
3024.002	197.6
3027.267	209.6
3030.53	206.6
3033.789	212.6
3037.046	221.6
3040.301	215.6
3043.552	230.6
3046.801	241.6
3050.048	240.6
3053.291	247.6
3056.532	260.6
3059.771	262.6
3063.006	279.6
3066.239	291.6
3069.469	285.6
3072.697	303.6
3075.922	315.6
3079.144	316.6
3082.364	324.6
3085.581	338.6
3088.795	337.6
3092.007	348.6
3095.216	354.6
3098.423	361.6
3101.627	374.6
3104.828	390.6
3108.026	382.6
3111.222	404.6
3114.416	403.6
3117.607	410.6
3120.795	414.6
3123.98	434.6
3127.163	450.6
3130.344	452.6
3133.521	458.6
3136.696	483.6
3139.869	488.6
3143.039	483.6
3146.206	495.6
3149.371	499.6
3152.533	496.6
3155.693	521.6
3158.85	515.6
3162.005	524.6
3165.157	527.6
3168.306	530.6
3171.453	538.6
3174.597	528.6
3177.739	542.6
3180.878	535.6
3184.014	545.6
3187.149	535.6
3190.28	532.6
3193.409	545.6
3196.536	552.6
3199.659	545.6
3202.781	556.6
3205.9	552.6
3209.016	555.6
3212.13	554.6
3215.241	553.6
3218.35	540.6
3221.456	529.6
3224.56	536.6
3227.661	522.6
3230.76	519.6
3233.856	516.6
3236.95	501.6
3240.041	496.6
3243.13	487.6
3246.216	479.6
3249.3	468.6
3252.382	471.6
3255.46	464.6
3258.537	463.6
3261.611	457.6
3264.682	457.6
3267.751	451.6
3270.818	448.6
3273.882	431.6
3276.943	442.6
3280.002	449.6
3283.059	433.6
3286.113	427.6
3289.165	435.6
3292.214	424.6
3295.261	419.6
3298.306	404.6
3301.348	413.6
3304.387	395.6
3307.425	396.6
3310.459	396.6
3313.492	382.6
3316.521	379.6
3319.549	375.6
3322.574	377.6
3325.597	382.6
3328.617	378.6
3331.635	381.6
3334.65	370.6
3337.663	354.6
3340.674	380.6
3343.682	376.6
3346.688	365.6
3349.691	376.6
3352.692	355.6
3355.691	351.6
3358.687	353.6
3361.681	346.6
3364.673	355.6
3367.662	348.6
3370.649	349.6
3373.633	330.6
3376.615	323.6
3379.595	322.6
3382.572	312.6
3385.547	313.6
3388.52	305.6
3391.49	305.6
3394.458	301.6
3397.424	291.6
3400.387	286.6
3403.348	282.6
3406.307	280.6
3409.263	281.6
3412.217	271.6
3415.168	279.6
3418.118	269.6
3421.065	268.6
3424.009	255.6
3426.951	253.6
3429.891	234.6
3432.829	232.6
3435.764	234.6
3438.697	223.6
3441.628	220.6
3444.557	220.6
3447.483	202.6
3450.407	194.6
3453.328	176.6
3456.247	185.6
3459.164	171.6
3462.079	158.6
3464.991	160.6
3467.902	156.6
3470.809	155.6
3473.715	136.6
3476.618	132.6
3479.519	128.6
3482.418	111.6
3485.315	102.6
3488.209	108.6
3491.101	106.6
3493.99	99.6
3496.878	99.6
3499.763	81.6
3502.646	88.6
3505.527	74.6
3508.405	61.6
3511.281	58.6
3514.155	63.6
3517.027	55.6
3519.897	43.6
3522.764	44.6
3525.629	34.6
3528.492	31.6
3531.352	19.6
3534.211	13.6
3537.067	18.6
3539.921	16.6
3542.773	3.6
3545.622	0.6
3548.469	-7.4
3551.315	-7.4
3554.157	-11.4
3556.998	-20.4
3559.837	-21.4
3562.673	-18.4
3565.507	-22.4
3568.339	-30.4
3571.169	-39.4
3573.996	-34.4
3576.822	-36.4
3579.645	-31.4
3582.466	-34.4
3585.285	-39.4
3588.101	-37.4
3590.916	-45.4
3593.728	-58.4
3596.538	-63.4
3599.346	-62.4
3602.152	-60.4
3604.956	-62.4
3607.757	-57.4
3610.556	-62.4
3613.354	-64.4
3616.149	-76.4
3618.942	-73.4
3621.732	-75.4
3624.521	-75.4
3627.307	-70.4
3630.092	-71.4
3632.874	-71.4
3635.654	-78.4
3638.432	-81.4
3641.208	-83.4
3643.982	-88.4
3646.753	-88.4
3649.523	-91.4
3652.29	-87.4
3655.055	-90.4
3657.818	-86.4
3660.579	-90.4
3663.338	-91.4
3666.095	-91.4
3668.849	-96.4
3671.602	-97.4
3674.352	-97.4
3677.101	-99.4
3679.847	-100.4
3682.591	-102.4
3685.333	-96.4
3688.073	-103.4
3690.811	-100.4
3693.547	-112.4
3696.281	-101.4
3699.013	-106.4
3701.742	-108.4
3704.47	-106.4
3707.195	-106.4
3709.919	-109.4
3712.64	-112.4
3715.359	-111.4
3718.076	-105.4
3720.792	-110.4
3723.505	-111.4
3726.216	-107.4
3728.925	-116.4
3731.632	-110.4
3734.336	-121.4
3737.039	-109.4
3739.74	-115.4
3742.439	-118.4
3745.136	-112.4
3747.83	-120.4
3750.523	-118.4
3753.213	-126.4
3755.902	-116.4
3758.589	-122.4
3761.273	-108.4
3763.956	-109.4
3766.636	-116.4
3769.315	-110.4
3771.991	-114.4
3774.665	-122.4
3777.338	-115.4
3780.008	-113.4
3782.677	-123.4
3785.343	-116.4
3788.007	-120.4
3790.67	-123.4
3793.33	-114.4
3795.989	-117.4
3798.645	-115.4
3801.299	-119.4
3803.952	-125.4
3806.602	-119.4
3809.251	-121.4
3811.897	-121.4
3814.542	-122.4
3817.184	-118.4
3819.825	-118.4
3822.463	-117.4
3825.1	-116.4
3827.735	-126.4
3830.367	-125.4
3832.998	-125.4
3835.627	-120.4
3838.253	-122.4
3840.878	-118.4
3843.501	-114.4
3846.122	-119.4
3848.741	-126.4
3851.358	-119.4
3853.973	-122.4
3856.586	-120.4
3859.197	-126.4
3861.806	-114.4
3864.414	-122.4
3867.019	-114.4
3869.622	-118.4
3872.224	-109.4
3874.823	-99.4
3877.421	-88.4
3880.016	-61.4
3882.61	-47.4
3885.202	-42.4
3887.792	-59.4
3890.38	-87.4
3892.966	-106.4
3895.55	-116.4
3898.132	-117.4
3900.713	-119.4
3903.291	-123.4
3905.868	-123.4
3908.442	-117.4
3911.015	-124.4
3913.586	-123.4
3916.155	-123.4
3918.722	-127.4
3921.287	-122.4
3923.85	-123.4
3926.411	-124.4
3928.971	-120.4
3931.528	-123.4
3934.084	-120.4
3936.638	-118.4
3939.19	-127.4
3941.74	-121.4
3944.288	-121.4
3946.834	-120.4
3949.378	-123.4
3951.921	-126.4
3954.462	-125.4
3957	-124.4
3959.537	-122.4
3962.072	-121.4
3964.606	-116.4
3967.137	-117.4
3969.667	-127.4
3972.194	-127.4
3974.72	-125.4
3977.244	-123.4
3979.766	-122.4
3982.286	-119.4
3984.805	-119.4
3987.321	-122.4
3989.836	-116.4
3992.349	-120.4
3994.86	-126.4
3997.369	-120.4
3999.877	-120.4
4002.382	-113.4
4004.886	-122.4
4007.388	-120.4
4009.888	-123.4
4012.386	-125.4
4014.883	-125.4
4017.377	-121.4
4019.87	-121.4
4022.361	-119.4
4024.85	-119.4
4027.338	-118.4
4029.823	-120.4
4032.307	-115.4
4034.789	-123.4
4037.269	-122.4
4039.747	-121.4
4042.224	-118.4
4044.699	-123.4
4047.172	-114.4
4049.643	-114.4
4052.112	-122.4
4054.58	-120.4
4057.046	-120.4
4059.51	-127.4
4061.972	-119.4
4064.432	-117.4
4066.891	-122.4
4069.348	-115.4
4071.803	-122.4
4074.256	-120.4
4076.708	-118.4
4079.158	-121.4
4081.606	-113.4
4084.052	-121.4
4086.497	-120.4
4088.939	-114.4
4091.38	-121.4
4093.819	-119.4
4096.257	-129.4
4098.693	-124.4
4101.127	-126.4
4103.559	-124.4
4105.989	18.6
4108.418	5.6
4110.845	13.6
4113.27	0.6
4115.694	-1.4
4118.115	-3.4
4120.535	-128.4
4122.954	-128.4
4125.37	-120.4
4127.785	-122.4
4130.198	-117.4
4132.609	-119.4
4135.019	-129.4
4137.427	-130.4
4139.833	-126.4
4142.237	-129.4
