Data from 2018-2-8_conc=5_n=5_RamanShift_02.txt Node
Date: Mon Mar 12 16:04:58 IST 2018
User: aro
Spectrometer: QEPB0276
Trigger mode: 0
Integration Time (sec): 3.000000E1
Scans to average: 1
Electric dark correction enabled: true
Nonlinearity correction enabled: false
Boxcar width: 0
XAxis mode: Raman Shifts
Number of Pixels in Spectrum: 1044
>>>>>Begin Spectral Data<<<<<
160.701	23.1
166.742	43.1
172.777	108.1
178.805	313.1
184.826	828.1
190.841	1793.1
196.849	2948.1
202.85	3852.1
208.845	4181.1
214.833	4216.1
220.815	4158.1
226.789	4164.1
232.758	4180.1
238.719	4147.1
244.674	4136.1
250.623	4110.1
256.565	4073.1
262.5	4015.1
268.429	3981.1
274.351	3930.1
280.267	3907.1
286.176	3906.1
292.079	3889.1
297.975	3876.1
303.865	3875.1
309.748	3852.1
315.625	3885.1
321.495	3828.1
327.359	3846.1
333.217	3870.1
339.068	3866.1
344.912	3888.1
350.751	3866.1
356.583	3888.1
362.408	3895.1
368.227	3904.1
374.04	3928.1
379.847	3929.1
385.647	3928.1
391.44	3952.1
397.228	4005.1
403.009	4014.1
408.784	4033.1
414.553	4048.1
420.315	4048.1
426.071	4028.1
431.821	4059.1
437.565	4018.1
443.302	4033.1
449.033	4007.1
454.758	4014.1
460.477	3980.1
466.189	3961.1
471.896	3919.1
477.596	3927.1
483.29	3864.1
488.978	3910.1
494.66	3880.1
500.335	3802.1
506.005	3701.1
511.668	3559.1
517.325	3416.1
522.977	3329.1
528.622	3245.1
534.261	3178.1
539.894	3159.1
545.521	3133.1
551.141	3112.1
556.756	3090.1
562.365	3064.1
567.968	3047.1
573.565	3013.1
579.155	2984.1
584.74	2958.1
590.319	2960.1
595.892	2953.1
601.459	2981.1
607.02	2938.1
612.575	2917.1
618.124	2893.1
623.667	2853.1
629.204	2837.1
634.735	2799.1
640.261	2781.1
645.781	2775.1
651.294	2768.1
656.802	2762.1
662.304	2763.1
667.8	2730.1
673.29	2728.1
678.775	2717.1
684.254	2715.1
689.726	2688.1
695.193	2686.1
700.655	2694.1
706.11	2657.1
711.56	2654.1
717.004	2642.1
722.442	2598.1
727.874	2588.1
733.301	2608.1
738.722	2591.1
744.137	2590.1
749.547	2582.1
754.951	2590.1
760.349	2566.1
765.741	2596.1
771.128	2589.1
776.509	2617.1
781.885	2642.1
787.254	2643.1
792.618	2663.1
797.977	2645.1
803.33	2620.1
808.677	2611.1
814.019	2589.1
819.355	2569.1
824.686	2561.1
830.011	2537.1
835.33	2530.1
840.644	2504.1
845.952	2509.1
851.255	2486.1
856.552	2495.1
861.844	2472.1
867.13	2464.1
872.41	2439.1
877.686	2405.1
882.955	2385.1
888.219	2394.1
893.478	2366.1
898.731	2307.1
903.979	2302.1
909.221	2280.1
914.458	2289.1
919.69	2272.1
924.916	2258.1
930.136	2280.1
935.351	2271.1
940.561	2271.1
945.766	2265.1
950.965	2263.1
956.158	2257.1
961.347	2205.1
966.529	2175.1
971.707	2156.1
976.879	2136.1
982.046	2100.1
987.208	2110.1
992.364	2114.1
997.515	2099.1
1002.66	2129.1
1007.801	2149.1
1012.936	2158.1
1018.066	2156.1
1023.19	2190.1
1028.309	2169.1
1033.423	2184.1
1038.532	2159.1
1043.636	2150.1
1048.734	2124.1
1053.827	2107.1
1058.915	2084.1
1063.998	2061.1
1069.075	2054.1
1074.147	2062.1
1079.214	2060.1
1084.276	2051.1
1089.333	2079.1
1094.385	2082.1
1099.431	2076.1
1104.472	2082.1
1109.509	2076.1
1114.54	2037.1
1119.565	2005.1
1124.586	1975.1
1129.602	1960.1
1134.613	1939.1
1139.618	1926.1
1144.619	1943.1
1149.614	1919.1
1154.604	1942.1
1159.589	1945.1
1164.57	1939.1
1169.545	1949.1
1174.515	1948.1
1179.48	1948.1
1184.44	1921.1
1189.395	1907.1
1194.345	1878.1
1199.29	1883.1
1204.23	1884.1
1209.165	1871.1
1214.095	1909.1
1219.021	1903.1
1223.941	1919.1
1228.856	1913.1
1233.766	1932.1
1238.672	1917.1
1243.572	1937.1
1248.467	1909.1
1253.358	1884.1
1258.244	1863.1
1263.124	1820.1
1268	1796.1
1272.871	1791.1
1277.737	1767.1
1282.599	1748.1
1287.455	1741.1
1292.306	1745.1
1297.153	1757.1
1301.995	1790.1
1306.832	1784.1
1311.664	1795.1
1316.491	1791.1
1321.314	1797.1
1326.132	1792.1
1330.945	1759.1
1335.753	1727.1
1340.556	1711.1
1345.354	1685.1
1350.148	1662.1
1354.937	1634.1
1359.722	1600.1
1364.501	1580.1
1369.276	1559.1
1374.046	1523.1
1378.811	1509.1
1383.572	1506.1
1388.327	1504.1
1393.079	1518.1
1397.825	1500.1
1402.567	1519.1
1407.304	1509.1
1412.036	1502.1
1416.764	1522.1
1421.487	1512.1
1426.205	1504.1
1430.919	1526.1
1435.628	1533.1
1440.333	1541.1
1445.032	1554.1
1449.727	1575.1
1454.418	1582.1
1459.104	1573.1
1463.785	1553.1
1468.462	1515.1
1473.134	1487.1
1477.802	1471.1
1482.465	1432.1
1487.123	1402.1
1491.777	1389.1
1496.426	1389.1
1501.071	1365.1
1505.711	1361.1
1510.347	1341.1
1514.978	1376.1
1519.604	1354.1
1524.226	1362.1
1528.844	1355.1
1533.457	1321.1
1538.065	1327.1
1542.669	1323.1
1547.269	1328.1
1551.864	1314.1
1556.454	1349.1
1561.041	1351.1
1565.622	1350.1
1570.199	1363.1
1574.772	1374.1
1579.34	1379.1
1583.904	1399.1
1588.464	1408.1
1593.019	1419.1
1597.569	1398.1
1602.115	1423.1
1606.657	1397.1
1611.195	1401.1
1615.728	1405.1
1620.256	1383.1
1624.78	1389.1
1629.3	1401.1
1633.816	1385.1
1638.327	1406.1
1642.834	1392.1
1647.336	1423.1
1651.834	1433.1
1656.328	1435.1
1660.817	1424.1
1665.302	1403.1
1669.783	1378.1
1674.259	1367.1
1678.732	1338.1
1683.199	1290.1
1687.663	1260.1
1692.122	1217.1
1696.577	1168.1
1701.028	1129.1
1705.474	1085.1
1709.917	1050.1
1714.355	1034.1
1718.788	1028.1
1723.218	1017.1
1727.643	1019.1
1732.064	1015.1
1736.481	1014.1
1740.893	994.1
1745.301	965.1
1749.705	940.1
1754.105	927.1
1758.501	906.1
1762.893	884.1
1767.28	899.1
1771.663	892.1
1776.042	875.1
1780.417	870.1
1784.787	860.1
1789.154	849.1
1793.516	849.1
1797.874	833.1
1802.228	838.1
1806.578	820.1
1810.924	807.1
1815.266	792.1
1819.603	793.1
1823.937	799.1
1828.266	795.1
1832.591	784.1
1836.913	787.1
1841.23	787.1
1845.543	793.1
1849.852	792.1
1854.156	791.1
1858.457	800.1
1862.754	798.1
1867.047	792.1
1871.335	787.1
1875.62	809.1
1879.9	792.1
1884.177	800.1
1888.449	783.1
1892.718	774.1
1896.982	765.1
1901.243	758.1
1905.499	742.1
1909.752	738.1
1914	720.1
1918.245	734.1
1922.485	702.1
1926.722	710.1
1930.954	716.1
1935.183	694.1
1939.408	713.1
1943.628	697.1
1947.845	677.1
1952.058	673.1
1956.267	675.1
1960.472	650.1
1964.673	654.1
1968.87	649.1
1973.063	652.1
1977.252	641.1
1981.438	646.1
1985.619	645.1
1989.797	644.1
1993.971	643.1
1998.14	641.1
2002.306	651.1
2006.469	640.1
2010.627	650.1
2014.781	647.1
2018.932	635.1
2023.078	636.1
2027.221	641.1
2031.36	630.1
2035.495	633.1
2039.627	614.1
2043.754	602.1
2047.878	593.1
2051.998	598.1
2056.114	598.1
2060.226	594.1
2064.334	583.1
2068.439	591.1
2072.54	582.1
2076.637	587.1
2080.73	585.1
2084.82	576.1
2088.906	579.1
2092.988	567.1
2097.066	569.1
2101.14	566.1
2105.211	557.1
2109.278	542.1
2113.342	536.1
2117.401	538.1
2121.457	531.1
2125.509	520.1
2129.558	524.1
2133.602	527.1
2137.643	517.1
2141.681	531.1
2145.714	525.1
2149.744	520.1
2153.77	529.1
2157.793	520.1
2161.812	509.1
2165.827	504.1
2169.838	489.1
2173.846	494.1
2177.851	475.1
2181.851	472.1
2185.848	474.1
2189.841	470.1
2193.831	468.1
2197.817	457.1
2201.799	454.1
2205.778	450.1
2209.753	449.1
2213.725	456.1
2217.693	451.1
2221.657	444.1
2225.618	447.1
2229.575	451.1
2233.529	442.1
2237.479	444.1
2241.425	428.1
2245.368	428.1
2249.307	414.1
2253.243	421.1
2257.175	412.1
2261.104	409.1
2265.029	398.1
2268.95	406.1
2272.868	383.1
2276.783	383.1
2280.694	379.1
2284.601	370.1
2288.505	367.1
2292.405	369.1
2296.302	360.1
2300.195	364.1
2304.085	355.1
2307.971	346.1
2311.854	347.1
2315.734	327.1
2319.609	334.1
2323.482	334.1
2327.351	331.1
2331.216	340.1
2335.078	358.1
2338.937	339.1
2342.792	325.1
2346.643	313.1
2350.492	315.1
2354.336	321.1
2358.178	324.1
2362.015	316.1
2365.85	330.1
2369.681	320.1
2373.508	322.1
2377.333	318.1
2381.153	315.1
2384.971	330.1
2388.785	325.1
2392.595	307.1
2396.402	312.1
2400.206	309.1
2404.007	302.1
2407.804	304.1
2411.597	300.1
2415.388	295.1
2419.174	298.1
2422.958	292.1
2426.738	292.1
2430.515	295.1
2434.289	300.1
2438.059	283.1
2441.825	287.1
2445.589	290.1
2449.349	276.1
2453.106	272.1
2456.859	287.1
2460.61	275.1
2464.356	269.1
2468.1	269.1
2471.84	267.1
2475.577	261.1
2479.311	252.1
2483.041	246.1
2486.768	249.1
2490.492	256.1
2494.213	247.1
2497.93	258.1
2501.644	245.1
2505.355	240.1
2509.062	236.1
2512.766	244.1
2516.467	238.1
2520.165	239.1
2523.859	226.1
2527.551	228.1
2531.239	219.1
2534.923	221.1
2538.605	219.1
2542.283	219.1
2545.958	211.1
2549.63	220.1
2553.299	212.1
2556.964	215.1
2560.626	211.1
2564.285	207.1
2567.941	195.1
2571.594	201.1
2575.243	199.1
2578.89	192.1
2582.533	182.1
2586.173	181.1
2589.809	186.1
2593.443	194.1
2597.073	181.1
2600.701	177.1
2604.325	171.1
2607.946	176.1
2611.564	175.1
2615.178	177.1
2618.79	172.1
2622.398	167.1
2626.004	177.1
2629.606	164.1
2633.205	166.1
2636.801	170.1
2640.394	173.1
2643.983	164.1
2647.57	159.1
2651.153	162.1
2654.734	156.1
2658.311	145.1
2661.885	146.1
2665.456	163.1
2669.025	153.1
2672.589	147.1
2676.151	153.1
2679.71	145.1
2683.266	144.1
2686.819	132.1
2690.368	139.1
2693.915	136.1
2697.458	132.1
2700.999	130.1
2704.536	127.1
2708.071	122.1
2711.602	119.1
2715.13	116.1
2718.656	108.1
2722.178	117.1
2725.697	115.1
2729.214	110.1
2732.727	111.1
2736.237	122.1
2739.744	102.1
2743.249	111.1
2746.75	108.1
2750.248	99.1
2753.743	100.1
2757.236	95.1
2760.725	99.1
2764.211	95.1
2767.695	98.1
2771.175	80.1
2774.652	83.1
2778.127	86.1
2781.598	78.1
2785.067	96.1
2788.532	91.1
2791.995	96.1
2795.455	92.1
2798.911	91.1
2802.365	90.1
2805.816	96.1
2809.264	98.1
2812.709	101.1
2816.151	90.1
2819.59	93.1
2823.026	96.1
2826.46	80.1
2829.89	85.1
2833.318	92.1
2836.742	98.1
2840.164	97.1
2843.583	95.1
2846.999	97.1
2850.412	93.1
2853.822	93.1
2857.229	98.1
2860.634	102.1
2864.035	105.1
2867.434	105.1
2870.83	113.1
2874.223	120.1
2877.613	122.1
2881	125.1
2884.385	124.1
2887.766	111.1
2891.145	116.1
2894.521	122.1
2897.894	131.1
2901.264	121.1
2904.631	127.1
2907.996	126.1
2911.358	118.1
2914.717	130.1
2918.073	133.1
2921.426	132.1
2924.777	134.1
2928.124	149.1
2931.469	140.1
2934.811	149.1
2938.15	147.1
2941.487	155.1
2944.821	154.1
2948.152	157.1
2951.48	157.1
2954.805	158.1
2958.128	152.1
2961.447	140.1
2964.765	149.1
2968.079	147.1
2971.39	143.1
2974.699	144.1
2978.005	156.1
2981.308	160.1
2984.609	159.1
2987.907	149.1
2991.202	156.1
2994.494	155.1
2997.784	155.1
3001.07	165.1
3004.355	178.1
3007.636	163.1
3010.915	170.1
3014.191	161.1
3017.464	176.1
3020.734	172.1
3024.002	166.1
3027.267	180.1
3030.53	178.1
3033.789	186.1
3037.046	198.1
3040.301	191.1
3043.552	202.1
3046.801	208.1
3050.048	211.1
3053.291	226.1
3056.532	235.1
3059.771	242.1
3063.006	238.1
3066.239	251.1
3069.469	261.1
3072.697	263.1
3075.922	283.1
3079.144	286.1
3082.364	296.1
3085.581	302.1
3088.795	304.1
3092.007	319.1
3095.216	315.1
3098.423	328.1
3101.627	328.1
3104.828	355.1
3108.026	343.1
3111.222	354.1
3114.416	355.1
3117.607	373.1
3120.795	373.1
3123.98	381.1
3127.163	393.1
3130.344	410.1
3133.521	404.1
3136.696	434.1
3139.869	428.1
3143.039	438.1
3146.206	442.1
3149.371	448.1
3152.533	466.1
3155.693	462.1
3158.85	478.1
3162.005	465.1
3165.157	474.1
3168.306	475.1
3171.453	477.1
3174.597	465.1
3177.739	474.1
3180.878	481.1
3184.014	496.1
3187.149	491.1
3190.28	489.1
3193.409	496.1
3196.536	490.1
3199.659	499.1
3202.781	493.1
3205.9	501.1
3209.016	495.1
3212.13	495.1
3215.241	489.1
3218.35	481.1
3221.456	479.1
3224.56	470.1
3227.661	473.1
3230.76	463.1
3233.856	456.1
3236.95	443.1
3240.041	439.1
3243.13	433.1
3246.216	432.1
3249.3	417.1
3252.382	432.1
3255.46	420.1
3258.537	419.1
3261.611	406.1
3264.682	392.1
3267.751	404.1
3270.818	410.1
3273.882	396.1
3276.943	388.1
3280.002	393.1
3283.059	384.1
3286.113	388.1
3289.165	379.1
3292.214	382.1
3295.261	368.1
3298.306	376.1
3301.348	359.1
3304.387	355.1
3307.425	359.1
3310.459	339.1
3313.492	347.1
3316.521	333.1
3319.549	344.1
3322.574	329.1
3325.597	344.1
3328.617	327.1
3331.635	332.1
3334.65	323.1
3337.663	319.1
3340.674	327.1
3343.682	334.1
3346.688	328.1
3349.691	329.1
3352.692	321.1
3355.691	323.1
3358.687	305.1
3361.681	314.1
3364.673	316.1
3367.662	319.1
3370.649	305.1
3373.633	281.1
3376.615	282.1
3379.595	279.1
3382.572	279.1
3385.547	281.1
3388.52	270.1
3391.49	272.1
3394.458	261.1
3397.424	250.1
3400.387	254.1
3403.348	251.1
3406.307	238.1
3409.263	245.1
3412.217	241.1
3415.168	236.1
3418.118	246.1
3421.065	225.1
3424.009	224.1
3426.951	225.1
3429.891	213.1
3432.829	204.1
3435.764	204.1
3438.697	195.1
3441.628	194.1
3444.557	176.1
3447.483	186.1
3450.407	167.1
3453.328	164.1
3456.247	153.1
3459.164	148.1
3462.079	141.1
3464.991	137.1
3467.902	127.1
3470.809	135.1
3473.715	112.1
3476.618	113.1
3479.519	99.1
3482.418	98.1
3485.315	91.1
3488.209	86.1
3491.101	85.1
3493.99	86.1
3496.878	87.1
3499.763	66.1
3502.646	67.1
3505.527	61.1
3508.405	62.1
3511.281	47.1
3514.155	48.1
3517.027	44.1
3519.897	35.1
3522.764	33.1
3525.629	21.1
3528.492	25.1
3531.352	20.1
3534.211	10.1
3537.067	11.1
3539.921	9.1
3542.773	1.1
3545.622	-7.9
3548.469	-9.9
3551.315	-5.9
3554.157	-17.9
3556.998	-22.9
3559.837	-19.9
3562.673	-21.9
3565.507	-22.9
3568.339	-33.9
3571.169	-44.9
3573.996	-34.9
3576.822	-35.9
3579.645	-40.9
3582.466	-38.9
3585.285	-48.9
3588.101	-37.9
3590.916	-52.9
3593.728	-56.9
3596.538	-52.9
3599.346	-52.9
3602.152	-55.9
3604.956	-55.9
3607.757	-55.9
3610.556	-60.9
3613.354	-65.9
3616.149	-71.9
3618.942	-74.9
3621.732	-69.9
3624.521	-71.9
3627.307	-67.9
3630.092	-70.9
3632.874	-77.9
3635.654	-75.9
3638.432	-74.9
3641.208	-75.9
3643.982	-78.9
3646.753	-81.9
3649.523	-88.9
3652.29	-82.9
3655.055	-82.9
3657.818	-85.9
3660.579	-87.9
3663.338	-87.9
3666.095	-88.9
3668.849	-88.9
3671.602	-89.9
3674.352	-89.9
3677.101	-101.9
3679.847	-95.9
3682.591	-99.9
3685.333	-98.9
3688.073	-94.9
3690.811	-102.9
3693.547	-100.9
3696.281	-101.9
3699.013	-103.9
3701.742	-109.9
3704.47	-98.9
3707.195	-97.9
3709.919	-102.9
3712.64	-93.9
3715.359	-107.9
3718.076	-103.9
3720.792	-113.9
3723.505	-106.9
3726.216	-104.9
3728.925	-113.9
3731.632	-105.9
3734.336	-113.9
3737.039	-110.9
3739.74	-107.9
3742.439	-115.9
3745.136	-105.9
3747.83	-116.9
3750.523	-113.9
3753.213	-110.9
3755.902	-104.9
3758.589	-111.9
3761.273	-109.9
3763.956	-110.9
3766.636	-115.9
3769.315	-110.9
3771.991	-107.9
3774.665	-113.9
3777.338	-103.9
3780.008	-110.9
3782.677	-112.9
3785.343	-113.9
3788.007	-116.9
3790.67	-117.9
3793.33	-110.9
3795.989	-110.9
3798.645	-109.9
3801.299	-112.9
3803.952	-115.9
3806.602	-112.9
3809.251	-116.9
3811.897	-117.9
3814.542	-117.9
3817.184	-114.9
3819.825	-111.9
3822.463	-113.9
3825.1	-108.9
3827.735	-114.9
3830.367	-116.9
3832.998	-115.9
3835.627	-117.9
3838.253	-112.9
3840.878	-112.9
3843.501	-111.9
3846.122	-118.9
3848.741	-120.9
3851.358	-110.9
3853.973	-121.9
3856.586	-116.9
3859.197	-119.9
3861.806	-112.9
3864.414	-113.9
3867.019	-110.9
3869.622	-114.9
3872.224	-106.9
3874.823	-95.9
3877.421	-85.9
3880.016	-60.9
3882.61	-41.9
3885.202	-40.9
3887.792	-55.9
3890.38	-81.9
3892.966	-102.9
3895.55	-108.9
3898.132	-112.9
3900.713	-113.9
3903.291	-115.9
3905.868	-108.9
3908.442	-113.9
3911.015	-114.9
3913.586	-116.9
3916.155	-121.9
3918.722	-116.9
3921.287	-117.9
3923.85	-116.9
3926.411	-115.9
3928.971	-110.9
3931.528	-124.9
3934.084	-112.9
3936.638	-117.9
3939.19	-122.9
3941.74	-121.9
3944.288	-118.9
3946.834	-112.9
3949.378	-114.9
3951.921	-117.9
3954.462	-122.9
3957	-119.9
3959.537	-115.9
3962.072	-119.9
3964.606	-114.9
3967.137	-110.9
3969.667	-118.9
3972.194	-122.9
3974.72	-119.9
3977.244	-119.9
3979.766	-120.9
3982.286	-113.9
3984.805	-117.9
3987.321	-113.9
3989.836	-109.9
3992.349	-116.9
3994.86	-116.9
3997.369	-122.9
3999.877	-119.9
4002.382	-105.9
4004.886	-114.9
4007.388	-116.9
4009.888	-111.9
4012.386	-115.9
4014.883	-116.9
4017.377	-114.9
4019.87	-115.9
4022.361	-118.9
4024.85	-115.9
4027.338	-115.9
4029.823	-110.9
4032.307	-115.9
4034.789	-117.9
4037.269	-114.9
4039.747	-113.9
4042.224	-113.9
4044.699	-115.9
4047.172	-113.9
4049.643	-111.9
4052.112	-115.9
4054.58	-116.9
4057.046	-119.9
4059.51	-115.9
4061.972	-112.9
4064.432	-118.9
4066.891	-115.9
4069.348	-110.9
4071.803	-117.9
4074.256	-115.9
4076.708	-116.9
4079.158	-117.9
4081.606	-112.9
4084.052	-112.9
4086.497	-115.9
4088.939	-105.9
4091.38	-112.9
4093.819	-112.9
4096.257	-122.9
4098.693	-118.9
4101.127	-121.9
4103.559	-112.9
4105.989	25.1
4108.418	12.1
4110.845	16.1
4113.27	4.1
4115.694	-2.9
4118.115	1.1
4120.535	-121.9
4122.954	-121.9
4125.37	-118.9
4127.785	-114.9
4130.198	-112.9
4132.609	-110.9
4135.019	-118.9
4137.427	-122.9
4139.833	-122.9
4142.237	-122.9
