Data from 2018-2-8_conc=0_n=7_RamanShift_01.txt Node
Date: Mon Mar 12 13:40:29 IST 2018
User: aro
Spectrometer: QEPB0276
Trigger mode: 0
Integration Time (sec): 3.000000E1
Scans to average: 1
Electric dark correction enabled: true
Nonlinearity correction enabled: false
Boxcar width: 0
XAxis mode: Raman Shifts
Number of Pixels in Spectrum: 1044
>>>>>Begin Spectral Data<<<<<
160.701	20.8
166.742	49.8
172.777	120.8
178.805	370.8
184.826	993.8
190.841	2122.8
196.849	3527.8
202.85	4600.8
208.845	5016.8
214.833	5055.8
220.815	4950.8
226.789	4943.8
232.758	4980.8
238.719	4937.8
244.674	4890.8
250.623	4850.8
256.565	4789.8
262.5	4721.8
268.429	4682.8
274.351	4647.8
280.267	4598.8
286.176	4601.8
292.079	4579.8
297.975	4550.8
303.865	4534.8
309.748	4525.8
315.625	4534.8
321.495	4494.8
327.359	4530.8
333.217	4489.8
339.068	4527.8
344.912	4522.8
350.751	4533.8
356.583	4533.8
362.408	4543.8
368.227	4534.8
374.04	4595.8
379.847	4599.8
385.647	4609.8
391.44	4619.8
397.228	4660.8
403.009	4655.8
408.784	4690.8
414.553	4705.8
420.315	4704.8
426.071	4702.8
431.821	4707.8
437.565	4735.8
443.302	4719.8
449.033	4707.8
454.758	4706.8
460.477	4650.8
466.189	4613.8
471.896	4601.8
477.596	4585.8
483.29	4533.8
488.978	4554.8
494.66	4539.8
500.335	4446.8
506.005	4329.8
511.668	4178.8
517.325	4057.8
522.977	3956.8
528.622	3856.8
534.261	3815.8
539.894	3775.8
545.521	3720.8
551.141	3685.8
556.756	3667.8
562.365	3660.8
567.968	3639.8
573.565	3585.8
579.155	3581.8
584.74	3569.8
590.319	3532.8
595.892	3576.8
601.459	3566.8
607.02	3526.8
612.575	3512.8
618.124	3466.8
623.667	3449.8
629.204	3425.8
634.735	3377.8
640.261	3342.8
645.781	3339.8
651.294	3322.8
656.802	3312.8
662.304	3295.8
667.8	3300.8
673.29	3283.8
678.775	3283.8
684.254	3264.8
689.726	3262.8
695.193	3249.8
700.655	3242.8
706.11	3224.8
711.56	3204.8
717.004	3181.8
722.442	3172.8
727.874	3129.8
733.301	3139.8
738.722	3107.8
744.137	3117.8
749.547	3103.8
754.951	3111.8
760.349	3108.8
765.741	3117.8
771.128	3114.8
776.509	3148.8
781.885	3196.8
787.254	3156.8
792.618	3192.8
797.977	3194.8
803.33	3126.8
808.677	3140.8
814.019	3098.8
819.355	3082.8
824.686	3045.8
830.011	3060.8
835.33	3030.8
840.644	3051.8
845.952	3035.8
851.255	3020.8
856.552	3006.8
861.844	2981.8
867.13	2962.8
872.41	2983.8
877.686	2954.8
882.955	2928.8
888.219	2919.8
893.478	2872.8
898.731	2802.8
903.979	2780.8
909.221	2764.8
914.458	2728.8
919.69	2736.8
924.916	2733.8
930.136	2738.8
935.351	2750.8
940.561	2750.8
945.766	2761.8
950.965	2727.8
956.158	2715.8
961.347	2685.8
966.529	2653.8
971.707	2626.8
976.879	2584.8
982.046	2560.8
987.208	2524.8
992.364	2526.8
997.515	2563.8
1002.66	2574.8
1007.801	2634.8
1012.936	2615.8
1018.066	2600.8
1023.19	2635.8
1028.309	2635.8
1033.423	2619.8
1038.532	2605.8
1043.636	2592.8
1048.734	2576.8
1053.827	2554.8
1058.915	2527.8
1063.998	2503.8
1069.075	2500.8
1074.147	2497.8
1079.214	2502.8
1084.276	2492.8
1089.333	2520.8
1094.385	2530.8
1099.431	2536.8
1104.472	2495.8
1109.509	2488.8
1114.54	2472.8
1119.565	2449.8
1124.586	2393.8
1129.602	2379.8
1134.613	2366.8
1139.618	2348.8
1144.619	2355.8
1149.614	2345.8
1154.604	2331.8
1159.589	2353.8
1164.57	2339.8
1169.545	2356.8
1174.515	2348.8
1179.48	2335.8
1184.44	2323.8
1189.395	2315.8
1194.345	2303.8
1199.29	2284.8
1204.23	2275.8
1209.165	2264.8
1214.095	2287.8
1219.021	2326.8
1223.941	2312.8
1228.856	2322.8
1233.766	2340.8
1238.672	2319.8
1243.572	2318.8
1248.467	2332.8
1253.358	2280.8
1258.244	2256.8
1263.124	2219.8
1268	2187.8
1272.871	2160.8
1277.737	2140.8
1282.599	2122.8
1287.455	2139.8
1292.306	2137.8
1297.153	2135.8
1301.995	2157.8
1306.832	2176.8
1311.664	2189.8
1316.491	2179.8
1321.314	2178.8
1326.132	2175.8
1330.945	2132.8
1335.753	2096.8
1340.556	2053.8
1345.354	2022.8
1350.148	2003.8
1354.937	1974.8
1359.722	1932.8
1364.501	1918.8
1369.276	1872.8
1374.046	1840.8
1378.811	1817.8
1383.572	1822.8
1388.327	1797.8
1393.079	1813.8
1397.825	1844.8
1402.567	1819.8
1407.304	1812.8
1412.036	1818.8
1416.764	1825.8
1421.487	1813.8
1426.205	1837.8
1430.919	1837.8
1435.628	1867.8
1440.333	1872.8
1445.032	1884.8
1449.727	1909.8
1454.418	1913.8
1459.104	1908.8
1463.785	1891.8
1468.462	1864.8
1473.134	1816.8
1477.802	1747.8
1482.465	1731.8
1487.123	1693.8
1491.777	1677.8
1496.426	1646.8
1501.071	1631.8
1505.711	1619.8
1510.347	1629.8
1514.978	1623.8
1519.604	1630.8
1524.226	1631.8
1528.844	1596.8
1533.457	1598.8
1538.065	1604.8
1542.669	1574.8
1547.269	1583.8
1551.864	1595.8
1556.454	1605.8
1561.041	1621.8
1565.622	1628.8
1570.199	1616.8
1574.772	1636.8
1579.34	1666.8
1583.904	1698.8
1588.464	1714.8
1593.019	1724.8
1597.569	1699.8
1602.115	1700.8
1606.657	1699.8
1611.195	1682.8
1615.728	1704.8
1620.256	1676.8
1624.78	1686.8
1629.3	1689.8
1633.816	1677.8
1638.327	1690.8
1642.834	1710.8
1647.336	1716.8
1651.834	1710.8
1656.328	1716.8
1660.817	1695.8
1665.302	1692.8
1669.783	1668.8
1674.259	1626.8
1678.732	1595.8
1683.199	1530.8
1687.663	1496.8
1692.122	1432.8
1696.577	1386.8
1701.028	1322.8
1705.474	1279.8
1709.917	1237.8
1714.355	1211.8
1718.788	1201.8
1723.218	1210.8
1727.643	1199.8
1732.064	1194.8
1736.481	1189.8
1740.893	1168.8
1745.301	1144.8
1749.705	1112.8
1754.105	1085.8
1758.501	1076.8
1762.893	1072.8
1767.28	1040.8
1771.663	1050.8
1776.042	1038.8
1780.417	1025.8
1784.787	1008.8
1789.154	991.8
1793.516	988.8
1797.874	963.8
1802.228	957.8
1806.578	945.8
1810.924	941.8
1815.266	939.8
1819.603	923.8
1823.937	925.8
1828.266	931.8
1832.591	923.8
1836.913	933.8
1841.23	930.8
1845.543	942.8
1849.852	920.8
1854.156	919.8
1858.457	931.8
1862.754	932.8
1867.047	930.8
1871.335	932.8
1875.62	934.8
1879.9	918.8
1884.177	919.8
1888.449	909.8
1892.718	890.8
1896.982	888.8
1901.243	875.8
1905.499	865.8
1909.752	855.8
1914	828.8
1918.245	844.8
1922.485	814.8
1926.722	809.8
1930.954	826.8
1935.183	809.8
1939.408	798.8
1943.628	808.8
1947.845	791.8
1952.058	791.8
1956.267	778.8
1960.472	772.8
1964.673	762.8
1968.87	746.8
1973.063	746.8
1977.252	741.8
1981.438	758.8
1985.619	744.8
1989.797	756.8
1993.971	739.8
1998.14	755.8
2002.306	742.8
2006.469	746.8
2010.627	749.8
2014.781	775.8
2018.932	752.8
2023.078	771.8
2027.221	748.8
2031.36	742.8
2035.495	746.8
2039.627	715.8
2043.754	705.8
2047.878	703.8
2051.998	696.8
2056.114	699.8
2060.226	695.8
2064.334	695.8
2068.439	681.8
2072.54	687.8
2076.637	684.8
2080.73	674.8
2084.82	677.8
2088.906	666.8
2092.988	658.8
2097.066	659.8
2101.14	642.8
2105.211	629.8
2109.278	634.8
2113.342	618.8
2117.401	608.8
2121.457	622.8
2125.509	631.8
2129.558	616.8
2133.602	612.8
2137.643	616.8
2141.681	606.8
2145.714	613.8
2149.744	604.8
2153.77	598.8
2157.793	600.8
2161.812	601.8
2165.827	606.8
2169.838	583.8
2173.846	578.8
2177.851	569.8
2181.851	550.8
2185.848	563.8
2189.841	569.8
2193.831	553.8
2197.817	547.8
2201.799	536.8
2205.778	538.8
2209.753	540.8
2213.725	546.8
2217.693	546.8
2221.657	555.8
2225.618	539.8
2229.575	533.8
2233.529	534.8
2237.479	525.8
2241.425	514.8
2245.368	498.8
2249.307	506.8
2253.243	499.8
2257.175	488.8
2261.104	477.8
2265.029	469.8
2268.95	466.8
2272.868	454.8
2276.783	453.8
2280.694	444.8
2284.601	449.8
2288.505	448.8
2292.405	442.8
2296.302	432.8
2300.195	418.8
2304.085	429.8
2307.971	410.8
2311.854	411.8
2315.734	402.8
2319.609	404.8
2323.482	400.8
2327.351	392.8
2331.216	404.8
2335.078	415.8
2338.937	386.8
2342.792	383.8
2346.643	384.8
2350.492	378.8
2354.336	385.8
2358.178	385.8
2362.015	383.8
2365.85	377.8
2369.681	386.8
2373.508	387.8
2377.333	383.8
2381.153	390.8
2384.971	388.8
2388.785	379.8
2392.595	383.8
2396.402	370.8
2400.206	375.8
2404.007	373.8
2407.804	363.8
2411.597	363.8
2415.388	374.8
2419.174	370.8
2422.958	356.8
2426.738	365.8
2430.515	358.8
2434.289	352.8
2438.059	343.8
2441.825	344.8
2445.589	350.8
2449.349	332.8
2453.106	342.8
2456.859	332.8
2460.61	323.8
2464.356	319.8
2468.1	321.8
2471.84	302.8
2475.577	312.8
2479.311	308.8
2483.041	310.8
2486.768	299.8
2490.492	304.8
2494.213	304.8
2497.93	301.8
2501.644	293.8
2505.355	289.8
2509.062	292.8
2512.766	286.8
2516.467	273.8
2520.165	284.8
2523.859	275.8
2527.551	271.8
2531.239	267.8
2534.923	255.8
2538.605	261.8
2542.283	250.8
2545.958	252.8
2549.63	256.8
2553.299	251.8
2556.964	251.8
2560.626	245.8
2564.285	239.8
2567.941	237.8
2571.594	230.8
2575.243	239.8
2578.89	230.8
2582.533	233.8
2586.173	220.8
2589.809	218.8
2593.443	217.8
2597.073	210.8
2600.701	215.8
2604.325	204.8
2607.946	213.8
2611.564	202.8
2615.178	208.8
2618.79	212.8
2622.398	212.8
2626.004	202.8
2629.606	203.8
2633.205	198.8
2636.801	197.8
2640.394	200.8
2643.983	196.8
2647.57	197.8
2651.153	196.8
2654.734	184.8
2658.311	177.8
2661.885	182.8
2665.456	184.8
2669.025	182.8
2672.589	177.8
2676.151	187.8
2679.71	177.8
2683.266	168.8
2686.819	166.8
2690.368	158.8
2693.915	159.8
2697.458	159.8
2700.999	155.8
2704.536	165.8
2708.071	152.8
2711.602	143.8
2715.13	152.8
2718.656	146.8
2722.178	134.8
2725.697	134.8
2729.214	136.8
2732.727	139.8
2736.237	134.8
2739.744	131.8
2743.249	127.8
2746.75	132.8
2750.248	132.8
2753.743	113.8
2757.236	114.8
2760.725	113.8
2764.211	109.8
2767.695	102.8
2771.175	103.8
2774.652	106.8
2778.127	112.8
2781.598	106.8
2785.067	109.8
2788.532	118.8
2791.995	111.8
2795.455	111.8
2798.911	106.8
2802.365	116.8
2805.816	114.8
2809.264	106.8
2812.709	110.8
2816.151	106.8
2819.59	118.8
2823.026	113.8
2826.46	110.8
2829.89	113.8
2833.318	106.8
2836.742	123.8
2840.164	111.8
2843.583	119.8
2846.999	114.8
2850.412	114.8
2853.822	118.8
2857.229	118.8
2860.634	123.8
2864.035	126.8
2867.434	124.8
2870.83	135.8
2874.223	155.8
2877.613	144.8
2881	153.8
2884.385	156.8
2887.766	154.8
2891.145	148.8
2894.521	160.8
2897.894	153.8
2901.264	159.8
2904.631	160.8
2907.996	156.8
2911.358	165.8
2914.717	169.8
2918.073	174.8
2921.426	178.8
2924.777	180.8
2928.124	186.8
2931.469	183.8
2934.811	192.8
2938.15	186.8
2941.487	204.8
2944.821	198.8
2948.152	192.8
2951.48	205.8
2954.805	200.8
2958.128	195.8
2961.447	178.8
2964.765	191.8
2968.079	183.8
2971.39	190.8
2974.699	195.8
2978.005	190.8
2981.308	192.8
2984.609	200.8
2987.907	195.8
2991.202	197.8
2994.494	196.8
2997.784	197.8
3001.07	203.8
3004.355	207.8
3007.636	206.8
3010.915	197.8
3014.191	213.8
3017.464	210.8
3020.734	218.8
3024.002	216.8
3027.267	231.8
3030.53	230.8
3033.789	236.8
3037.046	234.8
3040.301	248.8
3043.552	248.8
3046.801	251.8
3050.048	266.8
3053.291	271.8
3056.532	283.8
3059.771	305.8
3063.006	315.8
3066.239	314.8
3069.469	317.8
3072.697	330.8
3075.922	347.8
3079.144	350.8
3082.364	370.8
3085.581	377.8
3088.795	367.8
3092.007	379.8
3095.216	387.8
3098.423	397.8
3101.627	416.8
3104.828	413.8
3108.026	425.8
3111.222	437.8
3114.416	442.8
3117.607	457.8
3120.795	464.8
3123.98	450.8
3127.163	490.8
3130.344	504.8
3133.521	500.8
3136.696	518.8
3139.869	519.8
3143.039	525.8
3146.206	525.8
3149.371	555.8
3152.533	553.8
3155.693	565.8
3158.85	564.8
3162.005	561.8
3165.157	570.8
3168.306	580.8
3171.453	575.8
3174.597	572.8
3177.739	588.8
3180.878	584.8
3184.014	603.8
3187.149	603.8
3190.28	601.8
3193.409	584.8
3196.536	585.8
3199.659	604.8
3202.781	599.8
3205.9	598.8
3209.016	614.8
3212.13	608.8
3215.241	602.8
3218.35	595.8
3221.456	580.8
3224.56	581.8
3227.661	561.8
3230.76	568.8
3233.856	566.8
3236.95	544.8
3240.041	540.8
3243.13	519.8
3246.216	527.8
3249.3	511.8
3252.382	514.8
3255.46	506.8
3258.537	504.8
3261.611	486.8
3264.682	490.8
3267.751	490.8
3270.818	486.8
3273.882	484.8
3276.943	484.8
3280.002	480.8
3283.059	472.8
3286.113	473.8
3289.165	464.8
3292.214	452.8
3295.261	445.8
3298.306	441.8
3301.348	430.8
3304.387	440.8
3307.425	437.8
3310.459	431.8
3313.492	414.8
3316.521	424.8
3319.549	418.8
3322.574	416.8
3325.597	405.8
3328.617	410.8
3331.635	412.8
3334.65	393.8
3337.663	388.8
3340.674	402.8
3343.682	406.8
3346.688	401.8
3349.691	400.8
3352.692	398.8
3355.691	398.8
3358.687	390.8
3361.681	394.8
3364.673	388.8
3367.662	365.8
3370.649	367.8
3373.633	356.8
3376.615	357.8
3379.595	343.8
3382.572	352.8
3385.547	345.8
3388.52	341.8
3391.49	341.8
3394.458	329.8
3397.424	318.8
3400.387	310.8
3403.348	317.8
3406.307	298.8
3409.263	299.8
3412.217	298.8
3415.168	290.8
3418.118	291.8
3421.065	276.8
3424.009	294.8
3426.951	279.8
3429.891	274.8
3432.829	259.8
3435.764	260.8
3438.697	240.8
3441.628	235.8
3444.557	240.8
3447.483	221.8
3450.407	219.8
3453.328	203.8
3456.247	197.8
3459.164	179.8
3462.079	172.8
3464.991	174.8
3467.902	165.8
3470.809	162.8
3473.715	151.8
3476.618	149.8
3479.519	141.8
3482.418	129.8
3485.315	123.8
3488.209	110.8
3491.101	101.8
3493.99	116.8
3496.878	100.8
3499.763	88.8
3502.646	91.8
3505.527	78.8
3508.405	73.8
3511.281	59.8
3514.155	62.8
3517.027	56.8
3519.897	47.8
3522.764	44.8
3525.629	35.8
3528.492	28.8
3531.352	24.8
3534.211	17.8
3537.067	3.8
3539.921	10.8
3542.773	2.8
3545.622	-9.2
3548.469	-7.2
3551.315	-9.2
3554.157	-12.2
3556.998	-23.2
3559.837	-19.2
3562.673	-32.2
3565.507	-20.2
3568.339	-33.2
3571.169	-41.2
3573.996	-41.2
3576.822	-40.2
3579.645	-47.2
3582.466	-48.2
3585.285	-52.2
3588.101	-42.2
3590.916	-50.2
3593.728	-61.2
3596.538	-64.2
3599.346	-64.2
3602.152	-68.2
3604.956	-73.2
3607.757	-67.2
3610.556	-73.2
3613.354	-58.2
3616.149	-47.2
3618.942	-80.2
3621.732	-80.2
3624.521	-84.2
3627.307	-84.2
3630.092	-83.2
3632.874	-86.2
3635.654	-93.2
3638.432	-87.2
3641.208	-87.2
3643.982	-89.2
3646.753	-98.2
3649.523	-97.2
3652.29	-94.2
3655.055	-102.2
3657.818	-99.2
3660.579	-97.2
3663.338	-100.2
3666.095	-106.2
3668.849	-105.2
3671.602	-108.2
3674.352	-108.2
3677.101	-112.2
3679.847	-111.2
3682.591	-115.2
3685.333	-107.2
3688.073	-106.2
3690.811	-111.2
3693.547	-121.2
3696.281	-116.2
3699.013	-119.2
3701.742	-118.2
3704.47	-122.2
3707.195	-117.2
3709.919	-118.2
3712.64	-124.2
3715.359	-123.2
3718.076	-123.2
3720.792	-125.2
3723.505	-126.2
3726.216	-121.2
3728.925	-122.2
3731.632	-123.2
3734.336	-128.2
3737.039	-126.2
3739.74	-129.2
3742.439	-133.2
3745.136	-124.2
3747.83	-134.2
3750.523	-124.2
3753.213	-125.2
3755.902	-126.2
3758.589	-129.2
3761.273	-127.2
3763.956	-125.2
3766.636	-127.2
3769.315	-129.2
3771.991	-133.2
3774.665	-133.2
3777.338	-127.2
3780.008	-130.2
3782.677	-133.2
3785.343	-126.2
3788.007	-130.2
3790.67	-132.2
3793.33	-128.2
3795.989	-133.2
3798.645	-125.2
3801.299	-129.2
3803.952	-131.2
3806.602	-124.2
3809.251	-132.2
3811.897	-138.2
3814.542	-135.2
3817.184	-122.2
3819.825	-136.2
3822.463	-129.2
3825.1	-131.2
3827.735	-130.2
3830.367	-136.2
3832.998	-132.2
3835.627	-133.2
3838.253	-128.2
3840.878	-135.2
3843.501	-130.2
3846.122	-133.2
3848.741	-137.2
3851.358	-130.2
3853.973	-136.2
3856.586	-133.2
3859.197	-137.2
3861.806	-133.2
3864.414	-139.2
3867.019	-128.2
3869.622	-133.2
3872.224	-121.2
3874.823	-108.2
3877.421	-100.2
3880.016	-67.2
3882.61	-47.2
3885.202	-35.2
3887.792	-63.2
3890.38	-86.2
3892.966	-117.2
3895.55	-122.2
3898.132	-128.2
3900.713	-130.2
3903.291	-135.2
3905.868	-137.2
3908.442	-135.2
3911.015	-137.2
3913.586	-137.2
3916.155	-138.2
3918.722	-137.2
3921.287	-132.2
3923.85	-133.2
3926.411	-137.2
3928.971	-138.2
3931.528	-139.2
3934.084	-136.2
3936.638	-132.2
3939.19	-141.2
3941.74	-136.2
3944.288	-136.2
3946.834	-134.2
3949.378	-130.2
3951.921	-132.2
3954.462	-145.2
3957	-135.2
3959.537	-132.2
3962.072	-134.2
3964.606	-131.2
3967.137	-136.2
3969.667	-135.2
3972.194	-139.2
3974.72	-138.2
3977.244	-136.2
3979.766	-135.2
3982.286	-133.2
3984.805	-135.2
3987.321	-131.2
3989.836	-128.2
3992.349	-133.2
3994.86	-135.2
3997.369	-136.2
3999.877	-136.2
4002.382	-130.2
4004.886	-137.2
4007.388	-131.2
4009.888	-132.2
4012.386	-136.2
4014.883	-136.2
4017.377	-134.2
4019.87	-138.2
4022.361	-136.2
4024.85	-132.2
4027.338	-130.2
4029.823	-129.2
4032.307	-130.2
4034.789	-136.2
4037.269	-133.2
4039.747	-134.2
4042.224	-135.2
4044.699	-134.2
4047.172	-128.2
4049.643	-129.2
4052.112	-134.2
4054.58	-137.2
4057.046	-135.2
4059.51	-135.2
4061.972	-137.2
4064.432	-138.2
4066.891	-132.2
4069.348	-130.2
4071.803	-134.2
4074.256	-135.2
4076.708	-127.2
4079.158	-133.2
4081.606	-129.2
4084.052	-138.2
4086.497	-129.2
4088.939	-125.2
4091.38	-130.2
4093.819	-132.2
4096.257	-143.2
4098.693	-140.2
4101.127	-137.2
4103.559	-137.2
4105.989	11.8
4108.418	7.8
4110.845	1.8
4113.27	1.8
4115.694	1.8
4118.115	-5.2
4120.535	-134.2
4122.954	-133.2
4125.37	-132.2
4127.785	-137.2
4130.198	-135.2
4132.609	-131.2
4135.019	-138.2
4137.427	-139.2
4139.833	-142.2
4142.237	-142.2
