Data from 2018-2-8_conc=6_n=7_RamanShift_02.txt Node
Date: Mon Mar 12 16:42:27 IST 2018
User: aro
Spectrometer: QEPB0276
Trigger mode: 0
Integration Time (sec): 3.000000E1
Scans to average: 1
Electric dark correction enabled: true
Nonlinearity correction enabled: false
Boxcar width: 0
XAxis mode: Raman Shifts
Number of Pixels in Spectrum: 1044
>>>>>Begin Spectral Data<<<<<
160.701	15.5
166.742	43.5
172.777	132.5
178.805	401.5
184.826	1081.5
190.841	2327.5
196.849	3848.5
202.85	5034.5
208.845	5482.5
214.833	5504.5
220.815	5408.5
226.789	5416.5
232.758	5430.5
238.719	5399.5
244.674	5359.5
250.623	5351.5
256.565	5268.5
262.5	5177.5
268.429	5090.5
274.351	5074.5
280.267	5037.5
286.176	4990.5
292.079	4977.5
297.975	4960.5
303.865	4946.5
309.748	4920.5
315.625	4907.5
321.495	4924.5
327.359	4921.5
333.217	4924.5
339.068	4922.5
344.912	4926.5
350.751	4950.5
356.583	4945.5
362.408	4944.5
368.227	4952.5
374.04	4948.5
379.847	4991.5
385.647	5004.5
391.44	5051.5
397.228	5081.5
403.009	5114.5
408.784	5142.5
414.553	5151.5
420.315	5159.5
426.071	5155.5
431.821	5144.5
437.565	5154.5
443.302	5130.5
449.033	5150.5
454.758	5093.5
460.477	5082.5
466.189	5039.5
471.896	5007.5
477.596	4983.5
483.29	4952.5
488.978	4973.5
494.66	4950.5
500.335	4855.5
506.005	4738.5
511.668	4620.5
517.325	4454.5
522.977	4336.5
528.622	4260.5
534.261	4180.5
539.894	4145.5
545.521	4126.5
551.141	4083.5
556.756	4056.5
562.365	4021.5
567.968	4003.5
573.565	3961.5
579.155	3976.5
584.74	3951.5
590.319	3924.5
595.892	3931.5
601.459	3912.5
607.02	3878.5
612.575	3853.5
618.124	3824.5
623.667	3783.5
629.204	3764.5
634.735	3725.5
640.261	3728.5
645.781	3670.5
651.294	3679.5
656.802	3682.5
662.304	3644.5
667.8	3665.5
673.29	3635.5
678.775	3650.5
684.254	3618.5
689.726	3584.5
695.193	3574.5
700.655	3568.5
706.11	3571.5
711.56	3525.5
717.004	3479.5
722.442	3493.5
727.874	3486.5
733.301	3437.5
738.722	3456.5
744.137	3432.5
749.547	3427.5
754.951	3448.5
760.349	3435.5
765.741	3422.5
771.128	3431.5
776.509	3480.5
781.885	3490.5
787.254	3498.5
792.618	3504.5
797.977	3484.5
803.33	3443.5
808.677	3422.5
814.019	3443.5
819.355	3405.5
824.686	3366.5
830.011	3348.5
835.33	3334.5
840.644	3338.5
845.952	3328.5
851.255	3313.5
856.552	3287.5
861.844	3304.5
867.13	3297.5
872.41	3239.5
877.686	3224.5
882.955	3218.5
888.219	3184.5
893.478	3118.5
898.731	3088.5
903.979	3051.5
909.221	3042.5
914.458	3014.5
919.69	2996.5
924.916	2998.5
930.136	3049.5
935.351	3024.5
940.561	3050.5
945.766	3018.5
950.965	3025.5
956.158	2986.5
961.347	2953.5
966.529	2924.5
971.707	2887.5
976.879	2836.5
982.046	2802.5
987.208	2803.5
992.364	2813.5
997.515	2816.5
1002.66	2830.5
1007.801	2875.5
1012.936	2885.5
1018.066	2877.5
1023.19	2869.5
1028.309	2895.5
1033.423	2877.5
1038.532	2871.5
1043.636	2858.5
1048.734	2800.5
1053.827	2796.5
1058.915	2754.5
1063.998	2751.5
1069.075	2720.5
1074.147	2711.5
1079.214	2743.5
1084.276	2750.5
1089.333	2746.5
1094.385	2769.5
1099.431	2763.5
1104.472	2770.5
1109.509	2731.5
1114.54	2691.5
1119.565	2684.5
1124.586	2634.5
1129.602	2603.5
1134.613	2572.5
1139.618	2560.5
1144.619	2581.5
1149.614	2554.5
1154.604	2593.5
1159.589	2578.5
1164.57	2586.5
1169.545	2579.5
1174.515	2580.5
1179.48	2572.5
1184.44	2575.5
1189.395	2546.5
1194.345	2522.5
1199.29	2482.5
1204.23	2489.5
1209.165	2515.5
1214.095	2505.5
1219.021	2537.5
1223.941	2550.5
1228.856	2560.5
1233.766	2532.5
1238.672	2554.5
1243.572	2561.5
1248.467	2526.5
1253.358	2501.5
1258.244	2470.5
1263.124	2418.5
1268	2383.5
1272.871	2359.5
1277.737	2361.5
1282.599	2343.5
1287.455	2328.5
1292.306	2329.5
1297.153	2341.5
1301.995	2370.5
1306.832	2388.5
1311.664	2382.5
1316.491	2381.5
1321.314	2374.5
1326.132	2384.5
1330.945	2342.5
1335.753	2326.5
1340.556	2272.5
1345.354	2258.5
1350.148	2223.5
1354.937	2184.5
1359.722	2142.5
1364.501	2107.5
1369.276	2069.5
1374.046	2037.5
1378.811	2003.5
1383.572	2009.5
1388.327	2006.5
1393.079	1990.5
1397.825	1990.5
1402.567	2028.5
1407.304	1999.5
1412.036	1998.5
1416.764	2028.5
1421.487	2017.5
1426.205	2021.5
1430.919	2016.5
1435.628	2019.5
1440.333	2044.5
1445.032	2059.5
1449.727	2078.5
1454.418	2096.5
1459.104	2068.5
1463.785	2045.5
1468.462	2035.5
1473.134	1995.5
1477.802	1961.5
1482.465	1917.5
1487.123	1867.5
1491.777	1846.5
1496.426	1844.5
1501.071	1829.5
1505.711	1811.5
1510.347	1810.5
1514.978	1797.5
1519.604	1798.5
1524.226	1806.5
1528.844	1798.5
1533.457	1771.5
1538.065	1759.5
1542.669	1750.5
1547.269	1760.5
1551.864	1756.5
1556.454	1784.5
1561.041	1800.5
1565.622	1824.5
1570.199	1806.5
1574.772	1830.5
1579.34	1856.5
1583.904	1871.5
1588.464	1884.5
1593.019	1871.5
1597.569	1894.5
1602.115	1873.5
1606.657	1888.5
1611.195	1874.5
1615.728	1866.5
1620.256	1851.5
1624.78	1889.5
1629.3	1864.5
1633.816	1893.5
1638.327	1893.5
1642.834	1886.5
1647.336	1892.5
1651.834	1901.5
1656.328	1912.5
1660.817	1887.5
1665.302	1885.5
1669.783	1842.5
1674.259	1831.5
1678.732	1777.5
1683.199	1711.5
1687.663	1675.5
1692.122	1624.5
1696.577	1557.5
1701.028	1489.5
1705.474	1438.5
1709.917	1387.5
1714.355	1363.5
1718.788	1368.5
1723.218	1362.5
1727.643	1359.5
1732.064	1351.5
1736.481	1344.5
1740.893	1314.5
1745.301	1283.5
1749.705	1248.5
1754.105	1230.5
1758.501	1217.5
1762.893	1201.5
1767.28	1175.5
1771.663	1200.5
1776.042	1176.5
1780.417	1151.5
1784.787	1139.5
1789.154	1122.5
1793.516	1124.5
1797.874	1097.5
1802.228	1082.5
1806.578	1083.5
1810.924	1079.5
1815.266	1060.5
1819.603	1053.5
1823.937	1059.5
1828.266	1035.5
1832.591	1047.5
1836.913	1051.5
1841.23	1052.5
1845.543	1045.5
1849.852	1035.5
1854.156	1040.5
1858.457	1059.5
1862.754	1047.5
1867.047	1046.5
1871.335	1053.5
1875.62	1054.5
1879.9	1053.5
1884.177	1044.5
1888.449	1037.5
1892.718	1007.5
1896.982	1006.5
1901.243	984.5
1905.499	985.5
1909.752	960.5
1914	949.5
1918.245	952.5
1922.485	927.5
1926.722	925.5
1930.954	927.5
1935.183	919.5
1939.408	912.5
1943.628	906.5
1947.845	915.5
1952.058	891.5
1956.267	890.5
1960.472	888.5
1964.673	882.5
1968.87	849.5
1973.063	864.5
1977.252	845.5
1981.438	857.5
1985.619	847.5
1989.797	849.5
1993.971	839.5
1998.14	850.5
2002.306	852.5
2006.469	868.5
2010.627	850.5
2014.781	862.5
2018.932	849.5
2023.078	854.5
2027.221	849.5
2031.36	834.5
2035.495	834.5
2039.627	807.5
2043.754	793.5
2047.878	796.5
2051.998	788.5
2056.114	784.5
2060.226	793.5
2064.334	787.5
2068.439	778.5
2072.54	783.5
2076.637	780.5
2080.73	766.5
2084.82	776.5
2088.906	750.5
2092.988	748.5
2097.066	760.5
2101.14	726.5
2105.211	732.5
2109.278	734.5
2113.342	716.5
2117.401	712.5
2121.457	708.5
2125.509	702.5
2129.558	696.5
2133.602	691.5
2137.643	696.5
2141.681	699.5
2145.714	685.5
2149.744	686.5
2153.77	687.5
2157.793	685.5
2161.812	676.5
2165.827	672.5
2169.838	669.5
2173.846	657.5
2177.851	633.5
2181.851	629.5
2185.848	628.5
2189.841	624.5
2193.831	621.5
2197.817	605.5
2201.799	598.5
2205.778	598.5
2209.753	605.5
2213.725	607.5
2217.693	600.5
2221.657	597.5
2225.618	603.5
2229.575	609.5
2233.529	583.5
2237.479	589.5
2241.425	586.5
2245.368	564.5
2249.307	560.5
2253.243	543.5
2257.175	546.5
2261.104	530.5
2265.029	524.5
2268.95	521.5
2272.868	521.5
2276.783	507.5
2280.694	505.5
2284.601	496.5
2288.505	487.5
2292.405	479.5
2296.302	476.5
2300.195	469.5
2304.085	470.5
2307.971	456.5
2311.854	462.5
2315.734	439.5
2319.609	437.5
2323.482	433.5
2327.351	427.5
2331.216	439.5
2335.078	457.5
2338.937	439.5
2342.792	427.5
2346.643	418.5
2350.492	421.5
2354.336	432.5
2358.178	429.5
2362.015	417.5
2365.85	421.5
2369.681	429.5
2373.508	418.5
2377.333	419.5
2381.153	414.5
2384.971	428.5
2388.785	415.5
2392.595	413.5
2396.402	406.5
2400.206	409.5
2404.007	405.5
2407.804	399.5
2411.597	396.5
2415.388	385.5
2419.174	390.5
2422.958	391.5
2426.738	389.5
2430.515	384.5
2434.289	385.5
2438.059	382.5
2441.825	372.5
2445.589	376.5
2449.349	364.5
2453.106	353.5
2456.859	357.5
2460.61	367.5
2464.356	347.5
2468.1	353.5
2471.84	338.5
2475.577	339.5
2479.311	333.5
2483.041	335.5
2486.768	339.5
2490.492	324.5
2494.213	335.5
2497.93	325.5
2501.644	325.5
2505.355	319.5
2509.062	311.5
2512.766	321.5
2516.467	306.5
2520.165	293.5
2523.859	302.5
2527.551	306.5
2531.239	288.5
2534.923	286.5
2538.605	278.5
2542.283	279.5
2545.958	277.5
2549.63	275.5
2553.299	277.5
2556.964	277.5
2560.626	263.5
2564.285	273.5
2567.941	255.5
2571.594	259.5
2575.243	260.5
2578.89	256.5
2582.533	256.5
2586.173	245.5
2589.809	243.5
2593.443	237.5
2597.073	251.5
2600.701	223.5
2604.325	231.5
2607.946	232.5
2611.564	238.5
2615.178	229.5
2618.79	231.5
2622.398	231.5
2626.004	222.5
2629.606	228.5
2633.205	218.5
2636.801	210.5
2640.394	221.5
2643.983	217.5
2647.57	211.5
2651.153	201.5
2654.734	202.5
2658.311	185.5
2661.885	202.5
2665.456	188.5
2669.025	197.5
2672.589	190.5
2676.151	191.5
2679.71	187.5
2683.266	185.5
2686.819	191.5
2690.368	181.5
2693.915	175.5
2697.458	176.5
2700.999	180.5
2704.536	169.5
2708.071	165.5
2711.602	158.5
2715.13	163.5
2718.656	157.5
2722.178	163.5
2725.697	159.5
2729.214	148.5
2732.727	153.5
2736.237	152.5
2739.744	145.5
2743.249	146.5
2746.75	146.5
2750.248	137.5
2753.743	135.5
2757.236	131.5
2760.725	126.5
2764.211	130.5
2767.695	121.5
2771.175	118.5
2774.652	118.5
2778.127	121.5
2781.598	123.5
2785.067	129.5
2788.532	126.5
2791.995	121.5
2795.455	122.5
2798.911	115.5
2802.365	118.5
2805.816	123.5
2809.264	116.5
2812.709	134.5
2816.151	125.5
2819.59	124.5
2823.026	127.5
2826.46	124.5
2829.89	123.5
2833.318	114.5
2836.742	120.5
2840.164	127.5
2843.583	127.5
2846.999	122.5
2850.412	123.5
2853.822	130.5
2857.229	126.5
2860.634	139.5
2864.035	131.5
2867.434	138.5
2870.83	154.5
2874.223	148.5
2877.613	163.5
2881	163.5
2884.385	162.5
2887.766	154.5
2891.145	157.5
2894.521	170.5
2897.894	170.5
2901.264	173.5
2904.631	166.5
2907.996	173.5
2911.358	174.5
2914.717	165.5
2918.073	174.5
2921.426	192.5
2924.777	193.5
2928.124	193.5
2931.469	195.5
2934.811	207.5
2938.15	202.5
2941.487	213.5
2944.821	216.5
2948.152	214.5
2951.48	211.5
2954.805	221.5
2958.128	217.5
2961.447	197.5
2964.765	210.5
2968.079	215.5
2971.39	208.5
2974.699	215.5
2978.005	212.5
2981.308	216.5
2984.609	215.5
2987.907	207.5
2991.202	220.5
2994.494	222.5
2997.784	223.5
3001.07	234.5
3004.355	238.5
3007.636	241.5
3010.915	228.5
3014.191	232.5
3017.464	243.5
3020.734	255.5
3024.002	241.5
3027.267	262.5
3030.53	271.5
3033.789	264.5
3037.046	268.5
3040.301	270.5
3043.552	279.5
3046.801	299.5
3050.048	308.5
3053.291	311.5
3056.532	319.5
3059.771	350.5
3063.006	349.5
3066.239	355.5
3069.469	375.5
3072.697	373.5
3075.922	401.5
3079.144	388.5
3082.364	412.5
3085.581	426.5
3088.795	420.5
3092.007	441.5
3095.216	439.5
3098.423	457.5
3101.627	471.5
3104.828	477.5
3108.026	491.5
3111.222	498.5
3114.416	502.5
3117.607	521.5
3120.795	525.5
3123.98	534.5
3127.163	551.5
3130.344	571.5
3133.521	581.5
3136.696	600.5
3139.869	597.5
3143.039	612.5
3146.206	618.5
3149.371	644.5
3152.533	655.5
3155.693	650.5
3158.85	655.5
3162.005	654.5
3165.157	662.5
3168.306	667.5
3171.453	662.5
3174.597	664.5
3177.739	673.5
3180.878	674.5
3184.014	678.5
3187.149	676.5
3190.28	683.5
3193.409	686.5
3196.536	687.5
3199.659	698.5
3202.781	689.5
3205.9	700.5
3209.016	708.5
3212.13	694.5
3215.241	682.5
3218.35	685.5
3221.456	678.5
3224.56	658.5
3227.661	659.5
3230.76	650.5
3233.856	646.5
3236.95	634.5
3240.041	614.5
3243.13	606.5
3246.216	610.5
3249.3	595.5
3252.382	592.5
3255.46	593.5
3258.537	579.5
3261.611	584.5
3264.682	569.5
3267.751	565.5
3270.818	560.5
3273.882	562.5
3276.943	544.5
3280.002	561.5
3283.059	546.5
3286.113	537.5
3289.165	543.5
3292.214	532.5
3295.261	518.5
3298.306	527.5
3301.348	516.5
3304.387	503.5
3307.425	500.5
3310.459	501.5
3313.492	498.5
3316.521	484.5
3319.549	471.5
3322.574	467.5
3325.597	479.5
3328.617	470.5
3331.635	468.5
3334.65	469.5
3337.663	460.5
3340.674	468.5
3343.682	465.5
3346.688	462.5
3349.691	459.5
3352.692	458.5
3355.691	455.5
3358.687	445.5
3361.681	455.5
3364.673	444.5
3367.662	440.5
3370.649	428.5
3373.633	414.5
3376.615	411.5
3379.595	405.5
3382.572	407.5
3385.547	395.5
3388.52	401.5
3391.49	382.5
3394.458	374.5
3397.424	363.5
3400.387	362.5
3403.348	360.5
3406.307	350.5
3409.263	352.5
3412.217	342.5
3415.168	350.5
3418.118	335.5
3421.065	329.5
3424.009	316.5
3426.951	321.5
3429.891	309.5
3432.829	301.5
3435.764	299.5
3438.697	285.5
3441.628	284.5
3444.557	274.5
3447.483	267.5
3450.407	243.5
3453.328	234.5
3456.247	227.5
3459.164	225.5
3462.079	208.5
3464.991	200.5
3467.902	187.5
3470.809	193.5
3473.715	172.5
3476.618	167.5
3479.519	161.5
3482.418	157.5
3485.315	146.5
3488.209	143.5
3491.101	135.5
3493.99	137.5
3496.878	119.5
3499.763	116.5
3502.646	107.5
3505.527	99.5
3508.405	100.5
3511.281	89.5
3514.155	84.5
3517.027	73.5
3519.897	61.5
3522.764	49.5
3525.629	49.5
3528.492	40.5
3531.352	27.5
3534.211	28.5
3537.067	22.5
3539.921	23.5
3542.773	16.5
3545.622	4.5
3548.469	-4.5
3551.315	-1.5
3554.157	-3.5
3556.998	-21.5
3559.837	-10.5
3562.673	-15.5
3565.507	-15.5
3568.339	-33.5
3571.169	-33.5
3573.996	-31.5
3576.822	-36.5
3579.645	-41.5
3582.466	-34.5
3585.285	-48.5
3588.101	-42.5
3590.916	-56.5
3593.728	-64.5
3596.538	-64.5
3599.346	-71.5
3602.152	-65.5
3604.956	-71.5
3607.757	-65.5
3610.556	-73.5
3613.354	-76.5
3616.149	-83.5
3618.942	-85.5
3621.732	-83.5
3624.521	-78.5
3627.307	-84.5
3630.092	-85.5
3632.874	-82.5
3635.654	-89.5
3638.432	-94.5
3641.208	-97.5
3643.982	-99.5
3646.753	-102.5
3649.523	-101.5
3652.29	-98.5
3655.055	-103.5
3657.818	-97.5
3660.579	-104.5
3663.338	-111.5
3666.095	-114.5
3668.849	-110.5
3671.602	-108.5
3674.352	-115.5
3677.101	-107.5
3679.847	-119.5
3682.591	-121.5
3685.333	-117.5
3688.073	-115.5
3690.811	-122.5
3693.547	-124.5
3696.281	-125.5
3699.013	-121.5
3701.742	-124.5
3704.47	-121.5
3707.195	-120.5
3709.919	-128.5
3712.64	-126.5
3715.359	-130.5
3718.076	-122.5
3720.792	-125.5
3723.505	-129.5
3726.216	-127.5
3728.925	-138.5
3731.632	-132.5
3734.336	-138.5
3737.039	-128.5
3739.74	-133.5
3742.439	-139.5
3745.136	-129.5
3747.83	-137.5
3750.523	-139.5
3753.213	-130.5
3755.902	-133.5
3758.589	-135.5
3761.273	-131.5
3763.956	-131.5
3766.636	-137.5
3769.315	-136.5
3771.991	-137.5
3774.665	-139.5
3777.338	-133.5
3780.008	-135.5
3782.677	-136.5
3785.343	-133.5
3788.007	-140.5
3790.67	-142.5
3793.33	-135.5
3795.989	-141.5
3798.645	-136.5
3801.299	-142.5
3803.952	-138.5
3806.602	-135.5
3809.251	-145.5
3811.897	-141.5
3814.542	-144.5
3817.184	-136.5
3819.825	-139.5
3822.463	-141.5
3825.1	-136.5
3827.735	-139.5
3830.367	-138.5
3832.998	-141.5
3835.627	-141.5
3838.253	-139.5
3840.878	-140.5
3843.501	-140.5
3846.122	-137.5
3848.741	-142.5
3851.358	-133.5
3853.973	-147.5
3856.586	-138.5
3859.197	-148.5
3861.806	-142.5
3864.414	-144.5
3867.019	-138.5
3869.622	-137.5
3872.224	-125.5
3874.823	-126.5
3877.421	-107.5
3880.016	-85.5
3882.61	-63.5
3885.202	-70.5
3887.792	-79.5
3890.38	-103.5
3892.966	-125.5
3895.55	-134.5
3898.132	-140.5
3900.713	-142.5
3903.291	-149.5
3905.868	-145.5
3908.442	-138.5
3911.015	-143.5
3913.586	-148.5
3916.155	-143.5
3918.722	-144.5
3921.287	-145.5
3923.85	-144.5
3926.411	-143.5
3928.971	-141.5
3931.528	-143.5
3934.084	-141.5
3936.638	-139.5
3939.19	-148.5
3941.74	-149.5
3944.288	-147.5
3946.834	-139.5
3949.378	-144.5
3951.921	-140.5
3954.462	-150.5
3957	-139.5
3959.537	-136.5
3962.072	-148.5
3964.606	-138.5
3967.137	-146.5
3969.667	-145.5
3972.194	-142.5
3974.72	-143.5
3977.244	-146.5
3979.766	-147.5
3982.286	-137.5
3984.805	-144.5
3987.321	-144.5
3989.836	-139.5
3992.349	-142.5
3994.86	-142.5
3997.369	-145.5
3999.877	-145.5
4002.382	-137.5
4004.886	-147.5
4007.388	-142.5
4009.888	-141.5
4012.386	-145.5
4014.883	-144.5
4017.377	-144.5
4019.87	-144.5
4022.361	-143.5
4024.85	-140.5
4027.338	-144.5
4029.823	-139.5
4032.307	-136.5
4034.789	-145.5
4037.269	-144.5
4039.747	-137.5
4042.224	-139.5
4044.699	-143.5
4047.172	-138.5
4049.643	-140.5
4052.112	-143.5
4054.58	-141.5
4057.046	-139.5
4059.51	-144.5
4061.972	-144.5
4064.432	-142.5
4066.891	-143.5
4069.348	-141.5
4071.803	-142.5
4074.256	-141.5
4076.708	-144.5
4079.158	-147.5
4081.606	-137.5
4084.052	-145.5
4086.497	-141.5
4088.939	-131.5
4091.38	-136.5
4093.819	-140.5
4096.257	-148.5
4098.693	-146.5
4101.127	-149.5
4103.559	-148.5
4105.989	5.5
4108.418	10.5
4110.845	7.5
4113.27	3.5
4115.694	-8.5
4118.115	-4.5
4120.535	-141.5
4122.954	-146.5
4125.37	-140.5
4127.785	-143.5
4130.198	-141.5
4132.609	-136.5
4135.019	-146.5
4137.427	-149.5
4139.833	-146.5
4142.237	-150.5
