Data from 2018-2-8_conc=2_n=6_RamanShift_03.txt Node
Date: Mon Mar 12 14:13:58 IST 2018
User: aro
Spectrometer: QEPB0276
Trigger mode: 0
Integration Time (sec): 3.000000E1
Scans to average: 1
Electric dark correction enabled: true
Nonlinearity correction enabled: false
Boxcar width: 0
XAxis mode: Raman Shifts
Number of Pixels in Spectrum: 1044
>>>>>Begin Spectral Data<<<<<
160.701	15.9
166.742	41.9
172.777	115.9
178.805	381.9
184.826	1039.9
190.841	2251.9
196.849	3758.9
202.85	4908.9
208.845	5369.9
214.833	5389.9
220.815	5316.9
226.789	5308.9
232.758	5343.9
238.719	5260.9
244.674	5300.9
250.623	5223.9
256.565	5104.9
262.5	5058.9
268.429	5008.9
274.351	4942.9
280.267	4913.9
286.176	4871.9
292.079	4881.9
297.975	4811.9
303.865	4836.9
309.748	4793.9
315.625	4792.9
321.495	4771.9
327.359	4791.9
333.217	4790.9
339.068	4771.9
344.912	4753.9
350.751	4778.9
356.583	4795.9
362.408	4780.9
368.227	4770.9
374.04	4839.9
379.847	4805.9
385.647	4841.9
391.44	4873.9
397.228	4885.9
403.009	4885.9
408.784	4910.9
414.553	4946.9
420.315	4954.9
426.071	4972.9
431.821	4956.9
437.565	4934.9
443.302	4914.9
449.033	4930.9
454.758	4928.9
460.477	4885.9
466.189	4846.9
471.896	4838.9
477.596	4816.9
483.29	4799.9
488.978	4784.9
494.66	4753.9
500.335	4690.9
506.005	4602.9
511.668	4475.9
517.325	4331.9
522.977	4224.9
528.622	4194.9
534.261	4104.9
539.894	4051.9
545.521	4035.9
551.141	4029.9
556.756	3956.9
562.365	3941.9
567.968	3931.9
573.565	3918.9
579.155	3893.9
584.74	3872.9
590.319	3875.9
595.892	3860.9
601.459	3842.9
607.02	3826.9
612.575	3805.9
618.124	3766.9
623.667	3739.9
629.204	3699.9
634.735	3685.9
640.261	3695.9
645.781	3646.9
651.294	3638.9
656.802	3615.9
662.304	3602.9
667.8	3589.9
673.29	3608.9
678.775	3570.9
684.254	3562.9
689.726	3553.9
695.193	3532.9
700.655	3536.9
706.11	3514.9
711.56	3501.9
717.004	3451.9
722.442	3455.9
727.874	3423.9
733.301	3410.9
738.722	3424.9
744.137	3386.9
749.547	3390.9
754.951	3392.9
760.349	3424.9
765.741	3399.9
771.128	3410.9
776.509	3420.9
781.885	3442.9
787.254	3444.9
792.618	3435.9
797.977	3422.9
803.33	3403.9
808.677	3367.9
814.019	3358.9
819.355	3306.9
824.686	3267.9
830.011	3305.9
835.33	3271.9
840.644	3261.9
845.952	3272.9
851.255	3261.9
856.552	3254.9
861.844	3249.9
867.13	3222.9
872.41	3219.9
877.686	3187.9
882.955	3153.9
888.219	3146.9
893.478	3115.9
898.731	3071.9
903.979	3002.9
909.221	2991.9
914.458	2980.9
919.69	2984.9
924.916	2982.9
930.136	2990.9
935.351	2991.9
940.561	3002.9
945.766	2979.9
950.965	2997.9
956.158	2945.9
961.347	2941.9
966.529	2873.9
971.707	2825.9
976.879	2811.9
982.046	2789.9
987.208	2757.9
992.364	2764.9
997.515	2790.9
1002.66	2805.9
1007.801	2830.9
1012.936	2845.9
1018.066	2847.9
1023.19	2861.9
1028.309	2840.9
1033.423	2871.9
1038.532	2846.9
1043.636	2803.9
1048.734	2791.9
1053.827	2759.9
1058.915	2725.9
1063.998	2716.9
1069.075	2693.9
1074.147	2695.9
1079.214	2691.9
1084.276	2718.9
1089.333	2735.9
1094.385	2730.9
1099.431	2730.9
1104.472	2740.9
1109.509	2719.9
1114.54	2680.9
1119.565	2652.9
1124.586	2593.9
1129.602	2586.9
1134.613	2538.9
1139.618	2557.9
1144.619	2569.9
1149.614	2542.9
1154.604	2556.9
1159.589	2542.9
1164.57	2547.9
1169.545	2556.9
1174.515	2563.9
1179.48	2538.9
1184.44	2546.9
1189.395	2504.9
1194.345	2470.9
1199.29	2453.9
1204.23	2456.9
1209.165	2447.9
1214.095	2468.9
1219.021	2475.9
1223.941	2510.9
1228.856	2522.9
1233.766	2533.9
1238.672	2543.9
1243.572	2525.9
1248.467	2487.9
1253.358	2472.9
1258.244	2444.9
1263.124	2402.9
1268	2352.9
1272.871	2376.9
1277.737	2319.9
1282.599	2304.9
1287.455	2298.9
1292.306	2307.9
1297.153	2306.9
1301.995	2339.9
1306.832	2333.9
1311.664	2357.9
1316.491	2342.9
1321.314	2350.9
1326.132	2337.9
1330.945	2304.9
1335.753	2273.9
1340.556	2239.9
1345.354	2193.9
1350.148	2163.9
1354.937	2145.9
1359.722	2099.9
1364.501	2062.9
1369.276	2017.9
1374.046	1992.9
1378.811	1979.9
1383.572	1958.9
1388.327	1953.9
1393.079	1984.9
1397.825	1965.9
1402.567	1970.9
1407.304	1971.9
1412.036	1986.9
1416.764	1977.9
1421.487	1990.9
1426.205	1989.9
1430.919	1989.9
1435.628	2009.9
1440.333	1999.9
1445.032	2021.9
1449.727	2041.9
1454.418	2059.9
1459.104	2038.9
1463.785	2034.9
1468.462	1979.9
1473.134	1964.9
1477.802	1899.9
1482.465	1862.9
1487.123	1819.9
1491.777	1788.9
1496.426	1782.9
1501.071	1769.9
1505.711	1757.9
1510.347	1768.9
1514.978	1750.9
1519.604	1760.9
1524.226	1745.9
1528.844	1724.9
1533.457	1746.9
1538.065	1725.9
1542.669	1702.9
1547.269	1705.9
1551.864	1706.9
1556.454	1734.9
1561.041	1744.9
1565.622	1762.9
1570.199	1749.9
1574.772	1767.9
1579.34	1785.9
1583.904	1830.9
1588.464	1835.9
1593.019	1849.9
1597.569	1856.9
1602.115	1848.9
1606.657	1849.9
1611.195	1835.9
1615.728	1811.9
1620.256	1806.9
1624.78	1827.9
1629.3	1823.9
1633.816	1824.9
1638.327	1852.9
1642.834	1849.9
1647.336	1840.9
1651.834	1854.9
1656.328	1845.9
1660.817	1837.9
1665.302	1835.9
1669.783	1778.9
1674.259	1756.9
1678.732	1703.9
1683.199	1666.9
1687.663	1598.9
1692.122	1562.9
1696.577	1498.9
1701.028	1416.9
1705.474	1374.9
1709.917	1343.9
1714.355	1297.9
1718.788	1292.9
1723.218	1297.9
1727.643	1282.9
1732.064	1285.9
1736.481	1284.9
1740.893	1260.9
1745.301	1236.9
1749.705	1197.9
1754.105	1184.9
1758.501	1158.9
1762.893	1143.9
1767.28	1138.9
1771.663	1132.9
1776.042	1123.9
1780.417	1107.9
1784.787	1083.9
1789.154	1075.9
1793.516	1071.9
1797.874	1038.9
1802.228	1027.9
1806.578	1025.9
1810.924	1025.9
1815.266	999.9
1819.603	1008.9
1823.937	1002.9
1828.266	991.9
1832.591	1009.9
1836.913	1002.9
1841.23	993.9
1845.543	992.9
1849.852	1010.9
1854.156	997.9
1858.457	1006.9
1862.754	1005.9
1867.047	1002.9
1871.335	1015.9
1875.62	999.9
1879.9	998.9
1884.177	991.9
1888.449	981.9
1892.718	977.9
1896.982	950.9
1901.243	929.9
1905.499	916.9
1909.752	929.9
1914	901.9
1918.245	895.9
1922.485	881.9
1926.722	875.9
1930.954	880.9
1935.183	870.9
1939.408	862.9
1943.628	847.9
1947.845	852.9
1952.058	844.9
1956.267	833.9
1960.472	825.9
1964.673	808.9
1968.87	809.9
1973.063	799.9
1977.252	798.9
1981.438	806.9
1985.619	811.9
1989.797	799.9
1993.971	805.9
1998.14	807.9
2002.306	802.9
2006.469	819.9
2010.627	812.9
2014.781	813.9
2018.932	808.9
2023.078	817.9
2027.221	802.9
2031.36	806.9
2035.495	790.9
2039.627	769.9
2043.754	765.9
2047.878	757.9
2051.998	750.9
2056.114	754.9
2060.226	742.9
2064.334	742.9
2068.439	746.9
2072.54	736.9
2076.637	739.9
2080.73	730.9
2084.82	735.9
2088.906	718.9
2092.988	713.9
2097.066	701.9
2101.14	695.9
2105.211	683.9
2109.278	682.9
2113.342	672.9
2117.401	669.9
2121.457	664.9
2125.509	659.9
2129.558	646.9
2133.602	657.9
2137.643	652.9
2141.681	652.9
2145.714	646.9
2149.744	662.9
2153.77	645.9
2157.793	640.9
2161.812	655.9
2165.827	631.9
2169.838	624.9
2173.846	628.9
2177.851	601.9
2181.851	591.9
2185.848	606.9
2189.841	597.9
2193.831	602.9
2197.817	583.9
2201.799	580.9
2205.778	573.9
2209.753	575.9
2213.725	580.9
2217.693	572.9
2221.657	577.9
2225.618	570.9
2229.575	565.9
2233.529	569.9
2237.479	566.9
2241.425	550.9
2245.368	541.9
2249.307	534.9
2253.243	522.9
2257.175	521.9
2261.104	517.9
2265.029	505.9
2268.95	509.9
2272.868	504.9
2276.783	479.9
2280.694	491.9
2284.601	477.9
2288.505	472.9
2292.405	474.9
2296.302	466.9
2300.195	464.9
2304.085	452.9
2307.971	446.9
2311.854	441.9
2315.734	428.9
2319.609	420.9
2323.482	420.9
2327.351	423.9
2331.216	433.9
2335.078	441.9
2338.937	420.9
2342.792	414.9
2346.643	404.9
2350.492	411.9
2354.336	412.9
2358.178	409.9
2362.015	413.9
2365.85	413.9
2369.681	418.9
2373.508	401.9
2377.333	407.9
2381.153	401.9
2384.971	420.9
2388.785	400.9
2392.595	412.9
2396.402	392.9
2400.206	399.9
2404.007	398.9
2407.804	395.9
2411.597	388.9
2415.388	382.9
2419.174	397.9
2422.958	379.9
2426.738	382.9
2430.515	377.9
2434.289	379.9
2438.059	371.9
2441.825	379.9
2445.589	364.9
2449.349	362.9
2453.106	354.9
2456.859	354.9
2460.61	355.9
2464.356	344.9
2468.1	332.9
2471.84	336.9
2475.577	341.9
2479.311	325.9
2483.041	328.9
2486.768	331.9
2490.492	319.9
2494.213	323.9
2497.93	323.9
2501.644	319.9
2505.355	308.9
2509.062	304.9
2512.766	307.9
2516.467	300.9
2520.165	302.9
2523.859	294.9
2527.551	291.9
2531.239	290.9
2534.923	274.9
2538.605	275.9
2542.283	278.9
2545.958	271.9
2549.63	279.9
2553.299	272.9
2556.964	264.9
2560.626	266.9
2564.285	254.9
2567.941	270.9
2571.594	256.9
2575.243	256.9
2578.89	244.9
2582.533	238.9
2586.173	240.9
2589.809	233.9
2593.443	230.9
2597.073	236.9
2600.701	227.9
2604.325	233.9
2607.946	226.9
2611.564	228.9
2615.178	234.9
2618.79	216.9
2622.398	226.9
2626.004	217.9
2629.606	217.9
2633.205	219.9
2636.801	217.9
2640.394	213.9
2643.983	211.9
2647.57	203.9
2651.153	205.9
2654.734	206.9
2658.311	193.9
2661.885	202.9
2665.456	202.9
2669.025	202.9
2672.589	191.9
2676.151	194.9
2679.71	191.9
2683.266	180.9
2686.819	182.9
2690.368	175.9
2693.915	176.9
2697.458	170.9
2700.999	165.9
2704.536	167.9
2708.071	157.9
2711.602	158.9
2715.13	160.9
2718.656	154.9
2722.178	148.9
2725.697	151.9
2729.214	142.9
2732.727	153.9
2736.237	142.9
2739.744	145.9
2743.249	135.9
2746.75	138.9
2750.248	131.9
2753.743	129.9
2757.236	126.9
2760.725	127.9
2764.211	117.9
2767.695	114.9
2771.175	106.9
2774.652	117.9
2778.127	108.9
2781.598	110.9
2785.067	126.9
2788.532	118.9
2791.995	123.9
2795.455	113.9
2798.911	121.9
2802.365	127.9
2805.816	122.9
2809.264	117.9
2812.709	122.9
2816.151	119.9
2819.59	121.9
2823.026	122.9
2826.46	115.9
2829.89	120.9
2833.318	113.9
2836.742	126.9
2840.164	118.9
2843.583	126.9
2846.999	131.9
2850.412	126.9
2853.822	127.9
2857.229	128.9
2860.634	130.9
2864.035	133.9
2867.434	141.9
2870.83	148.9
2874.223	149.9
2877.613	163.9
2881	169.9
2884.385	167.9
2887.766	154.9
2891.145	149.9
2894.521	158.9
2897.894	175.9
2901.264	165.9
2904.631	172.9
2907.996	169.9
2911.358	171.9
2914.717	175.9
2918.073	177.9
2921.426	188.9
2924.777	195.9
2928.124	196.9
2931.469	204.9
2934.811	202.9
2938.15	208.9
2941.487	221.9
2944.821	210.9
2948.152	214.9
2951.48	218.9
2954.805	218.9
2958.128	201.9
2961.447	206.9
2964.765	204.9
2968.079	207.9
2971.39	204.9
2974.699	203.9
2978.005	210.9
2981.308	214.9
2984.609	213.9
2987.907	205.9
2991.202	219.9
2994.494	220.9
2997.784	221.9
3001.07	224.9
3004.355	233.9
3007.636	232.9
3010.915	224.9
3014.191	233.9
3017.464	239.9
3020.734	235.9
3024.002	227.9
3027.267	250.9
3030.53	254.9
3033.789	263.9
3037.046	273.9
3040.301	274.9
3043.552	278.9
3046.801	288.9
3050.048	296.9
3053.291	299.9
3056.532	314.9
3059.771	326.9
3063.006	334.9
3066.239	351.9
3069.469	360.9
3072.697	365.9
3075.922	376.9
3079.144	387.9
3082.364	406.9
3085.581	412.9
3088.795	408.9
3092.007	422.9
3095.216	433.9
3098.423	428.9
3101.627	449.9
3104.828	459.9
3108.026	477.9
3111.222	476.9
3114.416	492.9
3117.607	501.9
3120.795	516.9
3123.98	519.9
3127.163	528.9
3130.344	550.9
3133.521	559.9
3136.696	574.9
3139.869	585.9
3143.039	593.9
3146.206	584.9
3149.371	627.9
3152.533	603.9
3155.693	623.9
3158.85	623.9
3162.005	632.9
3165.157	628.9
3168.306	636.9
3171.453	640.9
3174.597	637.9
3177.739	644.9
3180.878	649.9
3184.014	651.9
3187.149	656.9
3190.28	658.9
3193.409	639.9
3196.536	648.9
3199.659	658.9
3202.781	676.9
3205.9	664.9
3209.016	673.9
3212.13	668.9
3215.241	666.9
3218.35	655.9
3221.456	649.9
3224.56	636.9
3227.661	639.9
3230.76	626.9
3233.856	633.9
3236.95	609.9
3240.041	602.9
3243.13	591.9
3246.216	579.9
3249.3	567.9
3252.382	573.9
3255.46	574.9
3258.537	558.9
3261.611	551.9
3264.682	537.9
3267.751	545.9
3270.818	539.9
3273.882	532.9
3276.943	527.9
3280.002	538.9
3283.059	529.9
3286.113	526.9
3289.165	537.9
3292.214	521.9
3295.261	504.9
3298.306	501.9
3301.348	495.9
3304.387	491.9
3307.425	487.9
3310.459	472.9
3313.492	473.9
3316.521	485.9
3319.549	477.9
3322.574	457.9
3325.597	460.9
3328.617	462.9
3331.635	463.9
3334.65	456.9
3337.663	437.9
3340.674	455.9
3343.682	462.9
3346.688	441.9
3349.691	465.9
3352.692	442.9
3355.691	449.9
3358.687	438.9
3361.681	431.9
3364.673	426.9
3367.662	420.9
3370.649	416.9
3373.633	411.9
3376.615	397.9
3379.595	398.9
3382.572	396.9
3385.547	383.9
3388.52	393.9
3391.49	376.9
3394.458	384.9
3397.424	366.9
3400.387	363.9
3403.348	353.9
3406.307	348.9
3409.263	334.9
3412.217	333.9
3415.168	340.9
3418.118	344.9
3421.065	319.9
3424.009	320.9
3426.951	311.9
3429.891	299.9
3432.829	288.9
3435.764	290.9
3438.697	271.9
3441.628	273.9
3444.557	270.9
3447.483	257.9
3450.407	247.9
3453.328	238.9
3456.247	233.9
3459.164	215.9
3462.079	201.9
3464.991	198.9
3467.902	198.9
3470.809	193.9
3473.715	170.9
3476.618	163.9
3479.519	164.9
3482.418	157.9
3485.315	146.9
3488.209	136.9
3491.101	138.9
3493.99	129.9
3496.878	133.9
3499.763	117.9
3502.646	104.9
3505.527	100.9
3508.405	89.9
3511.281	84.9
3514.155	79.9
3517.027	78.9
3519.897	67.9
3522.764	60.9
3525.629	48.9
3528.492	39.9
3531.352	45.9
3534.211	38.9
3537.067	20.9
3539.921	21.9
3542.773	18.9
3545.622	5.9
3548.469	5.9
3551.315	3.9
3554.157	-10.1
3556.998	-11.1
3559.837	-11.1
3562.673	-21.1
3565.507	-14.1
3568.339	-25.1
3571.169	-31.1
3573.996	-24.1
3576.822	-32.1
3579.645	-32.1
3582.466	-34.1
3585.285	-43.1
3588.101	-30.1
3590.916	-49.1
3593.728	-57.1
3596.538	-55.1
3599.346	-56.1
3602.152	-57.1
3604.956	-65.1
3607.757	-58.1
3610.556	-63.1
3613.354	-62.1
3616.149	-74.1
3618.942	-77.1
3621.732	-77.1
3624.521	-80.1
3627.307	-81.1
3630.092	-80.1
3632.874	-76.1
3635.654	-82.1
3638.432	-82.1
3641.208	-83.1
3643.982	-92.1
3646.753	-91.1
3649.523	-93.1
3652.29	-86.1
3655.055	-92.1
3657.818	-94.1
3660.579	-96.1
3663.338	-96.1
3666.095	-104.1
3668.849	-99.1
3671.602	-104.1
3674.352	-105.1
3677.101	-104.1
3679.847	-108.1
3682.591	-107.1
3685.333	-103.1
3688.073	-112.1
3690.811	-108.1
3693.547	-119.1
3696.281	-116.1
3699.013	-115.1
3701.742	-119.1
3704.47	-119.1
3707.195	-110.1
3709.919	-111.1
3712.64	-121.1
3715.359	-122.1
3718.076	-118.1
3720.792	-127.1
3723.505	-126.1
3726.216	-123.1
3728.925	-122.1
3731.632	-116.1
3734.336	-127.1
3737.039	-118.1
3739.74	-126.1
3742.439	-135.1
3745.136	-119.1
3747.83	-131.1
3750.523	-129.1
3753.213	-132.1
3755.902	-128.1
3758.589	-129.1
3761.273	-124.1
3763.956	-129.1
3766.636	-130.1
3769.315	-118.1
3771.991	-122.1
3774.665	-131.1
3777.338	-117.1
3780.008	-128.1
3782.677	-130.1
3785.343	-127.1
3788.007	-131.1
3790.67	-132.1
3793.33	-127.1
3795.989	-128.1
3798.645	-125.1
3801.299	-126.1
3803.952	-137.1
3806.602	-129.1
3809.251	-134.1
3811.897	-134.1
3814.542	-137.1
3817.184	-121.1
3819.825	-131.1
3822.463	-126.1
3825.1	-127.1
3827.735	-132.1
3830.367	-133.1
3832.998	-136.1
3835.627	-130.1
3838.253	-127.1
3840.878	-127.1
3843.501	-129.1
3846.122	-131.1
3848.741	-136.1
3851.358	-129.1
3853.973	-140.1
3856.586	-130.1
3859.197	-136.1
3861.806	-125.1
3864.414	-133.1
3867.019	-130.1
3869.622	-133.1
3872.224	-120.1
3874.823	-114.1
3877.421	-104.1
3880.016	-88.1
3882.61	-68.1
3885.202	-66.1
3887.792	-77.1
3890.38	-106.1
3892.966	-122.1
3895.55	-127.1
3898.132	-131.1
3900.713	-135.1
3903.291	-134.1
3905.868	-137.1
3908.442	-132.1
3911.015	-136.1
3913.586	-137.1
3916.155	-138.1
3918.722	-137.1
3921.287	-134.1
3923.85	-128.1
3926.411	-142.1
3928.971	-133.1
3931.528	-136.1
3934.084	-136.1
3936.638	-127.1
3939.19	-141.1
3941.74	-137.1
3944.288	-137.1
3946.834	-131.1
3949.378	-135.1
3951.921	-140.1
3954.462	-146.1
3957	-138.1
3959.537	-129.1
3962.072	-138.1
3964.606	-130.1
3967.137	-135.1
3969.667	-136.1
3972.194	-138.1
3974.72	-136.1
3977.244	-136.1
3979.766	-137.1
3982.286	-134.1
3984.805	-133.1
3987.321	-132.1
3989.836	-128.1
3992.349	-132.1
3994.86	-134.1
3997.369	-134.1
3999.877	-128.1
4002.382	-133.1
4004.886	-136.1
4007.388	-133.1
4009.888	-130.1
4012.386	-131.1
4014.883	-136.1
4017.377	-136.1
4019.87	-128.1
4022.361	-134.1
4024.85	-134.1
4027.338	-130.1
4029.823	-129.1
4032.307	-136.1
4034.789	-134.1
4037.269	-133.1
4039.747	-131.1
4042.224	-129.1
4044.699	-133.1
4047.172	-124.1
4049.643	-134.1
4052.112	-132.1
4054.58	-132.1
4057.046	-133.1
4059.51	-130.1
4061.972	-132.1
4064.432	-130.1
4066.891	-135.1
4069.348	-133.1
4071.803	-139.1
4074.256	-138.1
4076.708	-131.1
4079.158	-135.1
4081.606	-124.1
4084.052	-132.1
4086.497	-134.1
4088.939	-125.1
4091.38	-134.1
4093.819	-130.1
4096.257	-137.1
4098.693	-137.1
4101.127	-139.1
4103.559	-134.1
4105.989	-7.1
4108.418	-10.1
4110.845	-11.1
4113.27	-11.1
4115.694	-11.1
4118.115	-10.1
4120.535	-135.1
4122.954	-136.1
4125.37	-128.1
4127.785	-130.1
4130.198	-130.1
4132.609	-133.1
4135.019	-138.1
4137.427	-140.1
4139.833	-138.1
4142.237	-139.1
