Data from 2018-2-8_conc=4_n=8_RamanShift_05.txt Node
Date: Mon Mar 12 15:33:58 IST 2018
User: aro
Spectrometer: QEPB0276
Trigger mode: 0
Integration Time (sec): 3.000000E1
Scans to average: 1
Electric dark correction enabled: true
Nonlinearity correction enabled: false
Boxcar width: 0
XAxis mode: Raman Shifts
Number of Pixels in Spectrum: 1044
>>>>>Begin Spectral Data<<<<<
160.701	20.6
166.742	52.6
172.777	134.6
178.805	435.6
184.826	1175.6
190.841	2540.6
196.849	4268.6
202.85	5604.6
208.845	6126.6
214.833	6151.6
220.815	6065.6
226.789	6037.6
232.758	6021.6
238.719	6003.6
244.674	5983.6
250.623	5911.6
256.565	5845.6
262.5	5707.6
268.429	5676.6
274.351	5594.6
280.267	5556.6
286.176	5511.6
292.079	5496.6
297.975	5477.6
303.865	5432.6
309.748	5439.6
315.625	5393.6
321.495	5402.6
327.359	5372.6
333.217	5383.6
339.068	5346.6
344.912	5404.6
350.751	5420.6
356.583	5410.6
362.408	5418.6
368.227	5448.6
374.04	5418.6
379.847	5449.6
385.647	5485.6
391.44	5475.6
397.228	5506.6
403.009	5575.6
408.784	5584.6
414.553	5591.6
420.315	5621.6
426.071	5596.6
431.821	5596.6
437.565	5611.6
443.302	5559.6
449.033	5575.6
454.758	5556.6
460.477	5502.6
466.189	5508.6
471.896	5472.6
477.596	5422.6
483.29	5425.6
488.978	5426.6
494.66	5390.6
500.335	5296.6
506.005	5216.6
511.668	5062.6
517.325	4946.6
522.977	4817.6
528.622	4755.6
534.261	4668.6
539.894	4640.6
545.521	4589.6
551.141	4556.6
556.756	4560.6
562.365	4515.6
567.968	4477.6
573.565	4471.6
579.155	4426.6
584.74	4426.6
590.319	4394.6
595.892	4374.6
601.459	4396.6
607.02	4364.6
612.575	4334.6
618.124	4294.6
623.667	4243.6
629.204	4241.6
634.735	4177.6
640.261	4170.6
645.781	4138.6
651.294	4094.6
656.802	4117.6
662.304	4076.6
667.8	4087.6
673.29	4068.6
678.775	4083.6
684.254	4055.6
689.726	4058.6
695.193	4021.6
700.655	4034.6
706.11	3984.6
711.56	3962.6
717.004	3963.6
722.442	3917.6
727.874	3917.6
733.301	3910.6
738.722	3891.6
744.137	3872.6
749.547	3847.6
754.951	3866.6
760.349	3869.6
765.741	3877.6
771.128	3859.6
776.509	3878.6
781.885	3913.6
787.254	3901.6
792.618	3918.6
797.977	3896.6
803.33	3864.6
808.677	3854.6
814.019	3803.6
819.355	3780.6
824.686	3795.6
830.011	3755.6
835.33	3738.6
840.644	3754.6
845.952	3706.6
851.255	3735.6
856.552	3730.6
861.844	3666.6
867.13	3645.6
872.41	3661.6
877.686	3619.6
882.955	3627.6
888.219	3565.6
893.478	3546.6
898.731	3490.6
903.979	3421.6
909.221	3402.6
914.458	3395.6
919.69	3404.6
924.916	3396.6
930.136	3398.6
935.351	3393.6
940.561	3411.6
945.766	3390.6
950.965	3415.6
956.158	3373.6
961.347	3336.6
966.529	3293.6
971.707	3219.6
976.879	3213.6
982.046	3165.6
987.208	3162.6
992.364	3176.6
997.515	3154.6
1002.66	3199.6
1007.801	3222.6
1012.936	3260.6
1018.066	3260.6
1023.19	3273.6
1028.309	3255.6
1033.423	3261.6
1038.532	3221.6
1043.636	3215.6
1048.734	3140.6
1053.827	3126.6
1058.915	3073.6
1063.998	3062.6
1069.075	3074.6
1074.147	3078.6
1079.214	3084.6
1084.276	3099.6
1089.333	3108.6
1094.385	3119.6
1099.431	3114.6
1104.472	3123.6
1109.509	3105.6
1114.54	3044.6
1119.565	3000.6
1124.586	2974.6
1129.602	2941.6
1134.613	2927.6
1139.618	2899.6
1144.619	2892.6
1149.614	2887.6
1154.604	2892.6
1159.589	2912.6
1164.57	2891.6
1169.545	2930.6
1174.515	2924.6
1179.48	2908.6
1184.44	2886.6
1189.395	2835.6
1194.345	2809.6
1199.29	2814.6
1204.23	2816.6
1209.165	2797.6
1214.095	2838.6
1219.021	2856.6
1223.941	2841.6
1228.856	2873.6
1233.766	2855.6
1238.672	2890.6
1243.572	2859.6
1248.467	2863.6
1253.358	2823.6
1258.244	2794.6
1263.124	2748.6
1268	2678.6
1272.871	2662.6
1277.737	2639.6
1282.599	2638.6
1287.455	2623.6
1292.306	2621.6
1297.153	2653.6
1301.995	2649.6
1306.832	2667.6
1311.664	2691.6
1316.491	2698.6
1321.314	2692.6
1326.132	2666.6
1330.945	2641.6
1335.753	2615.6
1340.556	2562.6
1345.354	2535.6
1350.148	2472.6
1354.937	2455.6
1359.722	2383.6
1364.501	2376.6
1369.276	2352.6
1374.046	2287.6
1378.811	2275.6
1383.572	2237.6
1388.327	2245.6
1393.079	2260.6
1397.825	2254.6
1402.567	2247.6
1407.304	2241.6
1412.036	2256.6
1416.764	2283.6
1421.487	2290.6
1426.205	2276.6
1430.919	2261.6
1435.628	2273.6
1440.333	2325.6
1445.032	2292.6
1449.727	2343.6
1454.418	2357.6
1459.104	2360.6
1463.785	2307.6
1468.462	2263.6
1473.134	2230.6
1477.802	2174.6
1482.465	2130.6
1487.123	2097.6
1491.777	2074.6
1496.426	2061.6
1501.071	2019.6
1505.711	2005.6
1510.347	2011.6
1514.978	2021.6
1519.604	2014.6
1524.226	2007.6
1528.844	1987.6
1533.457	1982.6
1538.065	1968.6
1542.669	1979.6
1547.269	1968.6
1551.864	1967.6
1556.454	1996.6
1561.041	2009.6
1565.622	2002.6
1570.199	2016.6
1574.772	2023.6
1579.34	2057.6
1583.904	2088.6
1588.464	2116.6
1593.019	2115.6
1597.569	2110.6
1602.115	2103.6
1606.657	2103.6
1611.195	2100.6
1615.728	2089.6
1620.256	2076.6
1624.78	2089.6
1629.3	2095.6
1633.816	2109.6
1638.327	2121.6
1642.834	2120.6
1647.336	2147.6
1651.834	2137.6
1656.328	2127.6
1660.817	2108.6
1665.302	2097.6
1669.783	2067.6
1674.259	2031.6
1678.732	1964.6
1683.199	1938.6
1687.663	1867.6
1692.122	1794.6
1696.577	1718.6
1701.028	1650.6
1705.474	1586.6
1709.917	1523.6
1714.355	1508.6
1718.788	1502.6
1723.218	1500.6
1727.643	1500.6
1732.064	1500.6
1736.481	1484.6
1740.893	1441.6
1745.301	1414.6
1749.705	1387.6
1754.105	1352.6
1758.501	1345.6
1762.893	1329.6
1767.28	1301.6
1771.663	1287.6
1776.042	1291.6
1780.417	1284.6
1784.787	1247.6
1789.154	1234.6
1793.516	1242.6
1797.874	1203.6
1802.228	1204.6
1806.578	1182.6
1810.924	1169.6
1815.266	1150.6
1819.603	1148.6
1823.937	1170.6
1828.266	1150.6
1832.591	1148.6
1836.913	1134.6
1841.23	1164.6
1845.543	1169.6
1849.852	1177.6
1854.156	1142.6
1858.457	1160.6
1862.754	1156.6
1867.047	1166.6
1871.335	1144.6
1875.62	1163.6
1879.9	1146.6
1884.177	1140.6
1888.449	1120.6
1892.718	1126.6
1896.982	1110.6
1901.243	1100.6
1905.499	1077.6
1909.752	1066.6
1914	1050.6
1918.245	1033.6
1922.485	1019.6
1926.722	1005.6
1930.954	1010.6
1935.183	1007.6
1939.408	1004.6
1943.628	1002.6
1947.845	979.6
1952.058	973.6
1956.267	966.6
1960.472	968.6
1964.673	952.6
1968.87	953.6
1973.063	948.6
1977.252	911.6
1981.438	934.6
1985.619	922.6
1989.797	915.6
1993.971	929.6
1998.14	951.6
2002.306	920.6
2006.469	934.6
2010.627	947.6
2014.781	942.6
2018.932	927.6
2023.078	952.6
2027.221	931.6
2031.36	929.6
2035.495	910.6
2039.627	904.6
2043.754	871.6
2047.878	887.6
2051.998	868.6
2056.114	858.6
2060.226	859.6
2064.334	866.6
2068.439	868.6
2072.54	860.6
2076.637	861.6
2080.73	852.6
2084.82	832.6
2088.906	842.6
2092.988	841.6
2097.066	828.6
2101.14	814.6
2105.211	806.6
2109.278	792.6
2113.342	786.6
2117.401	770.6
2121.457	768.6
2125.509	769.6
2129.558	756.6
2133.602	757.6
2137.643	763.6
2141.681	775.6
2145.714	761.6
2149.744	757.6
2153.77	757.6
2157.793	757.6
2161.812	753.6
2165.827	745.6
2169.838	738.6
2173.846	708.6
2177.851	713.6
2181.851	700.6
2185.848	682.6
2189.841	688.6
2193.831	685.6
2197.817	675.6
2201.799	664.6
2205.778	678.6
2209.753	662.6
2213.725	668.6
2217.693	659.6
2221.657	668.6
2225.618	669.6
2229.575	667.6
2233.529	661.6
2237.479	658.6
2241.425	626.6
2245.368	634.6
2249.307	620.6
2253.243	612.6
2257.175	601.6
2261.104	592.6
2265.029	588.6
2268.95	582.6
2272.868	561.6
2276.783	564.6
2280.694	545.6
2284.601	541.6
2288.505	556.6
2292.405	535.6
2296.302	534.6
2300.195	535.6
2304.085	521.6
2307.971	502.6
2311.854	509.6
2315.734	484.6
2319.609	480.6
2323.482	487.6
2327.351	489.6
2331.216	500.6
2335.078	512.6
2338.937	475.6
2342.792	474.6
2346.643	472.6
2350.492	463.6
2354.336	482.6
2358.178	459.6
2362.015	477.6
2365.85	477.6
2369.681	464.6
2373.508	473.6
2377.333	471.6
2381.153	471.6
2384.971	476.6
2388.785	472.6
2392.595	458.6
2396.402	460.6
2400.206	444.6
2404.007	445.6
2407.804	440.6
2411.597	448.6
2415.388	443.6
2419.174	447.6
2422.958	439.6
2426.738	441.6
2430.515	429.6
2434.289	427.6
2438.059	432.6
2441.825	416.6
2445.589	426.6
2449.349	413.6
2453.106	410.6
2456.859	402.6
2460.61	405.6
2464.356	391.6
2468.1	398.6
2471.84	380.6
2475.577	387.6
2479.311	365.6
2483.041	381.6
2486.768	378.6
2490.492	361.6
2494.213	373.6
2497.93	369.6
2501.644	356.6
2505.355	363.6
2509.062	347.6
2512.766	359.6
2516.467	341.6
2520.165	354.6
2523.859	347.6
2527.551	348.6
2531.239	317.6
2534.923	315.6
2538.605	315.6
2542.283	318.6
2545.958	316.6
2549.63	317.6
2553.299	307.6
2556.964	304.6
2560.626	297.6
2564.285	306.6
2567.941	289.6
2571.594	294.6
2575.243	291.6
2578.89	286.6
2582.533	276.6
2586.173	271.6
2589.809	265.6
2593.443	275.6
2597.073	261.6
2600.701	259.6
2604.325	266.6
2607.946	257.6
2611.564	255.6
2615.178	259.6
2618.79	256.6
2622.398	254.6
2626.004	249.6
2629.606	257.6
2633.205	250.6
2636.801	244.6
2640.394	235.6
2643.983	236.6
2647.57	235.6
2651.153	225.6
2654.734	226.6
2658.311	223.6
2661.885	222.6
2665.456	227.6
2669.025	227.6
2672.589	220.6
2676.151	218.6
2679.71	212.6
2683.266	208.6
2686.819	208.6
2690.368	210.6
2693.915	199.6
2697.458	201.6
2700.999	198.6
2704.536	205.6
2708.071	179.6
2711.602	181.6
2715.13	186.6
2718.656	173.6
2722.178	182.6
2725.697	172.6
2729.214	157.6
2732.727	175.6
2736.237	169.6
2739.744	168.6
2743.249	168.6
2746.75	166.6
2750.248	156.6
2753.743	150.6
2757.236	147.6
2760.725	145.6
2764.211	148.6
2767.695	140.6
2771.175	128.6
2774.652	134.6
2778.127	132.6
2781.598	132.6
2785.067	139.6
2788.532	127.6
2791.995	138.6
2795.455	137.6
2798.911	141.6
2802.365	147.6
2805.816	135.6
2809.264	140.6
2812.709	151.6
2816.151	149.6
2819.59	141.6
2823.026	140.6
2826.46	142.6
2829.89	152.6
2833.318	134.6
2836.742	142.6
2840.164	134.6
2843.583	138.6
2846.999	142.6
2850.412	140.6
2853.822	146.6
2857.229	146.6
2860.634	160.6
2864.035	161.6
2867.434	163.6
2870.83	163.6
2874.223	181.6
2877.613	180.6
2881	187.6
2884.385	191.6
2887.766	182.6
2891.145	180.6
2894.521	191.6
2897.894	182.6
2901.264	193.6
2904.631	182.6
2907.996	196.6
2911.358	200.6
2914.717	198.6
2918.073	208.6
2921.426	219.6
2924.777	217.6
2928.124	212.6
2931.469	219.6
2934.811	228.6
2938.15	235.6
2941.487	242.6
2944.821	239.6
2948.152	242.6
2951.48	243.6
2954.805	247.6
2958.128	240.6
2961.447	246.6
2964.765	239.6
2968.079	240.6
2971.39	242.6
2974.699	244.6
2978.005	245.6
2981.308	238.6
2984.609	240.6
2987.907	246.6
2991.202	243.6
2994.494	251.6
2997.784	258.6
3001.07	254.6
3004.355	267.6
3007.636	268.6
3010.915	261.6
3014.191	273.6
3017.464	280.6
3020.734	275.6
3024.002	275.6
3027.267	283.6
3030.53	278.6
3033.789	295.6
3037.046	305.6
3040.301	306.6
3043.552	332.6
3046.801	340.6
3050.048	341.6
3053.291	355.6
3056.532	373.6
3059.771	380.6
3063.006	400.6
3066.239	406.6
3069.469	420.6
3072.697	425.6
3075.922	443.6
3079.144	455.6
3082.364	460.6
3085.581	472.6
3088.795	482.6
3092.007	491.6
3095.216	495.6
3098.423	515.6
3101.627	529.6
3104.828	540.6
3108.026	541.6
3111.222	570.6
3114.416	567.6
3117.607	586.6
3120.795	594.6
3123.98	595.6
3127.163	624.6
3130.344	656.6
3133.521	648.6
3136.696	685.6
3139.869	677.6
3143.039	692.6
3146.206	700.6
3149.371	714.6
3152.533	723.6
3155.693	736.6
3158.85	735.6
3162.005	737.6
3165.157	732.6
3168.306	751.6
3171.453	751.6
3174.597	762.6
3177.739	750.6
3180.878	758.6
3184.014	773.6
3187.149	762.6
3190.28	759.6
3193.409	778.6
3196.536	780.6
3199.659	770.6
3202.781	779.6
3205.9	778.6
3209.016	790.6
3212.13	783.6
3215.241	783.6
3218.35	774.6
3221.456	762.6
3224.56	744.6
3227.661	739.6
3230.76	736.6
3233.856	720.6
3236.95	697.6
3240.041	705.6
3243.13	698.6
3246.216	676.6
3249.3	662.6
3252.382	656.6
3255.46	664.6
3258.537	646.6
3261.611	652.6
3264.682	635.6
3267.751	633.6
3270.818	620.6
3273.882	626.6
3276.943	622.6
3280.002	616.6
3283.059	622.6
3286.113	606.6
3289.165	609.6
3292.214	593.6
3295.261	592.6
3298.306	590.6
3301.348	580.6
3304.387	556.6
3307.425	560.6
3310.459	558.6
3313.492	547.6
3316.521	545.6
3319.549	541.6
3322.574	537.6
3325.597	549.6
3328.617	533.6
3331.635	532.6
3334.65	533.6
3337.663	519.6
3340.674	523.6
3343.682	519.6
3346.688	520.6
3349.691	522.6
3352.692	516.6
3355.691	520.6
3358.687	510.6
3361.681	503.6
3364.673	502.6
3367.662	497.6
3370.649	481.6
3373.633	481.6
3376.615	469.6
3379.595	459.6
3382.572	453.6
3385.547	451.6
3388.52	447.6
3391.49	445.6
3394.458	444.6
3397.424	429.6
3400.387	418.6
3403.348	401.6
3406.307	397.6
3409.263	390.6
3412.217	385.6
3415.168	396.6
3418.118	385.6
3421.065	373.6
3424.009	360.6
3426.951	362.6
3429.891	360.6
3432.829	343.6
3435.764	339.6
3438.697	333.6
3441.628	319.6
3444.557	311.6
3447.483	310.6
3450.407	284.6
3453.328	268.6
3456.247	266.6
3459.164	258.6
3462.079	241.6
3464.991	238.6
3467.902	228.6
3470.809	220.6
3473.715	195.6
3476.618	188.6
3479.519	189.6
3482.418	179.6
3485.315	174.6
3488.209	155.6
3491.101	150.6
3493.99	148.6
3496.878	140.6
3499.763	122.6
3502.646	127.6
3505.527	113.6
3508.405	107.6
3511.281	103.6
3514.155	97.6
3517.027	79.6
3519.897	77.6
3522.764	69.6
3525.629	55.6
3528.492	54.6
3531.352	46.6
3534.211	40.6
3537.067	31.6
3539.921	28.6
3542.773	16.6
3545.622	-1.4
3548.469	7.6
3551.315	6.6
3554.157	-2.4
3556.998	-14.4
3559.837	-6.4
3562.673	-18.4
3565.507	-21.4
3568.339	-28.4
3571.169	-41.4
3573.996	-39.4
3576.822	-38.4
3579.645	-31.4
3582.466	-43.4
3585.285	-51.4
3588.101	-43.4
3590.916	-55.4
3593.728	-63.4
3596.538	-64.4
3599.346	-62.4
3602.152	-67.4
3604.956	-71.4
3607.757	-67.4
3610.556	-80.4
3613.354	-78.4
3616.149	-87.4
3618.942	-87.4
3621.732	-88.4
3624.521	-87.4
3627.307	-84.4
3630.092	-91.4
3632.874	-90.4
3635.654	-100.4
3638.432	-94.4
3641.208	-100.4
3643.982	-100.4
3646.753	-105.4
3649.523	-110.4
3652.29	-106.4
3655.055	-105.4
3657.818	-111.4
3660.579	-110.4
3663.338	-114.4
3666.095	-119.4
3668.849	-120.4
3671.602	-122.4
3674.352	-116.4
3677.101	-125.4
3679.847	-125.4
3682.591	-130.4
3685.333	-123.4
3688.073	-127.4
3690.811	-132.4
3693.547	-132.4
3696.281	-131.4
3699.013	-128.4
3701.742	-134.4
3704.47	-136.4
3707.195	-134.4
3709.919	-136.4
3712.64	-139.4
3715.359	-137.4
3718.076	-136.4
3720.792	-144.4
3723.505	-142.4
3726.216	-139.4
3728.925	-145.4
3731.632	-138.4
3734.336	-149.4
3737.039	-142.4
3739.74	-141.4
3742.439	-151.4
3745.136	-141.4
3747.83	-147.4
3750.523	-148.4
3753.213	-151.4
3755.902	-145.4
3758.589	-155.4
3761.273	-142.4
3763.956	-143.4
3766.636	-143.4
3769.315	-142.4
3771.991	-148.4
3774.665	-157.4
3777.338	-149.4
3780.008	-146.4
3782.677	-150.4
3785.343	-148.4
3788.007	-149.4
3790.67	-151.4
3793.33	-150.4
3795.989	-150.4
3798.645	-150.4
3801.299	-150.4
3803.952	-153.4
3806.602	-147.4
3809.251	-152.4
3811.897	-156.4
3814.542	-154.4
3817.184	-149.4
3819.825	-155.4
3822.463	-153.4
3825.1	-152.4
3827.735	-150.4
3830.367	-149.4
3832.998	-151.4
3835.627	-154.4
3838.253	-154.4
3840.878	-155.4
3843.501	-150.4
3846.122	-151.4
3848.741	-158.4
3851.358	-150.4
3853.973	-159.4
3856.586	-155.4
3859.197	-157.4
3861.806	-155.4
3864.414	-153.4
3867.019	-149.4
3869.622	-149.4
3872.224	-138.4
3874.823	-126.4
3877.421	-123.4
3880.016	-93.4
3882.61	-67.4
3885.202	-73.4
3887.792	-95.4
3890.38	-117.4
3892.966	-140.4
3895.55	-147.4
3898.132	-147.4
3900.713	-149.4
3903.291	-156.4
3905.868	-160.4
3908.442	-152.4
3911.015	-154.4
3913.586	-157.4
3916.155	-156.4
3918.722	-157.4
3921.287	-156.4
3923.85	-160.4
3926.411	-162.4
3928.971	-156.4
3931.528	-160.4
3934.084	-153.4
3936.638	-149.4
3939.19	-162.4
3941.74	-162.4
3944.288	-161.4
3946.834	-155.4
3949.378	-155.4
3951.921	-151.4
3954.462	-161.4
3957	-160.4
3959.537	-150.4
3962.072	-157.4
3964.606	-153.4
3967.137	-156.4
3969.667	-157.4
3972.194	-160.4
3974.72	-153.4
3977.244	-154.4
3979.766	-160.4
3982.286	-155.4
3984.805	-156.4
3987.321	-151.4
3989.836	-149.4
3992.349	-151.4
3994.86	-150.4
3997.369	-158.4
3999.877	-150.4
4002.382	-150.4
4004.886	-157.4
4007.388	-148.4
4009.888	-151.4
4012.386	-156.4
4014.883	-153.4
4017.377	-154.4
4019.87	-152.4
4022.361	-160.4
4024.85	-153.4
4027.338	-155.4
4029.823	-152.4
4032.307	-153.4
4034.789	-159.4
4037.269	-151.4
4039.747	-152.4
4042.224	-154.4
4044.699	-157.4
4047.172	-154.4
4049.643	-154.4
4052.112	-152.4
4054.58	-152.4
4057.046	-155.4
4059.51	-151.4
4061.972	-152.4
4064.432	-154.4
4066.891	-155.4
4069.348	-150.4
4071.803	-157.4
4074.256	-155.4
4076.708	-151.4
4079.158	-153.4
4081.606	-149.4
4084.052	-156.4
4086.497	-153.4
4088.939	-147.4
4091.38	-158.4
4093.819	-154.4
4096.257	-164.4
4098.693	-159.4
4101.127	-161.4
4103.559	-158.4
4105.989	3.6
4108.418	3.6
4110.845	-4.4
4113.27	-6.4
4115.694	-5.4
4118.115	-5.4
4120.535	-158.4
4122.954	-159.4
4125.37	-147.4
4127.785	-158.4
4130.198	-152.4
4132.609	-148.4
4135.019	-160.4
4137.427	-160.4
4139.833	-160.4
4142.237	-162.4
