Data from 2018-2-8_conc=2_n=3_RamanShift_03.txt Node
Date: Mon Mar 12 14:02:28 IST 2018
User: aro
Spectrometer: QEPB0276
Trigger mode: 0
Integration Time (sec): 3.000000E1
Scans to average: 1
Electric dark correction enabled: true
Nonlinearity correction enabled: false
Boxcar width: 0
XAxis mode: Raman Shifts
Number of Pixels in Spectrum: 1044
>>>>>Begin Spectral Data<<<<<
160.701	13.5
166.742	46.5
172.777	125.5
178.805	395.5
184.826	1105.5
190.841	2394.5
196.849	3981.5
202.85	5197.5
208.845	5693.5
214.833	5674.5
220.815	5608.5
226.789	5595.5
232.758	5605.5
238.719	5592.5
244.674	5525.5
250.623	5477.5
256.565	5426.5
262.5	5340.5
268.429	5249.5
274.351	5214.5
280.267	5173.5
286.176	5140.5
292.079	5108.5
297.975	5126.5
303.865	5072.5
309.748	5095.5
315.625	5037.5
321.495	5033.5
327.359	5022.5
333.217	5028.5
339.068	5033.5
344.912	5012.5
350.751	5040.5
356.583	5050.5
362.408	5070.5
368.227	5084.5
374.04	5076.5
379.847	5107.5
385.647	5133.5
391.44	5125.5
397.228	5144.5
403.009	5188.5
408.784	5192.5
414.553	5229.5
420.315	5245.5
426.071	5247.5
431.821	5215.5
437.565	5215.5
443.302	5230.5
449.033	5205.5
454.758	5173.5
460.477	5140.5
466.189	5131.5
471.896	5115.5
477.596	5081.5
483.29	5056.5
488.978	5046.5
494.66	5052.5
500.335	4972.5
506.005	4863.5
511.668	4726.5
517.325	4577.5
522.977	4489.5
528.622	4420.5
534.261	4338.5
539.894	4306.5
545.521	4258.5
551.141	4242.5
556.756	4198.5
562.365	4189.5
567.968	4149.5
573.565	4134.5
579.155	4127.5
584.74	4119.5
590.319	4073.5
595.892	4083.5
601.459	4077.5
607.02	4043.5
612.575	4036.5
618.124	3983.5
623.667	3948.5
629.204	3926.5
634.735	3908.5
640.261	3871.5
645.781	3840.5
651.294	3829.5
656.802	3827.5
662.304	3798.5
667.8	3822.5
673.29	3822.5
678.775	3786.5
684.254	3787.5
689.726	3764.5
695.193	3744.5
700.655	3724.5
706.11	3693.5
711.56	3696.5
717.004	3645.5
722.442	3652.5
727.874	3636.5
733.301	3632.5
738.722	3585.5
744.137	3591.5
749.547	3592.5
754.951	3608.5
760.349	3589.5
765.741	3570.5
771.128	3615.5
776.509	3633.5
781.885	3634.5
787.254	3661.5
792.618	3648.5
797.977	3595.5
803.33	3604.5
808.677	3581.5
814.019	3550.5
819.355	3504.5
824.686	3521.5
830.011	3448.5
835.33	3467.5
840.644	3464.5
845.952	3483.5
851.255	3455.5
856.552	3453.5
861.844	3439.5
867.13	3447.5
872.41	3381.5
877.686	3387.5
882.955	3338.5
888.219	3324.5
893.478	3259.5
898.731	3229.5
903.979	3204.5
909.221	3173.5
914.458	3167.5
919.69	3138.5
924.916	3152.5
930.136	3153.5
935.351	3154.5
940.561	3192.5
945.766	3160.5
950.965	3169.5
956.158	3125.5
961.347	3100.5
966.529	3073.5
971.707	3012.5
976.879	2988.5
982.046	2952.5
987.208	2900.5
992.364	2924.5
997.515	2948.5
1002.66	2970.5
1007.801	3014.5
1012.936	3009.5
1018.066	3018.5
1023.19	3012.5
1028.309	3036.5
1033.423	3029.5
1038.532	3002.5
1043.636	2992.5
1048.734	2938.5
1053.827	2906.5
1058.915	2866.5
1063.998	2841.5
1069.075	2870.5
1074.147	2841.5
1079.214	2853.5
1084.276	2867.5
1089.333	2898.5
1094.385	2901.5
1099.431	2916.5
1104.472	2900.5
1109.509	2891.5
1114.54	2834.5
1119.565	2807.5
1124.586	2752.5
1129.602	2708.5
1134.613	2718.5
1139.618	2670.5
1144.619	2682.5
1149.614	2679.5
1154.604	2683.5
1159.589	2677.5
1164.57	2711.5
1169.545	2689.5
1174.515	2710.5
1179.48	2702.5
1184.44	2675.5
1189.395	2652.5
1194.345	2619.5
1199.29	2603.5
1204.23	2620.5
1209.165	2594.5
1214.095	2643.5
1219.021	2644.5
1223.941	2664.5
1228.856	2662.5
1233.766	2682.5
1238.672	2687.5
1243.572	2665.5
1248.467	2666.5
1253.358	2598.5
1258.244	2576.5
1263.124	2565.5
1268	2486.5
1272.871	2475.5
1277.737	2444.5
1282.599	2428.5
1287.455	2418.5
1292.306	2413.5
1297.153	2458.5
1301.995	2470.5
1306.832	2485.5
1311.664	2494.5
1316.491	2483.5
1321.314	2491.5
1326.132	2466.5
1330.945	2450.5
1335.753	2402.5
1340.556	2367.5
1345.354	2317.5
1350.148	2293.5
1354.937	2257.5
1359.722	2216.5
1364.501	2218.5
1369.276	2160.5
1374.046	2128.5
1378.811	2092.5
1383.572	2081.5
1388.327	2099.5
1393.079	2095.5
1397.825	2091.5
1402.567	2085.5
1407.304	2091.5
1412.036	2105.5
1416.764	2092.5
1421.487	2083.5
1426.205	2090.5
1430.919	2097.5
1435.628	2109.5
1440.333	2136.5
1445.032	2168.5
1449.727	2170.5
1454.418	2184.5
1459.104	2168.5
1463.785	2113.5
1468.462	2121.5
1473.134	2049.5
1477.802	2007.5
1482.465	1963.5
1487.123	1927.5
1491.777	1897.5
1496.426	1888.5
1501.071	1870.5
1505.711	1870.5
1510.347	1872.5
1514.978	1851.5
1519.604	1847.5
1524.226	1845.5
1528.844	1829.5
1533.457	1804.5
1538.065	1825.5
1542.669	1817.5
1547.269	1825.5
1551.864	1824.5
1556.454	1842.5
1561.041	1852.5
1565.622	1848.5
1570.199	1870.5
1574.772	1881.5
1579.34	1916.5
1583.904	1935.5
1588.464	1956.5
1593.019	1975.5
1597.569	1949.5
1602.115	1969.5
1606.657	1943.5
1611.195	1933.5
1615.728	1922.5
1620.256	1926.5
1624.78	1948.5
1629.3	1945.5
1633.816	1942.5
1638.327	1940.5
1642.834	1945.5
1647.336	1973.5
1651.834	1963.5
1656.328	1962.5
1660.817	1944.5
1665.302	1940.5
1669.783	1902.5
1674.259	1855.5
1678.732	1815.5
1683.199	1760.5
1687.663	1703.5
1692.122	1643.5
1696.577	1589.5
1701.028	1513.5
1705.474	1458.5
1709.917	1411.5
1714.355	1392.5
1718.788	1386.5
1723.218	1374.5
1727.643	1384.5
1732.064	1375.5
1736.481	1339.5
1740.893	1320.5
1745.301	1317.5
1749.705	1286.5
1754.105	1265.5
1758.501	1220.5
1762.893	1219.5
1767.28	1207.5
1771.663	1192.5
1776.042	1167.5
1780.417	1179.5
1784.787	1146.5
1789.154	1143.5
1793.516	1140.5
1797.874	1109.5
1802.228	1083.5
1806.578	1094.5
1810.924	1091.5
1815.266	1133.5
1819.603	1074.5
1823.937	1055.5
1828.266	1066.5
1832.591	1064.5
1836.913	1068.5
1841.23	1073.5
1845.543	1071.5
1849.852	1058.5
1854.156	1085.5
1858.457	1090.5
1862.754	1066.5
1867.047	1068.5
1871.335	1069.5
1875.62	1063.5
1879.9	1065.5
1884.177	1063.5
1888.449	1037.5
1892.718	1020.5
1896.982	1011.5
1901.243	983.5
1905.499	983.5
1909.752	968.5
1914	960.5
1918.245	946.5
1922.485	933.5
1926.722	925.5
1930.954	931.5
1935.183	908.5
1939.408	905.5
1943.628	907.5
1947.845	899.5
1952.058	892.5
1956.267	880.5
1960.472	886.5
1964.673	869.5
1968.87	854.5
1973.063	870.5
1977.252	840.5
1981.438	848.5
1985.619	846.5
1989.797	860.5
1993.971	860.5
1998.14	864.5
2002.306	840.5
2006.469	855.5
2010.627	855.5
2014.781	870.5
2018.932	864.5
2023.078	854.5
2027.221	863.5
2031.36	845.5
2035.495	845.5
2039.627	834.5
2043.754	801.5
2047.878	808.5
2051.998	798.5
2056.114	802.5
2060.226	786.5
2064.334	788.5
2068.439	788.5
2072.54	777.5
2076.637	777.5
2080.73	776.5
2084.82	776.5
2088.906	759.5
2092.988	758.5
2097.066	753.5
2101.14	743.5
2105.211	730.5
2109.278	727.5
2113.342	716.5
2117.401	701.5
2121.457	705.5
2125.509	695.5
2129.558	691.5
2133.602	711.5
2137.643	702.5
2141.681	700.5
2145.714	691.5
2149.744	693.5
2153.77	703.5
2157.793	695.5
2161.812	687.5
2165.827	672.5
2169.838	673.5
2173.846	658.5
2177.851	659.5
2181.851	636.5
2185.848	635.5
2189.841	625.5
2193.831	623.5
2197.817	621.5
2201.799	616.5
2205.778	621.5
2209.753	616.5
2213.725	606.5
2217.693	623.5
2221.657	608.5
2225.618	609.5
2229.575	605.5
2233.529	606.5
2237.479	601.5
2241.425	586.5
2245.368	574.5
2249.307	585.5
2253.243	563.5
2257.175	563.5
2261.104	551.5
2265.029	536.5
2268.95	540.5
2272.868	537.5
2276.783	523.5
2280.694	522.5
2284.601	505.5
2288.505	509.5
2292.405	502.5
2296.302	495.5
2300.195	487.5
2304.085	475.5
2307.971	465.5
2311.854	478.5
2315.734	453.5
2319.609	452.5
2323.482	445.5
2327.351	453.5
2331.216	459.5
2335.078	471.5
2338.937	463.5
2342.792	437.5
2346.643	434.5
2350.492	428.5
2354.336	433.5
2358.178	435.5
2362.015	442.5
2365.85	443.5
2369.681	439.5
2373.508	440.5
2377.333	428.5
2381.153	432.5
2384.971	436.5
2388.785	435.5
2392.595	430.5
2396.402	421.5
2400.206	422.5
2404.007	434.5
2407.804	417.5
2411.597	415.5
2415.388	400.5
2419.174	409.5
2422.958	398.5
2426.738	392.5
2430.515	402.5
2434.289	406.5
2438.059	399.5
2441.825	394.5
2445.589	385.5
2449.349	374.5
2453.106	377.5
2456.859	382.5
2460.61	372.5
2464.356	362.5
2468.1	355.5
2471.84	349.5
2475.577	348.5
2479.311	341.5
2483.041	342.5
2486.768	347.5
2490.492	338.5
2494.213	351.5
2497.93	343.5
2501.644	329.5
2505.355	315.5
2509.062	318.5
2512.766	317.5
2516.467	318.5
2520.165	318.5
2523.859	323.5
2527.551	312.5
2531.239	297.5
2534.923	298.5
2538.605	290.5
2542.283	283.5
2545.958	289.5
2549.63	289.5
2553.299	279.5
2556.964	290.5
2560.626	280.5
2564.285	269.5
2567.941	280.5
2571.594	271.5
2575.243	264.5
2578.89	262.5
2582.533	260.5
2586.173	252.5
2589.809	248.5
2593.443	243.5
2597.073	241.5
2600.701	235.5
2604.325	246.5
2607.946	237.5
2611.564	245.5
2615.178	238.5
2618.79	231.5
2622.398	241.5
2626.004	226.5
2629.606	235.5
2633.205	220.5
2636.801	231.5
2640.394	219.5
2643.983	224.5
2647.57	226.5
2651.153	214.5
2654.734	215.5
2658.311	205.5
2661.885	207.5
2665.456	202.5
2669.025	209.5
2672.589	206.5
2676.151	203.5
2679.71	202.5
2683.266	187.5
2686.819	195.5
2690.368	199.5
2693.915	183.5
2697.458	186.5
2700.999	177.5
2704.536	182.5
2708.071	167.5
2711.602	165.5
2715.13	172.5
2718.656	165.5
2722.178	166.5
2725.697	156.5
2729.214	157.5
2732.727	169.5
2736.237	158.5
2739.744	150.5
2743.249	150.5
2746.75	151.5
2750.248	145.5
2753.743	139.5
2757.236	140.5
2760.725	141.5
2764.211	119.5
2767.695	132.5
2771.175	116.5
2774.652	119.5
2778.127	122.5
2781.598	117.5
2785.067	130.5
2788.532	124.5
2791.995	118.5
2795.455	119.5
2798.911	122.5
2802.365	129.5
2805.816	137.5
2809.264	128.5
2812.709	137.5
2816.151	133.5
2819.59	133.5
2823.026	128.5
2826.46	126.5
2829.89	130.5
2833.318	124.5
2836.742	130.5
2840.164	127.5
2843.583	139.5
2846.999	125.5
2850.412	136.5
2853.822	135.5
2857.229	134.5
2860.634	149.5
2864.035	140.5
2867.434	148.5
2870.83	165.5
2874.223	169.5
2877.613	159.5
2881	177.5
2884.385	183.5
2887.766	173.5
2891.145	180.5
2894.521	175.5
2897.894	174.5
2901.264	181.5
2904.631	179.5
2907.996	184.5
2911.358	187.5
2914.717	190.5
2918.073	199.5
2921.426	194.5
2924.777	205.5
2928.124	209.5
2931.469	211.5
2934.811	216.5
2938.15	224.5
2941.487	222.5
2944.821	226.5
2948.152	228.5
2951.48	221.5
2954.805	226.5
2958.128	222.5
2961.447	216.5
2964.765	220.5
2968.079	216.5
2971.39	214.5
2974.699	230.5
2978.005	225.5
2981.308	233.5
2984.609	229.5
2987.907	212.5
2991.202	224.5
2994.494	229.5
2997.784	233.5
3001.07	235.5
3004.355	242.5
3007.636	241.5
3010.915	237.5
3014.191	249.5
3017.464	259.5
3020.734	247.5
3024.002	249.5
3027.267	259.5
3030.53	263.5
3033.789	276.5
3037.046	286.5
3040.301	283.5
3043.552	309.5
3046.801	308.5
3050.048	313.5
3053.291	324.5
3056.532	343.5
3059.771	354.5
3063.006	361.5
3066.239	372.5
3069.469	368.5
3072.697	388.5
3075.922	406.5
3079.144	418.5
3082.364	426.5
3085.581	436.5
3088.795	438.5
3092.007	451.5
3095.216	463.5
3098.423	470.5
3101.627	483.5
3104.828	499.5
3108.026	498.5
3111.222	512.5
3114.416	519.5
3117.607	545.5
3120.795	536.5
3123.98	551.5
3127.163	568.5
3130.344	588.5
3133.521	591.5
3136.696	601.5
3139.869	619.5
3143.039	616.5
3146.206	629.5
3149.371	640.5
3152.533	639.5
3155.693	657.5
3158.85	668.5
3162.005	669.5
3165.157	667.5
3168.306	667.5
3171.453	690.5
3174.597	681.5
3177.739	697.5
3180.878	692.5
3184.014	706.5
3187.149	693.5
3190.28	698.5
3193.409	696.5
3196.536	694.5
3199.659	706.5
3202.781	705.5
3205.9	707.5
3209.016	717.5
3212.13	701.5
3215.241	702.5
3218.35	699.5
3221.456	699.5
3224.56	683.5
3227.661	675.5
3230.76	670.5
3233.856	663.5
3236.95	639.5
3240.041	645.5
3243.13	617.5
3246.216	621.5
3249.3	616.5
3252.382	603.5
3255.46	605.5
3258.537	607.5
3261.611	587.5
3264.682	577.5
3267.751	577.5
3270.818	577.5
3273.882	579.5
3276.943	567.5
3280.002	564.5
3283.059	571.5
3286.113	557.5
3289.165	559.5
3292.214	537.5
3295.261	539.5
3298.306	540.5
3301.348	521.5
3304.387	522.5
3307.425	521.5
3310.459	505.5
3313.492	513.5
3316.521	503.5
3319.549	498.5
3322.574	499.5
3325.597	493.5
3328.617	495.5
3331.635	491.5
3334.65	489.5
3337.663	472.5
3340.674	476.5
3343.682	484.5
3346.688	473.5
3349.691	471.5
3352.692	485.5
3355.691	470.5
3358.687	462.5
3361.681	483.5
3364.673	461.5
3367.662	449.5
3370.649	443.5
3373.633	436.5
3376.615	429.5
3379.595	424.5
3382.572	423.5
3385.547	414.5
3388.52	409.5
3391.49	398.5
3394.458	389.5
3397.424	375.5
3400.387	382.5
3403.348	365.5
3406.307	375.5
3409.263	372.5
3412.217	369.5
3415.168	361.5
3418.118	351.5
3421.065	347.5
3424.009	334.5
3426.951	343.5
3429.891	331.5
3432.829	315.5
3435.764	313.5
3438.697	301.5
3441.628	294.5
3444.557	283.5
3447.483	278.5
3450.407	264.5
3453.328	254.5
3456.247	247.5
3459.164	229.5
3462.079	226.5
3464.991	212.5
3467.902	204.5
3470.809	211.5
3473.715	188.5
3476.618	181.5
3479.519	177.5
3482.418	163.5
3485.315	163.5
3488.209	144.5
3491.101	146.5
3493.99	144.5
3496.878	136.5
3499.763	117.5
3502.646	116.5
3505.527	108.5
3508.405	113.5
3511.281	97.5
3514.155	90.5
3517.027	79.5
3519.897	77.5
3522.764	64.5
3525.629	60.5
3528.492	52.5
3531.352	48.5
3534.211	39.5
3537.067	35.5
3539.921	26.5
3542.773	18.5
3545.622	11.5
3548.469	8.5
3551.315	1.5
3554.157	-0.5
3556.998	-15.5
3559.837	-10.5
3562.673	-21.5
3565.507	-15.5
3568.339	-26.5
3571.169	-39.5
3573.996	-26.5
3576.822	-33.5
3579.645	-30.5
3582.466	-34.5
3585.285	-45.5
3588.101	-40.5
3590.916	-51.5
3593.728	-57.5
3596.538	-55.5
3599.346	-57.5
3602.152	-53.5
3604.956	-64.5
3607.757	-66.5
3610.556	-68.5
3613.354	-65.5
3616.149	-80.5
3618.942	-77.5
3621.732	-74.5
3624.521	-74.5
3627.307	-80.5
3630.092	-80.5
3632.874	-81.5
3635.654	-89.5
3638.432	-80.5
3641.208	-90.5
3643.982	-88.5
3646.753	-92.5
3649.523	-92.5
3652.29	-94.5
3655.055	-94.5
3657.818	-98.5
3660.579	-98.5
3663.338	-95.5
3666.095	-107.5
3668.849	-107.5
3671.602	-105.5
3674.352	-110.5
3677.101	-114.5
3679.847	-113.5
3682.591	-111.5
3685.333	-103.5
3688.073	-111.5
3690.811	-114.5
3693.547	-125.5
3696.281	-121.5
3699.013	-119.5
3701.742	-123.5
3704.47	-121.5
3707.195	-119.5
3709.919	-118.5
3712.64	-123.5
3715.359	-122.5
3718.076	-122.5
3720.792	-125.5
3723.505	-127.5
3726.216	-129.5
3728.925	-134.5
3731.632	-130.5
3734.336	-136.5
3737.039	-127.5
3739.74	-133.5
3742.439	-136.5
3745.136	-129.5
3747.83	-134.5
3750.523	-137.5
3753.213	-129.5
3755.902	-124.5
3758.589	-136.5
3761.273	-129.5
3763.956	-135.5
3766.636	-132.5
3769.315	-124.5
3771.991	-127.5
3774.665	-136.5
3777.338	-126.5
3780.008	-129.5
3782.677	-134.5
3785.343	-131.5
3788.007	-138.5
3790.67	-138.5
3793.33	-130.5
3795.989	-130.5
3798.645	-129.5
3801.299	-133.5
3803.952	-138.5
3806.602	-131.5
3809.251	-140.5
3811.897	-142.5
3814.542	-143.5
3817.184	-133.5
3819.825	-138.5
3822.463	-132.5
3825.1	-134.5
3827.735	-135.5
3830.367	-140.5
3832.998	-138.5
3835.627	-138.5
3838.253	-135.5
3840.878	-134.5
3843.501	-129.5
3846.122	-136.5
3848.741	-140.5
3851.358	-134.5
3853.973	-142.5
3856.586	-135.5
3859.197	-140.5
3861.806	-137.5
3864.414	-139.5
3867.019	-137.5
3869.622	-140.5
3872.224	-128.5
3874.823	-120.5
3877.421	-111.5
3880.016	-84.5
3882.61	-59.5
3885.202	-57.5
3887.792	-74.5
3890.38	-102.5
3892.966	-129.5
3895.55	-130.5
3898.132	-137.5
3900.713	-133.5
3903.291	-139.5
3905.868	-141.5
3908.442	-139.5
3911.015	-145.5
3913.586	-139.5
3916.155	-143.5
3918.722	-140.5
3921.287	-137.5
3923.85	-138.5
3926.411	-139.5
3928.971	-141.5
3931.528	-139.5
3934.084	-143.5
3936.638	-135.5
3939.19	-144.5
3941.74	-139.5
3944.288	-140.5
3946.834	-140.5
3949.378	-137.5
3951.921	-145.5
3954.462	-149.5
3957	-142.5
3959.537	-130.5
3962.072	-138.5
3964.606	-136.5
3967.137	-137.5
3969.667	-137.5
3972.194	-150.5
3974.72	-140.5
3977.244	-144.5
3979.766	-137.5
3982.286	-136.5
3984.805	-138.5
3987.321	-141.5
3989.836	-133.5
3992.349	-136.5
3994.86	-136.5
3997.369	-138.5
3999.877	-135.5
4002.382	-130.5
4004.886	-137.5
4007.388	-140.5
4009.888	-134.5
4012.386	-140.5
4014.883	-140.5
4017.377	-139.5
4019.87	-136.5
4022.361	-138.5
4024.85	-138.5
4027.338	-132.5
4029.823	-136.5
4032.307	-138.5
4034.789	-138.5
4037.269	-138.5
4039.747	-137.5
4042.224	-136.5
4044.699	-138.5
4047.172	-139.5
4049.643	-140.5
4052.112	-133.5
4054.58	-141.5
4057.046	-139.5
4059.51	-140.5
4061.972	-136.5
4064.432	-140.5
4066.891	-139.5
4069.348	-138.5
4071.803	-145.5
4074.256	-139.5
4076.708	-131.5
4079.158	-134.5
4081.606	-132.5
4084.052	-143.5
4086.497	-137.5
4088.939	-130.5
4091.38	-137.5
4093.819	-137.5
4096.257	-144.5
4098.693	-143.5
4101.127	-144.5
4103.559	-140.5
4105.989	-3.5
4108.418	-6.5
4110.845	-9.5
4113.27	-5.5
4115.694	-6.5
4118.115	-4.5
4120.535	-137.5
4122.954	-137.5
4125.37	-136.5
4127.785	-142.5
4130.198	-136.5
4132.609	-138.5
4135.019	-144.5
4137.427	-145.5
4139.833	-146.5
4142.237	-144.5
