Data from 2018-2-8_conc=2_n=5_RamanShift_02.txt Node
Date: Mon Mar 12 14:09:58 IST 2018
User: aro
Spectrometer: QEPB0276
Trigger mode: 0
Integration Time (sec): 3.000000E1
Scans to average: 1
Electric dark correction enabled: true
Nonlinearity correction enabled: false
Boxcar width: 0
XAxis mode: Raman Shifts
Number of Pixels in Spectrum: 1044
>>>>>Begin Spectral Data<<<<<
160.701	20.2
166.742	48.2
172.777	126.2
178.805	389.2
184.826	1066.2
190.841	2289.2
196.849	3818.2
202.85	5034.2
208.845	5512.2
214.833	5489.2
220.815	5415.2
226.789	5410.2
232.758	5396.2
238.719	5448.2
244.674	5362.2
250.623	5338.2
256.565	5238.2
262.5	5177.2
268.429	5127.2
274.351	5033.2
280.267	5009.2
286.176	4973.2
292.079	4990.2
297.975	4938.2
303.865	4957.2
309.748	4931.2
315.625	4916.2
321.495	4896.2
327.359	4881.2
333.217	4899.2
339.068	4895.2
344.912	4891.2
350.751	4905.2
356.583	4919.2
362.408	4901.2
368.227	4908.2
374.04	4929.2
379.847	4941.2
385.647	4963.2
391.44	5003.2
397.228	5005.2
403.009	5035.2
408.784	5056.2
414.553	5069.2
420.315	5108.2
426.071	5077.2
431.821	5080.2
437.565	5085.2
443.302	5054.2
449.033	5052.2
454.758	5032.2
460.477	5031.2
466.189	4972.2
471.896	4960.2
477.596	4938.2
483.29	4914.2
488.978	4905.2
494.66	4889.2
500.335	4803.2
506.005	4718.2
511.668	4547.2
517.325	4422.2
522.977	4332.2
528.622	4233.2
534.261	4199.2
539.894	4159.2
545.521	4117.2
551.141	4100.2
556.756	4061.2
562.365	4010.2
567.968	4024.2
573.565	3981.2
579.155	3962.2
584.74	3947.2
590.319	3940.2
595.892	3927.2
601.459	3917.2
607.02	3878.2
612.575	3868.2
618.124	3855.2
623.667	3805.2
629.204	3764.2
634.735	3728.2
640.261	3709.2
645.781	3684.2
651.294	3668.2
656.802	3678.2
662.304	3684.2
667.8	3643.2
673.29	3669.2
678.775	3633.2
684.254	3642.2
689.726	3593.2
695.193	3600.2
700.655	3607.2
706.11	3560.2
711.56	3519.2
717.004	3507.2
722.442	3481.2
727.874	3516.2
733.301	3465.2
738.722	3479.2
744.137	3417.2
749.547	3444.2
754.951	3445.2
760.349	3444.2
765.741	3444.2
771.128	3467.2
776.509	3489.2
781.885	3496.2
787.254	3484.2
792.618	3533.2
797.977	3481.2
803.33	3463.2
808.677	3432.2
814.019	3408.2
819.355	3413.2
824.686	3371.2
830.011	3339.2
835.33	3374.2
840.644	3341.2
845.952	3330.2
851.255	3316.2
856.552	3329.2
861.844	3308.2
867.13	3268.2
872.41	3270.2
877.686	3258.2
882.955	3210.2
888.219	3192.2
893.478	3171.2
898.731	3115.2
903.979	3056.2
909.221	3038.2
914.458	3045.2
919.69	3068.2
924.916	3048.2
930.136	3046.2
935.351	3048.2
940.561	3042.2
945.766	3054.2
950.965	3037.2
956.158	3006.2
961.347	2980.2
966.529	2928.2
971.707	2907.2
976.879	2877.2
982.046	2841.2
987.208	2784.2
992.364	2826.2
997.515	2847.2
1002.66	2861.2
1007.801	2887.2
1012.936	2900.2
1018.066	2879.2
1023.19	2894.2
1028.309	2911.2
1033.423	2905.2
1038.532	2897.2
1043.636	2886.2
1048.734	2842.2
1053.827	2803.2
1058.915	2767.2
1063.998	2773.2
1069.075	2740.2
1074.147	2748.2
1079.214	2746.2
1084.276	2775.2
1089.333	2779.2
1094.385	2786.2
1099.431	2777.2
1104.472	2775.2
1109.509	2778.2
1114.54	2684.2
1119.565	2672.2
1124.586	2653.2
1129.602	2610.2
1134.613	2596.2
1139.618	2586.2
1144.619	2576.2
1149.614	2561.2
1154.604	2593.2
1159.589	2591.2
1164.57	2583.2
1169.545	2609.2
1174.515	2612.2
1179.48	2601.2
1184.44	2562.2
1189.395	2538.2
1194.345	2528.2
1199.29	2510.2
1204.23	2530.2
1209.165	2516.2
1214.095	2532.2
1219.021	2573.2
1223.941	2552.2
1228.856	2576.2
1233.766	2567.2
1238.672	2590.2
1243.572	2591.2
1248.467	2570.2
1253.358	2556.2
1258.244	2497.2
1263.124	2440.2
1268	2407.2
1272.871	2385.2
1277.737	2365.2
1282.599	2343.2
1287.455	2346.2
1292.306	2358.2
1297.153	2361.2
1301.995	2390.2
1306.832	2381.2
1311.664	2414.2
1316.491	2415.2
1321.314	2388.2
1326.132	2382.2
1330.945	2382.2
1335.753	2329.2
1340.556	2272.2
1345.354	2242.2
1350.148	2215.2
1354.937	2181.2
1359.722	2157.2
1364.501	2113.2
1369.276	2078.2
1374.046	2047.2
1378.811	2018.2
1383.572	2019.2
1388.327	2001.2
1393.079	2018.2
1397.825	2024.2
1402.567	2009.2
1407.304	2021.2
1412.036	2009.2
1416.764	2028.2
1421.487	2013.2
1426.205	2014.2
1430.919	2016.2
1435.628	2043.2
1440.333	2068.2
1445.032	2067.2
1449.727	2073.2
1454.418	2123.2
1459.104	2089.2
1463.785	2072.2
1468.462	2027.2
1473.134	1996.2
1477.802	1961.2
1482.465	1907.2
1487.123	1860.2
1491.777	1845.2
1496.426	1834.2
1501.071	1802.2
1505.711	1797.2
1510.347	1774.2
1514.978	1787.2
1519.604	1769.2
1524.226	1773.2
1528.844	1769.2
1533.457	1762.2
1538.065	1744.2
1542.669	1750.2
1547.269	1751.2
1551.864	1753.2
1556.454	1767.2
1561.041	1779.2
1565.622	1791.2
1570.199	1801.2
1574.772	1812.2
1579.34	1864.2
1583.904	1863.2
1588.464	1882.2
1593.019	1883.2
1597.569	1903.2
1602.115	1889.2
1606.657	1896.2
1611.195	1872.2
1615.728	1864.2
1620.256	1853.2
1624.78	1844.2
1629.3	1841.2
1633.816	1878.2
1638.327	1890.2
1642.834	1884.2
1647.336	1900.2
1651.834	1902.2
1656.328	1886.2
1660.817	1882.2
1665.302	1863.2
1669.783	1820.2
1674.259	1786.2
1678.732	1741.2
1683.199	1686.2
1687.663	1649.2
1692.122	1591.2
1696.577	1525.2
1701.028	1460.2
1705.474	1407.2
1709.917	1334.2
1714.355	1342.2
1718.788	1315.2
1723.218	1319.2
1727.643	1339.2
1732.064	1340.2
1736.481	1298.2
1740.893	1288.2
1745.301	1255.2
1749.705	1252.2
1754.105	1223.2
1758.501	1198.2
1762.893	1172.2
1767.28	1164.2
1771.663	1148.2
1776.042	1144.2
1780.417	1104.2
1784.787	1118.2
1789.154	1093.2
1793.516	1084.2
1797.874	1078.2
1802.228	1054.2
1806.578	1039.2
1810.924	1025.2
1815.266	1029.2
1819.603	1028.2
1823.937	1029.2
1828.266	1027.2
1832.591	1032.2
1836.913	1025.2
1841.23	1020.2
1845.543	1021.2
1849.852	1021.2
1854.156	1025.2
1858.457	1024.2
1862.754	1036.2
1867.047	1026.2
1871.335	1037.2
1875.62	1039.2
1879.9	1024.2
1884.177	1001.2
1888.449	1002.2
1892.718	1003.2
1896.982	985.2
1901.243	962.2
1905.499	956.2
1909.752	923.2
1914	924.2
1918.245	923.2
1922.485	895.2
1926.722	896.2
1930.954	885.2
1935.183	892.2
1939.408	880.2
1943.628	874.2
1947.845	861.2
1952.058	856.2
1956.267	861.2
1960.472	847.2
1964.673	845.2
1968.87	826.2
1973.063	835.2
1977.252	820.2
1981.438	831.2
1985.619	822.2
1989.797	807.2
1993.971	832.2
1998.14	838.2
2002.306	837.2
2006.469	829.2
2010.627	839.2
2014.781	824.2
2018.932	820.2
2023.078	826.2
2027.221	822.2
2031.36	811.2
2035.495	813.2
2039.627	805.2
2043.754	788.2
2047.878	784.2
2051.998	777.2
2056.114	767.2
2060.226	772.2
2064.334	765.2
2068.439	753.2
2072.54	756.2
2076.637	761.2
2080.73	751.2
2084.82	740.2
2088.906	734.2
2092.988	734.2
2097.066	724.2
2101.14	719.2
2105.211	696.2
2109.278	702.2
2113.342	686.2
2117.401	686.2
2121.457	683.2
2125.509	665.2
2129.558	665.2
2133.602	680.2
2137.643	671.2
2141.681	671.2
2145.714	672.2
2149.744	662.2
2153.77	670.2
2157.793	672.2
2161.812	664.2
2165.827	662.2
2169.838	654.2
2173.846	638.2
2177.851	624.2
2181.851	620.2
2185.848	594.2
2189.841	611.2
2193.831	614.2
2197.817	602.2
2201.799	597.2
2205.778	590.2
2209.753	599.2
2213.725	584.2
2217.693	587.2
2221.657	585.2
2225.618	590.2
2229.575	580.2
2233.529	581.2
2237.479	562.2
2241.425	564.2
2245.368	557.2
2249.307	553.2
2253.243	544.2
2257.175	541.2
2261.104	528.2
2265.029	520.2
2268.95	520.2
2272.868	501.2
2276.783	501.2
2280.694	483.2
2284.601	488.2
2288.505	490.2
2292.405	485.2
2296.302	482.2
2300.195	472.2
2304.085	461.2
2307.971	443.2
2311.854	457.2
2315.734	446.2
2319.609	429.2
2323.482	430.2
2327.351	448.2
2331.216	444.2
2335.078	452.2
2338.937	438.2
2342.792	419.2
2346.643	414.2
2350.492	422.2
2354.336	418.2
2358.178	423.2
2362.015	427.2
2365.85	424.2
2369.681	417.2
2373.508	424.2
2377.333	425.2
2381.153	425.2
2384.971	429.2
2388.785	424.2
2392.595	414.2
2396.402	406.2
2400.206	416.2
2404.007	403.2
2407.804	401.2
2411.597	406.2
2415.388	398.2
2419.174	403.2
2422.958	384.2
2426.738	391.2
2430.515	390.2
2434.289	387.2
2438.059	383.2
2441.825	374.2
2445.589	380.2
2449.349	360.2
2453.106	345.2
2456.859	361.2
2460.61	360.2
2464.356	360.2
2468.1	357.2
2471.84	340.2
2475.577	346.2
2479.311	330.2
2483.041	332.2
2486.768	338.2
2490.492	333.2
2494.213	342.2
2497.93	330.2
2501.644	323.2
2505.355	322.2
2509.062	323.2
2512.766	307.2
2516.467	306.2
2520.165	313.2
2523.859	299.2
2527.551	298.2
2531.239	290.2
2534.923	284.2
2538.605	278.2
2542.283	282.2
2545.958	281.2
2549.63	290.2
2553.299	283.2
2556.964	261.2
2560.626	268.2
2564.285	258.2
2567.941	256.2
2571.594	252.2
2575.243	254.2
2578.89	254.2
2582.533	245.2
2586.173	243.2
2589.809	231.2
2593.443	245.2
2597.073	232.2
2600.701	229.2
2604.325	233.2
2607.946	231.2
2611.564	235.2
2615.178	233.2
2618.79	223.2
2622.398	222.2
2626.004	222.2
2629.606	219.2
2633.205	221.2
2636.801	225.2
2640.394	212.2
2643.983	212.2
2647.57	222.2
2651.153	211.2
2654.734	203.2
2658.311	194.2
2661.885	200.2
2665.456	197.2
2669.025	204.2
2672.589	197.2
2676.151	186.2
2679.71	199.2
2683.266	186.2
2686.819	179.2
2690.368	196.2
2693.915	179.2
2697.458	176.2
2700.999	174.2
2704.536	166.2
2708.071	157.2
2711.602	159.2
2715.13	163.2
2718.656	159.2
2722.178	162.2
2725.697	151.2
2729.214	149.2
2732.727	155.2
2736.237	149.2
2739.744	147.2
2743.249	149.2
2746.75	141.2
2750.248	143.2
2753.743	137.2
2757.236	123.2
2760.725	127.2
2764.211	119.2
2767.695	121.2
2771.175	114.2
2774.652	114.2
2778.127	119.2
2781.598	113.2
2785.067	119.2
2788.532	113.2
2791.995	119.2
2795.455	124.2
2798.911	120.2
2802.365	125.2
2805.816	130.2
2809.264	120.2
2812.709	128.2
2816.151	123.2
2819.59	127.2
2823.026	127.2
2826.46	124.2
2829.89	126.2
2833.318	114.2
2836.742	127.2
2840.164	114.2
2843.583	126.2
2846.999	130.2
2850.412	127.2
2853.822	128.2
2857.229	122.2
2860.634	135.2
2864.035	143.2
2867.434	142.2
2870.83	155.2
2874.223	151.2
2877.613	161.2
2881	181.2
2884.385	166.2
2887.766	155.2
2891.145	157.2
2894.521	163.2
2897.894	168.2
2901.264	161.2
2904.631	172.2
2907.996	181.2
2911.358	169.2
2914.717	172.2
2918.073	186.2
2921.426	188.2
2924.777	198.2
2928.124	193.2
2931.469	193.2
2934.811	211.2
2938.15	208.2
2941.487	217.2
2944.821	220.2
2948.152	213.2
2951.48	213.2
2954.805	222.2
2958.128	210.2
2961.447	203.2
2964.765	201.2
2968.079	210.2
2971.39	214.2
2974.699	216.2
2978.005	215.2
2981.308	219.2
2984.609	214.2
2987.907	214.2
2991.202	220.2
2994.494	229.2
2997.784	229.2
3001.07	224.2
3004.355	232.2
3007.636	226.2
3010.915	225.2
3014.191	231.2
3017.464	237.2
3020.734	238.2
3024.002	234.2
3027.267	258.2
3030.53	254.2
3033.789	260.2
3037.046	265.2
3040.301	272.2
3043.552	290.2
3046.801	287.2
3050.048	303.2
3053.291	316.2
3056.532	326.2
3059.771	337.2
3063.006	333.2
3066.239	355.2
3069.469	364.2
3072.697	382.2
3075.922	382.2
3079.144	396.2
3082.364	400.2
3085.581	419.2
3088.795	412.2
3092.007	423.2
3095.216	437.2
3098.423	456.2
3101.627	466.2
3104.828	479.2
3108.026	482.2
3111.222	496.2
3114.416	502.2
3117.607	518.2
3120.795	520.2
3123.98	532.2
3127.163	537.2
3130.344	557.2
3133.521	559.2
3136.696	583.2
3139.869	583.2
3143.039	597.2
3146.206	609.2
3149.371	609.2
3152.533	625.2
3155.693	643.2
3158.85	646.2
3162.005	639.2
3165.157	647.2
3168.306	641.2
3171.453	649.2
3174.597	663.2
3177.739	659.2
3180.878	668.2
3184.014	677.2
3187.149	678.2
3190.28	673.2
3193.409	673.2
3196.536	671.2
3199.659	677.2
3202.781	681.2
3205.9	671.2
3209.016	677.2
3212.13	681.2
3215.241	680.2
3218.35	667.2
3221.456	654.2
3224.56	651.2
3227.661	655.2
3230.76	640.2
3233.856	643.2
3236.95	622.2
3240.041	613.2
3243.13	604.2
3246.216	596.2
3249.3	582.2
3252.382	574.2
3255.46	585.2
3258.537	565.2
3261.611	572.2
3264.682	560.2
3267.751	567.2
3270.818	546.2
3273.882	551.2
3276.943	557.2
3280.002	546.2
3283.059	539.2
3286.113	541.2
3289.165	538.2
3292.214	530.2
3295.261	521.2
3298.306	508.2
3301.348	499.2
3304.387	512.2
3307.425	495.2
3310.459	489.2
3313.492	483.2
3316.521	474.2
3319.549	485.2
3322.574	473.2
3325.597	457.2
3328.617	459.2
3331.635	460.2
3334.65	463.2
3337.663	454.2
3340.674	457.2
3343.682	466.2
3346.688	449.2
3349.691	458.2
3352.692	455.2
3355.691	450.2
3358.687	441.2
3361.681	449.2
3364.673	445.2
3367.662	430.2
3370.649	424.2
3373.633	416.2
3376.615	403.2
3379.595	410.2
3382.572	393.2
3385.547	395.2
3388.52	388.2
3391.49	385.2
3394.458	368.2
3397.424	364.2
3400.387	367.2
3403.348	352.2
3406.307	349.2
3409.263	349.2
3412.217	347.2
3415.168	344.2
3418.118	338.2
3421.065	323.2
3424.009	323.2
3426.951	312.2
3429.891	312.2
3432.829	299.2
3435.764	290.2
3438.697	284.2
3441.628	274.2
3444.557	268.2
3447.483	252.2
3450.407	240.2
3453.328	230.2
3456.247	232.2
3459.164	219.2
3462.079	206.2
3464.991	196.2
3467.902	191.2
3470.809	182.2
3473.715	176.2
3476.618	167.2
3479.519	158.2
3482.418	153.2
3485.315	141.2
3488.209	140.2
3491.101	132.2
3493.99	133.2
3496.878	119.2
3499.763	114.2
3502.646	105.2
3505.527	109.2
3508.405	94.2
3511.281	85.2
3514.155	82.2
3517.027	74.2
3519.897	60.2
3522.764	57.2
3525.629	55.2
3528.492	39.2
3531.352	37.2
3534.211	33.2
3537.067	22.2
3539.921	19.2
3542.773	16.2
3545.622	12.2
3548.469	2.2
3551.315	2.2
3554.157	-7.8
3556.998	-19.8
3559.837	-13.8
3562.673	-22.8
3565.507	-23.8
3568.339	-24.8
3571.169	-39.8
3573.996	-30.8
3576.822	-35.8
3579.645	-40.8
3582.466	-34.8
3585.285	-44.8
3588.101	-36.8
3590.916	-57.8
3593.728	-66.8
3596.538	-61.8
3599.346	-64.8
3602.152	-61.8
3604.956	-69.8
3607.757	-63.8
3610.556	-73.8
3613.354	-65.8
3616.149	-82.8
3618.942	-80.8
3621.732	-79.8
3624.521	-79.8
3627.307	-85.8
3630.092	-78.8
3632.874	-83.8
3635.654	-90.8
3638.432	-83.8
3641.208	-88.8
3643.982	-95.8
3646.753	-100.8
3649.523	-97.8
3652.29	-94.8
3655.055	-95.8
3657.818	-97.8
3660.579	-98.8
3663.338	-98.8
3666.095	-107.8
3668.849	-113.8
3671.602	-113.8
3674.352	-109.8
3677.101	-113.8
3679.847	-109.8
3682.591	-112.8
3685.333	-111.8
3688.073	-115.8
3690.811	-115.8
3693.547	-125.8
3696.281	-117.8
3699.013	-116.8
3701.742	-123.8
3704.47	-120.8
3707.195	-120.8
3709.919	-130.8
3712.64	-126.8
3715.359	-127.8
3718.076	-118.8
3720.792	-125.8
3723.505	-130.8
3726.216	-124.8
3728.925	-133.8
3731.632	-132.8
3734.336	-135.8
3737.039	-131.8
3739.74	-129.8
3742.439	-139.8
3745.136	-123.8
3747.83	-137.8
3750.523	-129.8
3753.213	-144.8
3755.902	-131.8
3758.589	-135.8
3761.273	-125.8
3763.956	-131.8
3766.636	-133.8
3769.315	-134.8
3771.991	-129.8
3774.665	-142.8
3777.338	-128.8
3780.008	-135.8
3782.677	-134.8
3785.343	-136.8
3788.007	-134.8
3790.67	-134.8
3793.33	-135.8
3795.989	-134.8
3798.645	-132.8
3801.299	-132.8
3803.952	-138.8
3806.602	-129.8
3809.251	-140.8
3811.897	-143.8
3814.542	-141.8
3817.184	-133.8
3819.825	-137.8
3822.463	-137.8
3825.1	-135.8
3827.735	-139.8
3830.367	-139.8
3832.998	-141.8
3835.627	-138.8
3838.253	-135.8
3840.878	-142.8
3843.501	-137.8
3846.122	-139.8
3848.741	-140.8
3851.358	-134.8
3853.973	-136.8
3856.586	-136.8
3859.197	-148.8
3861.806	-135.8
3864.414	-142.8
3867.019	-137.8
3869.622	-134.8
3872.224	-121.8
3874.823	-117.8
3877.421	-106.8
3880.016	-83.8
3882.61	-61.8
3885.202	-65.8
3887.792	-84.8
3890.38	-107.8
3892.966	-125.8
3895.55	-135.8
3898.132	-138.8
3900.713	-135.8
3903.291	-139.8
3905.868	-142.8
3908.442	-139.8
3911.015	-141.8
3913.586	-142.8
3916.155	-139.8
3918.722	-137.8
3921.287	-140.8
3923.85	-144.8
3926.411	-142.8
3928.971	-142.8
3931.528	-141.8
3934.084	-140.8
3936.638	-135.8
3939.19	-142.8
3941.74	-143.8
3944.288	-138.8
3946.834	-142.8
3949.378	-142.8
3951.921	-140.8
3954.462	-151.8
3957	-138.8
3959.537	-137.8
3962.072	-140.8
3964.606	-135.8
3967.137	-135.8
3969.667	-141.8
3972.194	-148.8
3974.72	-137.8
3977.244	-139.8
3979.766	-145.8
3982.286	-138.8
3984.805	-140.8
3987.321	-139.8
3989.836	-128.8
3992.349	-142.8
3994.86	-145.8
3997.369	-139.8
3999.877	-140.8
4002.382	-138.8
4004.886	-143.8
4007.388	-136.8
4009.888	-137.8
4012.386	-141.8
4014.883	-138.8
4017.377	-141.8
4019.87	-135.8
4022.361	-144.8
4024.85	-142.8
4027.338	-136.8
4029.823	-135.8
4032.307	-136.8
4034.789	-142.8
4037.269	-145.8
4039.747	-136.8
4042.224	-138.8
4044.699	-141.8
4047.172	-140.8
4049.643	-131.8
4052.112	-135.8
4054.58	-142.8
4057.046	-145.8
4059.51	-141.8
4061.972	-136.8
4064.432	-143.8
4066.891	-137.8
4069.348	-132.8
4071.803	-144.8
4074.256	-135.8
4076.708	-141.8
4079.158	-140.8
4081.606	-135.8
4084.052	-144.8
4086.497	-135.8
4088.939	-137.8
4091.38	-139.8
4093.819	-139.8
4096.257	-144.8
4098.693	-144.8
4101.127	-144.8
4103.559	-142.8
4105.989	6.2
4108.418	-2.8
4110.845	-4.8
4113.27	-7.8
4115.694	-1.8
4118.115	-5.8
4120.535	-142.8
4122.954	-141.8
4125.37	-138.8
4127.785	-142.8
4130.198	-137.8
4132.609	-138.8
4135.019	-145.8
4137.427	-145.8
4139.833	-145.8
4142.237	-146.8
