Data from 2018-2-8_conc=2_n=8_RamanShift_02.txt Node
Date: Mon Mar 12 14:19:28 IST 2018
User: aro
Spectrometer: QEPB0276
Trigger mode: 0
Integration Time (sec): 3.000000E1
Scans to average: 1
Electric dark correction enabled: true
Nonlinearity correction enabled: false
Boxcar width: 0
XAxis mode: Raman Shifts
Number of Pixels in Spectrum: 1044
>>>>>Begin Spectral Data<<<<<
160.701	31.4
166.742	49.4
172.777	134.4
178.805	413.4
184.826	1098.4
190.841	2382.4
196.849	3945.4
202.85	5193.4
208.845	5688.4
214.833	5669.4
220.815	5591.4
226.789	5563.4
232.758	5578.4
238.719	5557.4
244.674	5533.4
250.623	5495.4
256.565	5412.4
262.5	5301.4
268.429	5257.4
274.351	5199.4
280.267	5150.4
286.176	5107.4
292.079	5126.4
297.975	5074.4
303.865	5066.4
309.748	5061.4
315.625	5046.4
321.495	5031.4
327.359	5038.4
333.217	5024.4
339.068	5034.4
344.912	5057.4
350.751	5062.4
356.583	5050.4
362.408	5080.4
368.227	5092.4
374.04	5097.4
379.847	5119.4
385.647	5124.4
391.44	5149.4
397.228	5161.4
403.009	5165.4
408.784	5234.4
414.553	5232.4
420.315	5261.4
426.071	5254.4
431.821	5255.4
437.565	5221.4
443.302	5213.4
449.033	5222.4
454.758	5190.4
460.477	5166.4
466.189	5166.4
471.896	5109.4
477.596	5099.4
483.29	5079.4
488.978	5087.4
494.66	5035.4
500.335	4963.4
506.005	4831.4
511.668	4682.4
517.325	4525.4
522.977	4430.4
528.622	4363.4
534.261	4279.4
539.894	4235.4
545.521	4176.4
551.141	4174.4
556.756	4113.4
562.365	4116.4
567.968	4076.4
573.565	4047.4
579.155	4019.4
584.74	4041.4
590.319	4000.4
595.892	3994.4
601.459	3990.4
607.02	3966.4
612.575	3970.4
618.124	3895.4
623.667	3869.4
629.204	3859.4
634.735	3802.4
640.261	3781.4
645.781	3772.4
651.294	3748.4
656.802	3752.4
662.304	3724.4
667.8	3717.4
673.29	3728.4
678.775	3732.4
684.254	3686.4
689.726	3662.4
695.193	3647.4
700.655	3649.4
706.11	3633.4
711.56	3579.4
717.004	3586.4
722.442	3550.4
727.874	3542.4
733.301	3523.4
738.722	3518.4
744.137	3510.4
749.547	3493.4
754.951	3486.4
760.349	3484.4
765.741	3518.4
771.128	3520.4
776.509	3526.4
781.885	3574.4
787.254	3573.4
792.618	3556.4
797.977	3546.4
803.33	3535.4
808.677	3487.4
814.019	3461.4
819.355	3453.4
824.686	3433.4
830.011	3392.4
835.33	3396.4
840.644	3403.4
845.952	3382.4
851.255	3391.4
856.552	3373.4
861.844	3332.4
867.13	3321.4
872.41	3311.4
877.686	3290.4
882.955	3267.4
888.219	3226.4
893.478	3203.4
898.731	3126.4
903.979	3104.4
909.221	3075.4
914.458	3061.4
919.69	3064.4
924.916	3089.4
930.136	3088.4
935.351	3071.4
940.561	3043.4
945.766	3058.4
950.965	3053.4
956.158	3029.4
961.347	2992.4
966.529	2958.4
971.707	2905.4
976.879	2871.4
982.046	2830.4
987.208	2847.4
992.364	2844.4
997.515	2859.4
1002.66	2903.4
1007.801	2905.4
1012.936	2941.4
1018.066	2935.4
1023.19	2935.4
1028.309	2916.4
1033.423	2927.4
1038.532	2909.4
1043.636	2902.4
1048.734	2878.4
1053.827	2844.4
1058.915	2792.4
1063.998	2795.4
1069.075	2771.4
1074.147	2777.4
1079.214	2788.4
1084.276	2777.4
1089.333	2812.4
1094.385	2818.4
1099.431	2812.4
1104.472	2800.4
1109.509	2770.4
1114.54	2760.4
1119.565	2685.4
1124.586	2692.4
1129.602	2612.4
1134.613	2616.4
1139.618	2613.4
1144.619	2606.4
1149.614	2581.4
1154.604	2594.4
1159.589	2606.4
1164.57	2619.4
1169.545	2612.4
1174.515	2632.4
1179.48	2596.4
1184.44	2568.4
1189.395	2560.4
1194.345	2555.4
1199.29	2518.4
1204.23	2550.4
1209.165	2528.4
1214.095	2541.4
1219.021	2555.4
1223.941	2564.4
1228.856	2577.4
1233.766	2576.4
1238.672	2585.4
1243.572	2575.4
1248.467	2570.4
1253.358	2558.4
1258.244	2495.4
1263.124	2484.4
1268	2420.4
1272.871	2389.4
1277.737	2357.4
1282.599	2365.4
1287.455	2337.4
1292.306	2367.4
1297.153	2373.4
1301.995	2376.4
1306.832	2420.4
1311.664	2420.4
1316.491	2438.4
1321.314	2402.4
1326.132	2408.4
1330.945	2386.4
1335.753	2355.4
1340.556	2303.4
1345.354	2268.4
1350.148	2221.4
1354.937	2204.4
1359.722	2143.4
1364.501	2101.4
1369.276	2068.4
1374.046	2064.4
1378.811	2035.4
1383.572	2014.4
1388.327	2010.4
1393.079	2016.4
1397.825	2006.4
1402.567	1989.4
1407.304	2002.4
1412.036	2000.4
1416.764	2023.4
1421.487	2018.4
1426.205	2031.4
1430.919	2032.4
1435.628	2020.4
1440.333	2057.4
1445.032	2084.4
1449.727	2086.4
1454.418	2087.4
1459.104	2108.4
1463.785	2079.4
1468.462	2031.4
1473.134	1963.4
1477.802	1941.4
1482.465	1904.4
1487.123	1877.4
1491.777	1842.4
1496.426	1821.4
1501.071	1797.4
1505.711	1787.4
1510.347	1774.4
1514.978	1789.4
1519.604	1779.4
1524.226	1779.4
1528.844	1766.4
1533.457	1762.4
1538.065	1766.4
1542.669	1748.4
1547.269	1758.4
1551.864	1754.4
1556.454	1780.4
1561.041	1785.4
1565.622	1794.4
1570.199	1808.4
1574.772	1835.4
1579.34	1863.4
1583.904	1876.4
1588.464	1903.4
1593.019	1886.4
1597.569	1898.4
1602.115	1891.4
1606.657	1886.4
1611.195	1866.4
1615.728	1881.4
1620.256	1850.4
1624.78	1865.4
1629.3	1853.4
1633.816	1892.4
1638.327	1901.4
1642.834	1877.4
1647.336	1914.4
1651.834	1920.4
1656.328	1878.4
1660.817	1899.4
1665.302	1889.4
1669.783	1844.4
1674.259	1805.4
1678.732	1751.4
1683.199	1717.4
1687.663	1664.4
1692.122	1591.4
1696.577	1534.4
1701.028	1483.4
1705.474	1420.4
1709.917	1377.4
1714.355	1340.4
1718.788	1328.4
1723.218	1334.4
1727.643	1323.4
1732.064	1324.4
1736.481	1311.4
1740.893	1280.4
1745.301	1266.4
1749.705	1244.4
1754.105	1211.4
1758.501	1202.4
1762.893	1182.4
1767.28	1164.4
1771.663	1139.4
1776.042	1128.4
1780.417	1132.4
1784.787	1097.4
1789.154	1100.4
1793.516	1108.4
1797.874	1060.4
1802.228	1061.4
1806.578	1060.4
1810.924	1039.4
1815.266	1036.4
1819.603	1031.4
1823.937	1029.4
1828.266	1007.4
1832.591	1016.4
1836.913	1017.4
1841.23	1022.4
1845.543	1024.4
1849.852	1029.4
1854.156	1013.4
1858.457	1028.4
1862.754	1034.4
1867.047	1015.4
1871.335	1029.4
1875.62	1016.4
1879.9	1017.4
1884.177	1011.4
1888.449	1003.4
1892.718	995.4
1896.982	981.4
1901.243	954.4
1905.499	951.4
1909.752	939.4
1914	926.4
1918.245	923.4
1922.485	910.4
1926.722	904.4
1930.954	900.4
1935.183	892.4
1939.408	887.4
1943.628	890.4
1947.845	873.4
1952.058	862.4
1956.267	857.4
1960.472	847.4
1964.673	840.4
1968.87	840.4
1973.063	823.4
1977.252	814.4
1981.438	831.4
1985.619	824.4
1989.797	828.4
1993.971	823.4
1998.14	838.4
2002.306	821.4
2006.469	827.4
2010.627	838.4
2014.781	841.4
2018.932	828.4
2023.078	839.4
2027.221	835.4
2031.36	832.4
2035.495	803.4
2039.627	788.4
2043.754	783.4
2047.878	775.4
2051.998	770.4
2056.114	768.4
2060.226	761.4
2064.334	760.4
2068.439	753.4
2072.54	762.4
2076.637	762.4
2080.73	757.4
2084.82	750.4
2088.906	740.4
2092.988	745.4
2097.066	720.4
2101.14	710.4
2105.211	702.4
2109.278	704.4
2113.342	691.4
2117.401	689.4
2121.457	667.4
2125.509	675.4
2129.558	672.4
2133.602	679.4
2137.643	673.4
2141.681	662.4
2145.714	671.4
2149.744	646.4
2153.77	668.4
2157.793	654.4
2161.812	652.4
2165.827	640.4
2169.838	642.4
2173.846	634.4
2177.851	620.4
2181.851	608.4
2185.848	611.4
2189.841	605.4
2193.831	601.4
2197.817	595.4
2201.799	587.4
2205.778	602.4
2209.753	580.4
2213.725	587.4
2217.693	602.4
2221.657	582.4
2225.618	581.4
2229.575	578.4
2233.529	573.4
2237.479	572.4
2241.425	564.4
2245.368	544.4
2249.307	548.4
2253.243	526.4
2257.175	525.4
2261.104	533.4
2265.029	515.4
2268.95	517.4
2272.868	509.4
2276.783	501.4
2280.694	495.4
2284.601	490.4
2288.505	486.4
2292.405	471.4
2296.302	468.4
2300.195	455.4
2304.085	458.4
2307.971	437.4
2311.854	445.4
2315.734	415.4
2319.609	414.4
2323.482	424.4
2327.351	427.4
2331.216	439.4
2335.078	453.4
2338.937	428.4
2342.792	414.4
2346.643	399.4
2350.492	400.4
2354.336	406.4
2358.178	415.4
2362.015	412.4
2365.85	408.4
2369.681	415.4
2373.508	422.4
2377.333	419.4
2381.153	411.4
2384.971	414.4
2388.785	417.4
2392.595	403.4
2396.402	386.4
2400.206	399.4
2404.007	394.4
2407.804	395.4
2411.597	379.4
2415.388	384.4
2419.174	386.4
2422.958	373.4
2426.738	384.4
2430.515	378.4
2434.289	378.4
2438.059	374.4
2441.825	358.4
2445.589	365.4
2449.349	347.4
2453.106	355.4
2456.859	347.4
2460.61	354.4
2464.356	335.4
2468.1	332.4
2471.84	335.4
2475.577	332.4
2479.311	311.4
2483.041	324.4
2486.768	328.4
2490.492	311.4
2494.213	316.4
2497.93	318.4
2501.644	323.4
2505.355	305.4
2509.062	302.4
2512.766	305.4
2516.467	293.4
2520.165	286.4
2523.859	296.4
2527.551	278.4
2531.239	279.4
2534.923	273.4
2538.605	273.4
2542.283	271.4
2545.958	267.4
2549.63	266.4
2553.299	255.4
2556.964	261.4
2560.626	257.4
2564.285	246.4
2567.941	246.4
2571.594	253.4
2575.243	248.4
2578.89	243.4
2582.533	238.4
2586.173	231.4
2589.809	228.4
2593.443	231.4
2597.073	209.4
2600.701	217.4
2604.325	213.4
2607.946	214.4
2611.564	223.4
2615.178	217.4
2618.79	217.4
2622.398	223.4
2626.004	208.4
2629.606	208.4
2633.205	194.4
2636.801	195.4
2640.394	201.4
2643.983	195.4
2647.57	203.4
2651.153	202.4
2654.734	199.4
2658.311	185.4
2661.885	184.4
2665.456	184.4
2669.025	183.4
2672.589	183.4
2676.151	183.4
2679.71	185.4
2683.266	176.4
2686.819	167.4
2690.368	175.4
2693.915	166.4
2697.458	160.4
2700.999	167.4
2704.536	159.4
2708.071	147.4
2711.602	150.4
2715.13	147.4
2718.656	144.4
2722.178	149.4
2725.697	142.4
2729.214	135.4
2732.727	142.4
2736.237	144.4
2739.744	134.4
2743.249	128.4
2746.75	139.4
2750.248	123.4
2753.743	125.4
2757.236	118.4
2760.725	117.4
2764.211	117.4
2767.695	111.4
2771.175	116.4
2774.652	109.4
2778.127	109.4
2781.598	99.4
2785.067	112.4
2788.532	119.4
2791.995	113.4
2795.455	110.4
2798.911	110.4
2802.365	117.4
2805.816	116.4
2809.264	109.4
2812.709	119.4
2816.151	117.4
2819.59	115.4
2823.026	117.4
2826.46	109.4
2829.89	112.4
2833.318	107.4
2836.742	115.4
2840.164	114.4
2843.583	122.4
2846.999	117.4
2850.412	112.4
2853.822	123.4
2857.229	119.4
2860.634	127.4
2864.035	127.4
2867.434	137.4
2870.83	135.4
2874.223	158.4
2877.613	158.4
2881	152.4
2884.385	159.4
2887.766	151.4
2891.145	149.4
2894.521	160.4
2897.894	171.4
2901.264	167.4
2904.631	163.4
2907.996	160.4
2911.358	164.4
2914.717	163.4
2918.073	178.4
2921.426	178.4
2924.777	189.4
2928.124	190.4
2931.469	198.4
2934.811	200.4
2938.15	206.4
2941.487	208.4
2944.821	207.4
2948.152	213.4
2951.48	212.4
2954.805	209.4
2958.128	203.4
2961.447	199.4
2964.765	207.4
2968.079	203.4
2971.39	200.4
2974.699	209.4
2978.005	210.4
2981.308	214.4
2984.609	221.4
2987.907	201.4
2991.202	213.4
2994.494	213.4
2997.784	213.4
3001.07	220.4
3004.355	233.4
3007.636	224.4
3010.915	233.4
3014.191	239.4
3017.464	239.4
3020.734	243.4
3024.002	236.4
3027.267	250.4
3030.53	255.4
3033.789	270.4
3037.046	275.4
3040.301	274.4
3043.552	295.4
3046.801	298.4
3050.048	295.4
3053.291	307.4
3056.532	328.4
3059.771	340.4
3063.006	343.4
3066.239	360.4
3069.469	378.4
3072.697	374.4
3075.922	391.4
3079.144	397.4
3082.364	418.4
3085.581	425.4
3088.795	425.4
3092.007	433.4
3095.216	444.4
3098.423	452.4
3101.627	470.4
3104.828	487.4
3108.026	491.4
3111.222	495.4
3114.416	507.4
3117.607	507.4
3120.795	527.4
3123.98	534.4
3127.163	555.4
3130.344	576.4
3133.521	565.4
3136.696	605.4
3139.869	608.4
3143.039	612.4
3146.206	621.4
3149.371	642.4
3152.533	634.4
3155.693	649.4
3158.85	657.4
3162.005	665.4
3165.157	663.4
3168.306	660.4
3171.453	678.4
3174.597	666.4
3177.739	677.4
3180.878	672.4
3184.014	681.4
3187.149	684.4
3190.28	689.4
3193.409	685.4
3196.536	690.4
3199.659	689.4
3202.781	699.4
3205.9	710.4
3209.016	700.4
3212.13	704.4
3215.241	696.4
3218.35	690.4
3221.456	680.4
3224.56	665.4
3227.661	664.4
3230.76	657.4
3233.856	657.4
3236.95	634.4
3240.041	631.4
3243.13	605.4
3246.216	599.4
3249.3	592.4
3252.382	588.4
3255.46	598.4
3258.537	589.4
3261.611	579.4
3264.682	566.4
3267.751	586.4
3270.818	574.4
3273.882	568.4
3276.943	559.4
3280.002	562.4
3283.059	557.4
3286.113	555.4
3289.165	542.4
3292.214	531.4
3295.261	534.4
3298.306	533.4
3301.348	522.4
3304.387	530.4
3307.425	504.4
3310.459	496.4
3313.492	499.4
3316.521	488.4
3319.549	480.4
3322.574	482.4
3325.597	486.4
3328.617	483.4
3331.635	486.4
3334.65	472.4
3337.663	462.4
3340.674	480.4
3343.682	472.4
3346.688	465.4
3349.691	475.4
3352.692	474.4
3355.691	459.4
3358.687	451.4
3361.681	458.4
3364.673	446.4
3367.662	437.4
3370.649	430.4
3373.633	430.4
3376.615	421.4
3379.595	424.4
3382.572	406.4
3385.547	404.4
3388.52	395.4
3391.49	391.4
3394.458	382.4
3397.424	377.4
3400.387	368.4
3403.348	372.4
3406.307	354.4
3409.263	355.4
3412.217	350.4
3415.168	344.4
3418.118	347.4
3421.065	336.4
3424.009	330.4
3426.951	315.4
3429.891	307.4
3432.829	302.4
3435.764	300.4
3438.697	297.4
3441.628	272.4
3444.557	273.4
3447.483	261.4
3450.407	249.4
3453.328	233.4
3456.247	236.4
3459.164	220.4
3462.079	207.4
3464.991	202.4
3467.902	188.4
3470.809	196.4
3473.715	171.4
3476.618	163.4
3479.519	161.4
3482.418	161.4
3485.315	143.4
3488.209	133.4
3491.101	140.4
3493.99	136.4
3496.878	124.4
3499.763	103.4
3502.646	103.4
3505.527	100.4
3508.405	92.4
3511.281	86.4
3514.155	84.4
3517.027	69.4
3519.897	56.4
3522.764	51.4
3525.629	50.4
3528.492	35.4
3531.352	32.4
3534.211	30.4
3537.067	26.4
3539.921	16.4
3542.773	14.4
3545.622	-0.6
3548.469	-6.6
3551.315	-5.6
3554.157	-11.6
3556.998	-12.6
3559.837	-24.6
3562.673	-21.6
3565.507	-31.6
3568.339	-39.6
3571.169	-47.6
3573.996	-44.6
3576.822	-43.6
3579.645	-37.6
3582.466	-41.6
3585.285	-52.6
3588.101	-48.6
3590.916	-61.6
3593.728	-73.6
3596.538	-67.6
3599.346	-72.6
3602.152	-70.6
3604.956	-75.6
3607.757	-76.6
3610.556	-80.6
3613.354	-87.6
3616.149	-92.6
3618.942	-86.6
3621.732	-88.6
3624.521	-92.6
3627.307	-90.6
3630.092	-93.6
3632.874	-93.6
3635.654	-98.6
3638.432	-96.6
3641.208	-99.6
3643.982	-106.6
3646.753	-111.6
3649.523	-106.6
3652.29	-105.6
3655.055	-107.6
3657.818	-109.6
3660.579	-115.6
3663.338	-109.6
3666.095	-108.6
3668.849	-115.6
3671.602	-119.6
3674.352	-120.6
3677.101	-122.6
3679.847	-124.6
3682.591	-126.6
3685.333	-118.6
3688.073	-121.6
3690.811	-126.6
3693.547	-137.6
3696.281	-129.6
3699.013	-126.6
3701.742	-130.6
3704.47	-132.6
3707.195	-126.6
3709.919	-130.6
3712.64	-131.6
3715.359	-138.6
3718.076	-135.6
3720.792	-138.6
3723.505	-143.6
3726.216	-135.6
3728.925	-139.6
3731.632	-135.6
3734.336	-143.6
3737.039	-134.6
3739.74	-143.6
3742.439	-150.6
3745.136	-140.6
3747.83	-145.6
3750.523	-146.6
3753.213	-146.6
3755.902	-142.6
3758.589	-148.6
3761.273	-136.6
3763.956	-136.6
3766.636	-149.6
3769.315	-139.6
3771.991	-146.6
3774.665	-152.6
3777.338	-135.6
3780.008	-145.6
3782.677	-142.6
3785.343	-142.6
3788.007	-146.6
3790.67	-145.6
3793.33	-142.6
3795.989	-147.6
3798.645	-141.6
3801.299	-145.6
3803.952	-149.6
3806.602	-142.6
3809.251	-149.6
3811.897	-147.6
3814.542	-150.6
3817.184	-147.6
3819.825	-151.6
3822.463	-151.6
3825.1	-145.6
3827.735	-142.6
3830.367	-146.6
3832.998	-153.6
3835.627	-152.6
3838.253	-146.6
3840.878	-150.6
3843.501	-140.6
3846.122	-148.6
3848.741	-149.6
3851.358	-147.6
3853.973	-152.6
3856.586	-152.6
3859.197	-154.6
3861.806	-147.6
3864.414	-147.6
3867.019	-145.6
3869.622	-142.6
3872.224	-135.6
3874.823	-123.6
3877.421	-113.6
3880.016	-77.6
3882.61	-56.6
3885.202	-45.6
3887.792	-72.6
3890.38	-99.6
3892.966	-130.6
3895.55	-138.6
3898.132	-143.6
3900.713	-148.6
3903.291	-156.6
3905.868	-155.6
3908.442	-145.6
3911.015	-155.6
3913.586	-149.6
3916.155	-152.6
3918.722	-151.6
3921.287	-151.6
3923.85	-153.6
3926.411	-155.6
3928.971	-146.6
3931.528	-152.6
3934.084	-150.6
3936.638	-144.6
3939.19	-151.6
3941.74	-155.6
3944.288	-157.6
3946.834	-148.6
3949.378	-149.6
3951.921	-153.6
3954.462	-156.6
3957	-147.6
3959.537	-147.6
3962.072	-155.6
3964.606	-147.6
3967.137	-149.6
3969.667	-156.6
3972.194	-155.6
3974.72	-152.6
3977.244	-152.6
3979.766	-149.6
3982.286	-146.6
3984.805	-150.6
3987.321	-151.6
3989.836	-144.6
3992.349	-152.6
3994.86	-146.6
3997.369	-150.6
3999.877	-146.6
4002.382	-141.6
4004.886	-149.6
4007.388	-149.6
4009.888	-150.6
4012.386	-150.6
4014.883	-146.6
4017.377	-151.6
4019.87	-148.6
4022.361	-151.6
4024.85	-151.6
4027.338	-152.6
4029.823	-154.6
4032.307	-143.6
4034.789	-151.6
4037.269	-148.6
4039.747	-148.6
4042.224	-144.6
4044.699	-155.6
4047.172	-149.6
4049.643	-151.6
4052.112	-151.6
4054.58	-151.6
4057.046	-146.6
4059.51	-149.6
4061.972	-143.6
4064.432	-148.6
4066.891	-152.6
4069.348	-149.6
4071.803	-151.6
4074.256	-153.6
4076.708	-145.6
4079.158	-149.6
4081.606	-145.6
4084.052	-152.6
4086.497	-149.6
4088.939	-146.6
4091.38	-151.6
4093.819	-150.6
4096.257	-160.6
4098.693	-154.6
4101.127	-157.6
4103.559	-150.6
4105.989	21.4
4108.418	14.4
4110.845	10.4
4113.27	1.4
4115.694	7.4
4118.115	-0.6
4120.535	-149.6
4122.954	-155.6
4125.37	-143.6
4127.785	-148.6
4130.198	-146.6
4132.609	-150.6
4135.019	-155.6
4137.427	-159.6
4139.833	-155.6
4142.237	-157.6
