Data from 2018-2-8_conc=6_n=4_RamanShift_01.txt Node
Date: Mon Mar 12 16:32:58 IST 2018
User: aro
Spectrometer: QEPB0276
Trigger mode: 0
Integration Time (sec): 3.000000E1
Scans to average: 1
Electric dark correction enabled: true
Nonlinearity correction enabled: false
Boxcar width: 0
XAxis mode: Raman Shifts
Number of Pixels in Spectrum: 1044
>>>>>Begin Spectral Data<<<<<
160.701	17.9
166.742	46.9
172.777	123.9
178.805	349.9
184.826	937.9
190.841	2018.9
196.849	3361.9
202.85	4374.9
208.845	4747.9
214.833	4787.9
220.815	4706.9
226.789	4677.9
232.758	4694.9
238.719	4696.9
244.674	4661.9
250.623	4636.9
256.565	4556.9
262.5	4471.9
268.429	4465.9
274.351	4416.9
280.267	4374.9
286.176	4367.9
292.079	4376.9
297.975	4310.9
303.865	4338.9
309.748	4326.9
315.625	4296.9
321.495	4301.9
327.359	4305.9
333.217	4302.9
339.068	4316.9
344.912	4330.9
350.751	4333.9
356.583	4343.9
362.408	4339.9
368.227	4372.9
374.04	4336.9
379.847	4380.9
385.647	4399.9
391.44	4425.9
397.228	4427.9
403.009	4487.9
408.784	4510.9
414.553	4529.9
420.315	4526.9
426.071	4529.9
431.821	4514.9
437.565	4544.9
443.302	4481.9
449.033	4484.9
454.758	4454.9
460.477	4449.9
466.189	4427.9
471.896	4394.9
477.596	4384.9
483.29	4337.9
488.978	4346.9
494.66	4322.9
500.335	4282.9
506.005	4138.9
511.668	3989.9
517.325	3858.9
522.977	3751.9
528.622	3652.9
534.261	3593.9
539.894	3565.9
545.521	3528.9
551.141	3506.9
556.756	3489.9
562.365	3450.9
567.968	3428.9
573.565	3403.9
579.155	3385.9
584.74	3363.9
590.319	3379.9
595.892	3370.9
601.459	3358.9
607.02	3322.9
612.575	3332.9
618.124	3304.9
623.667	3246.9
629.204	3213.9
634.735	3200.9
640.261	3172.9
645.781	3140.9
651.294	3152.9
656.802	3132.9
662.304	3138.9
667.8	3101.9
673.29	3138.9
678.775	3114.9
684.254	3102.9
689.726	3046.9
695.193	3087.9
700.655	3040.9
706.11	3036.9
711.56	3015.9
717.004	3000.9
722.442	2977.9
727.874	2962.9
733.301	2968.9
738.722	2948.9
744.137	2938.9
749.547	2944.9
754.951	2927.9
760.349	2920.9
765.741	2935.9
771.128	2960.9
776.509	2981.9
781.885	2999.9
787.254	2994.9
792.618	2995.9
797.977	3011.9
803.33	2982.9
808.677	2964.9
814.019	2925.9
819.355	2895.9
824.686	2881.9
830.011	2898.9
835.33	2873.9
840.644	2866.9
845.952	2842.9
851.255	2844.9
856.552	2809.9
861.844	2837.9
867.13	2791.9
872.41	2787.9
877.686	2727.9
882.955	2701.9
888.219	2724.9
893.478	2666.9
898.731	2655.9
903.979	2623.9
909.221	2589.9
914.458	2589.9
919.69	2571.9
924.916	2568.9
930.136	2574.9
935.351	2587.9
940.561	2581.9
945.766	2590.9
950.965	2573.9
956.158	2553.9
961.347	2517.9
966.529	2483.9
971.707	2453.9
976.879	2420.9
982.046	2400.9
987.208	2399.9
992.364	2412.9
997.515	2373.9
1002.66	2427.9
1007.801	2438.9
1012.936	2452.9
1018.066	2460.9
1023.19	2478.9
1028.309	2451.9
1033.423	2486.9
1038.532	2443.9
1043.636	2438.9
1048.734	2417.9
1053.827	2390.9
1058.915	2351.9
1063.998	2344.9
1069.075	2315.9
1074.147	2338.9
1079.214	2335.9
1084.276	2342.9
1089.333	2340.9
1094.385	2375.9
1099.431	2365.9
1104.472	2371.9
1109.509	2345.9
1114.54	2293.9
1119.565	2278.9
1124.586	2232.9
1129.602	2211.9
1134.613	2212.9
1139.618	2180.9
1144.619	2199.9
1149.614	2192.9
1154.604	2192.9
1159.589	2194.9
1164.57	2207.9
1169.545	2203.9
1174.515	2223.9
1179.48	2198.9
1184.44	2179.9
1189.395	2166.9
1194.345	2148.9
1199.29	2130.9
1204.23	2126.9
1209.165	2139.9
1214.095	2155.9
1219.021	2166.9
1223.941	2170.9
1228.856	2196.9
1233.766	2180.9
1238.672	2194.9
1243.572	2172.9
1248.467	2159.9
1253.358	2152.9
1258.244	2101.9
1263.124	2072.9
1268	2022.9
1272.871	2004.9
1277.737	1997.9
1282.599	1975.9
1287.455	1986.9
1292.306	2005.9
1297.153	2001.9
1301.995	2025.9
1306.832	2015.9
1311.664	2036.9
1316.491	2047.9
1321.314	2027.9
1326.132	2024.9
1330.945	1986.9
1335.753	1964.9
1340.556	1950.9
1345.354	1921.9
1350.148	1906.9
1354.937	1870.9
1359.722	1839.9
1364.501	1795.9
1369.276	1774.9
1374.046	1753.9
1378.811	1721.9
1383.572	1729.9
1388.327	1724.9
1393.079	1718.9
1397.825	1708.9
1402.567	1710.9
1407.304	1706.9
1412.036	1725.9
1416.764	1732.9
1421.487	1732.9
1426.205	1723.9
1430.919	1729.9
1435.628	1732.9
1440.333	1708.9
1445.032	1765.9
1449.727	1785.9
1454.418	1782.9
1459.104	1791.9
1463.785	1758.9
1468.462	1719.9
1473.134	1696.9
1477.802	1666.9
1482.465	1642.9
1487.123	1590.9
1491.777	1595.9
1496.426	1562.9
1501.071	1544.9
1505.711	1569.9
1510.347	1552.9
1514.978	1556.9
1519.604	1536.9
1524.226	1550.9
1528.844	1526.9
1533.457	1531.9
1538.065	1524.9
1542.669	1514.9
1547.269	1522.9
1551.864	1517.9
1556.454	1536.9
1561.041	1542.9
1565.622	1541.9
1570.199	1545.9
1574.772	1583.9
1579.34	1589.9
1583.904	1617.9
1588.464	1620.9
1593.019	1623.9
1597.569	1615.9
1602.115	1632.9
1606.657	1594.9
1611.195	1610.9
1615.728	1592.9
1620.256	1606.9
1624.78	1595.9
1629.3	1595.9
1633.816	1606.9
1638.327	1608.9
1642.834	1638.9
1647.336	1659.9
1651.834	1635.9
1656.328	1630.9
1660.817	1630.9
1665.302	1615.9
1669.783	1583.9
1674.259	1553.9
1678.732	1514.9
1683.199	1471.9
1687.663	1446.9
1692.122	1378.9
1696.577	1335.9
1701.028	1290.9
1705.474	1249.9
1709.917	1193.9
1714.355	1166.9
1718.788	1168.9
1723.218	1179.9
1727.643	1164.9
1732.064	1169.9
1736.481	1148.9
1740.893	1134.9
1745.301	1112.9
1749.705	1084.9
1754.105	1062.9
1758.501	1061.9
1762.893	1031.9
1767.28	1028.9
1771.663	1008.9
1776.042	1018.9
1780.417	979.9
1784.787	974.9
1789.154	988.9
1793.516	968.9
1797.874	950.9
1802.228	943.9
1806.578	917.9
1810.924	936.9
1815.266	917.9
1819.603	908.9
1823.937	924.9
1828.266	910.9
1832.591	890.9
1836.913	900.9
1841.23	908.9
1845.543	899.9
1849.852	900.9
1854.156	900.9
1858.457	902.9
1862.754	909.9
1867.047	910.9
1871.335	900.9
1875.62	912.9
1879.9	888.9
1884.177	904.9
1888.449	879.9
1892.718	885.9
1896.982	865.9
1901.243	855.9
1905.499	829.9
1909.752	835.9
1914	828.9
1918.245	825.9
1922.485	790.9
1926.722	799.9
1930.954	800.9
1935.183	781.9
1939.408	792.9
1943.628	796.9
1947.845	785.9
1952.058	771.9
1956.267	766.9
1960.472	766.9
1964.673	746.9
1968.87	746.9
1973.063	743.9
1977.252	737.9
1981.438	742.9
1985.619	728.9
1989.797	724.9
1993.971	727.9
1998.14	745.9
2002.306	731.9
2006.469	740.9
2010.627	739.9
2014.781	750.9
2018.932	733.9
2023.078	731.9
2027.221	732.9
2031.36	712.9
2035.495	716.9
2039.627	702.9
2043.754	692.9
2047.878	684.9
2051.998	679.9
2056.114	677.9
2060.226	690.9
2064.334	681.9
2068.439	682.9
2072.54	671.9
2076.637	672.9
2080.73	676.9
2084.82	663.9
2088.906	663.9
2092.988	656.9
2097.066	651.9
2101.14	641.9
2105.211	628.9
2109.278	612.9
2113.342	617.9
2117.401	615.9
2121.457	611.9
2125.509	606.9
2129.558	591.9
2133.602	605.9
2137.643	601.9
2141.681	595.9
2145.714	591.9
2149.744	599.9
2153.77	575.9
2157.793	576.9
2161.812	593.9
2165.827	589.9
2169.838	570.9
2173.846	572.9
2177.851	556.9
2181.851	543.9
2185.848	532.9
2189.841	545.9
2193.831	533.9
2197.817	526.9
2201.799	518.9
2205.778	520.9
2209.753	528.9
2213.725	529.9
2217.693	522.9
2221.657	518.9
2225.618	519.9
2229.575	513.9
2233.529	507.9
2237.479	505.9
2241.425	490.9
2245.368	490.9
2249.307	483.9
2253.243	483.9
2257.175	466.9
2261.104	463.9
2265.029	459.9
2268.95	447.9
2272.868	435.9
2276.783	430.9
2280.694	424.9
2284.601	426.9
2288.505	427.9
2292.405	415.9
2296.302	419.9
2300.195	416.9
2304.085	395.9
2307.971	392.9
2311.854	396.9
2315.734	383.9
2319.609	379.9
2323.482	369.9
2327.351	374.9
2331.216	384.9
2335.078	391.9
2338.937	365.9
2342.792	358.9
2346.643	356.9
2350.492	353.9
2354.336	355.9
2358.178	353.9
2362.015	360.9
2365.85	359.9
2369.681	361.9
2373.508	361.9
2377.333	356.9
2381.153	349.9
2384.971	363.9
2388.785	356.9
2392.595	350.9
2396.402	344.9
2400.206	342.9
2404.007	345.9
2407.804	341.9
2411.597	340.9
2415.388	338.9
2419.174	337.9
2422.958	331.9
2426.738	326.9
2430.515	328.9
2434.289	328.9
2438.059	320.9
2441.825	325.9
2445.589	325.9
2449.349	302.9
2453.106	306.9
2456.859	304.9
2460.61	305.9
2464.356	297.9
2468.1	287.9
2471.84	288.9
2475.577	289.9
2479.311	278.9
2483.041	270.9
2486.768	281.9
2490.492	276.9
2494.213	281.9
2497.93	265.9
2501.644	270.9
2505.355	267.9
2509.062	265.9
2512.766	264.9
2516.467	253.9
2520.165	252.9
2523.859	251.9
2527.551	257.9
2531.239	243.9
2534.923	243.9
2538.605	234.9
2542.283	241.9
2545.958	235.9
2549.63	240.9
2553.299	231.9
2556.964	245.9
2560.626	230.9
2564.285	217.9
2567.941	216.9
2571.594	226.9
2575.243	222.9
2578.89	215.9
2582.533	212.9
2586.173	229.9
2589.809	361.9
2593.443	249.9
2597.073	209.9
2600.701	196.9
2604.325	191.9
2607.946	193.9
2611.564	194.9
2615.178	200.9
2618.79	200.9
2622.398	191.9
2626.004	188.9
2629.606	188.9
2633.205	177.9
2636.801	182.9
2640.394	178.9
2643.983	186.9
2647.57	179.9
2651.153	170.9
2654.734	181.9
2658.311	165.9
2661.885	166.9
2665.456	172.9
2669.025	165.9
2672.589	160.9
2676.151	155.9
2679.71	160.9
2683.266	158.9
2686.819	164.9
2690.368	146.9
2693.915	145.9
2697.458	140.9
2700.999	147.9
2704.536	143.9
2708.071	137.9
2711.602	136.9
2715.13	137.9
2718.656	128.9
2722.178	130.9
2725.697	126.9
2729.214	127.9
2732.727	124.9
2736.237	126.9
2739.744	125.9
2743.249	123.9
2746.75	115.9
2750.248	119.9
2753.743	116.9
2757.236	113.9
2760.725	105.9
2764.211	113.9
2767.695	100.9
2771.175	96.9
2774.652	94.9
2778.127	95.9
2781.598	93.9
2785.067	103.9
2788.532	107.9
2791.995	102.9
2795.455	100.9
2798.911	101.9
2802.365	101.9
2805.816	102.9
2809.264	100.9
2812.709	105.9
2816.151	103.9
2819.59	114.9
2823.026	94.9
2826.46	96.9
2829.89	99.9
2833.318	99.9
2836.742	101.9
2840.164	99.9
2843.583	104.9
2846.999	109.9
2850.412	99.9
2853.822	106.9
2857.229	104.9
2860.634	113.9
2864.035	114.9
2867.434	115.9
2870.83	128.9
2874.223	139.9
2877.613	138.9
2881	138.9
2884.385	140.9
2887.766	135.9
2891.145	134.9
2894.521	141.9
2897.894	145.9
2901.264	136.9
2904.631	145.9
2907.996	144.9
2911.358	142.9
2914.717	143.9
2918.073	148.9
2921.426	156.9
2924.777	161.9
2928.124	166.9
2931.469	159.9
2934.811	175.9
2938.15	171.9
2941.487	180.9
2944.821	175.9
2948.152	178.9
2951.48	182.9
2954.805	185.9
2958.128	179.9
2961.447	170.9
2964.765	180.9
2968.079	173.9
2971.39	181.9
2974.699	178.9
2978.005	182.9
2981.308	190.9
2984.609	186.9
2987.907	171.9
2991.202	189.9
2994.494	185.9
2997.784	183.9
3001.07	201.9
3004.355	197.9
3007.636	195.9
3010.915	201.9
3014.191	197.9
3017.464	213.9
3020.734	200.9
3024.002	208.9
3027.267	213.9
3030.53	211.9
3033.789	226.9
3037.046	236.9
3040.301	234.9
3043.552	247.9
3046.801	251.9
3050.048	256.9
3053.291	267.9
3056.532	284.9
3059.771	291.9
3063.006	299.9
3066.239	308.9
3069.469	317.9
3072.697	326.9
3075.922	330.9
3079.144	345.9
3082.364	357.9
3085.581	362.9
3088.795	371.9
3092.007	370.9
3095.216	378.9
3098.423	398.9
3101.627	398.9
3104.828	413.9
3108.026	403.9
3111.222	427.9
3114.416	430.9
3117.607	440.9
3120.795	454.9
3123.98	470.9
3127.163	468.9
3130.344	494.9
3133.521	493.9
3136.696	516.9
3139.869	514.9
3143.039	524.9
3146.206	525.9
3149.371	551.9
3152.533	544.9
3155.693	557.9
3158.85	562.9
3162.005	564.9
3165.157	566.9
3168.306	562.9
3171.453	564.9
3174.597	571.9
3177.739	579.9
3180.878	581.9
3184.014	590.9
3187.149	575.9
3190.28	587.9
3193.409	588.9
3196.536	595.9
3199.659	597.9
3202.781	594.9
3205.9	598.9
3209.016	607.9
3212.13	596.9
3215.241	584.9
3218.35	595.9
3221.456	585.9
3224.56	569.9
3227.661	568.9
3230.76	558.9
3233.856	548.9
3236.95	536.9
3240.041	540.9
3243.13	523.9
3246.216	524.9
3249.3	513.9
3252.382	508.9
3255.46	503.9
3258.537	497.9
3261.611	501.9
3264.682	489.9
3267.751	488.9
3270.818	485.9
3273.882	481.9
3276.943	482.9
3280.002	472.9
3283.059	470.9
3286.113	471.9
3289.165	462.9
3292.214	457.9
3295.261	441.9
3298.306	440.9
3301.348	440.9
3304.387	435.9
3307.425	426.9
3310.459	424.9
3313.492	433.9
3316.521	412.9
3319.549	411.9
3322.574	405.9
3325.597	408.9
3328.617	397.9
3331.635	402.9
3334.65	398.9
3337.663	390.9
3340.674	400.9
3343.682	401.9
3346.688	387.9
3349.691	400.9
3352.692	400.9
3355.691	382.9
3358.687	382.9
3361.681	387.9
3364.673	381.9
3367.662	375.9
3370.649	360.9
3373.633	348.9
3376.615	344.9
3379.595	344.9
3382.572	347.9
3385.547	344.9
3388.52	326.9
3391.49	332.9
3394.458	323.9
3397.424	314.9
3400.387	301.9
3403.348	298.9
3406.307	298.9
3409.263	299.9
3412.217	292.9
3415.168	298.9
3418.118	290.9
3421.065	276.9
3424.009	283.9
3426.951	270.9
3429.891	266.9
3432.829	246.9
3435.764	244.9
3438.697	245.9
3441.628	236.9
3444.557	229.9
3447.483	219.9
3450.407	203.9
3453.328	195.9
3456.247	191.9
3459.164	183.9
3462.079	177.9
3464.991	173.9
3467.902	165.9
3470.809	166.9
3473.715	154.9
3476.618	137.9
3479.519	130.9
3482.418	138.9
3485.315	122.9
3488.209	108.9
3491.101	112.9
3493.99	110.9
3496.878	98.9
3499.763	96.9
3502.646	91.9
3505.527	78.9
3508.405	84.9
3511.281	74.9
3514.155	62.9
3517.027	62.9
3519.897	55.9
3522.764	44.9
3525.629	36.9
3528.492	32.9
3531.352	35.9
3534.211	15.9
3537.067	15.9
3539.921	13.9
3542.773	13.9
3545.622	2.9
3548.469	-0.1
3551.315	-1.1
3554.157	-10.1
3556.998	-21.1
3559.837	-16.1
3562.673	-26.1
3565.507	-21.1
3568.339	-26.1
3571.169	-35.1
3573.996	-30.1
3576.822	-31.1
3579.645	-40.1
3582.466	-38.1
3585.285	-51.1
3588.101	-40.1
3590.916	-50.1
3593.728	-57.1
3596.538	-54.1
3599.346	-58.1
3602.152	-61.1
3604.956	-61.1
3607.757	-61.1
3610.556	-70.1
3613.354	-67.1
3616.149	-71.1
3618.942	-75.1
3621.732	-80.1
3624.521	-81.1
3627.307	-83.1
3630.092	-78.1
3632.874	-79.1
3635.654	-82.1
3638.432	-81.1
3641.208	-85.1
3643.982	-86.1
3646.753	-94.1
3649.523	-98.1
3652.29	-88.1
3655.055	-93.1
3657.818	-92.1
3660.579	-90.1
3663.338	-97.1
3666.095	-103.1
3668.849	-105.1
3671.602	-100.1
3674.352	-98.1
3677.101	-103.1
3679.847	-102.1
3682.591	-109.1
3685.333	-105.1
3688.073	-106.1
3690.811	-106.1
3693.547	-120.1
3696.281	-108.1
3699.013	-110.1
3701.742	-113.1
3704.47	-111.1
3707.195	-113.1
3709.919	-112.1
3712.64	-117.1
3715.359	-120.1
3718.076	-118.1
3720.792	-122.1
3723.505	-118.1
3726.216	-115.1
3728.925	-122.1
3731.632	-118.1
3734.336	-128.1
3737.039	-124.1
3739.74	-123.1
3742.439	-125.1
3745.136	-120.1
3747.83	-127.1
3750.523	-124.1
3753.213	-129.1
3755.902	-124.1
3758.589	-128.1
3761.273	-118.1
3763.956	-117.1
3766.636	-121.1
3769.315	-119.1
3771.991	-118.1
3774.665	-135.1
3777.338	-117.1
3780.008	-121.1
3782.677	-120.1
3785.343	-122.1
3788.007	-128.1
3790.67	-127.1
3793.33	-124.1
3795.989	-126.1
3798.645	-123.1
3801.299	-121.1
3803.952	-130.1
3806.602	-123.1
3809.251	-131.1
3811.897	-130.1
3814.542	-135.1
3817.184	-120.1
3819.825	-123.1
3822.463	-124.1
3825.1	-122.1
3827.735	-127.1
3830.367	-130.1
3832.998	-134.1
3835.627	-131.1
3838.253	-120.1
3840.878	-125.1
3843.501	-128.1
3846.122	-124.1
3848.741	-136.1
3851.358	-130.1
3853.973	-133.1
3856.586	-126.1
3859.197	-131.1
3861.806	-122.1
3864.414	-130.1
3867.019	-127.1
3869.622	-129.1
3872.224	-116.1
3874.823	-113.1
3877.421	-103.1
3880.016	-66.1
3882.61	-47.1
3885.202	-55.1
3887.792	-73.1
3890.38	-96.1
3892.966	-120.1
3895.55	-119.1
3898.132	-126.1
3900.713	-123.1
3903.291	-131.1
3905.868	-129.1
3908.442	-124.1
3911.015	-134.1
3913.586	-134.1
3916.155	-132.1
3918.722	-132.1
3921.287	-126.1
3923.85	-126.1
3926.411	-130.1
3928.971	-127.1
3931.528	-138.1
3934.084	-129.1
3936.638	-125.1
3939.19	-130.1
3941.74	-129.1
3944.288	-129.1
3946.834	-127.1
3949.378	-125.1
3951.921	-131.1
3954.462	-139.1
3957	-125.1
3959.537	-127.1
3962.072	-132.1
3964.606	-127.1
3967.137	-127.1
3969.667	-129.1
3972.194	-133.1
3974.72	-122.1
3977.244	-127.1
3979.766	-132.1
3982.286	-130.1
3984.805	-130.1
3987.321	-130.1
3989.836	-126.1
3992.349	-129.1
3994.86	-132.1
3997.369	-132.1
3999.877	-131.1
4002.382	-123.1
4004.886	-129.1
4007.388	-135.1
4009.888	-128.1
4012.386	-129.1
4014.883	-126.1
4017.377	-132.1
4019.87	-129.1
4022.361	-130.1
4024.85	-130.1
4027.338	-128.1
4029.823	-128.1
4032.307	-121.1
4034.789	-128.1
4037.269	-128.1
4039.747	-127.1
4042.224	-129.1
4044.699	-132.1
4047.172	-131.1
4049.643	-124.1
4052.112	-132.1
4054.58	-128.1
4057.046	-129.1
4059.51	-129.1
4061.972	-127.1
4064.432	-129.1
4066.891	-132.1
4069.348	-128.1
4071.803	-128.1
4074.256	-132.1
4076.708	-122.1
4079.158	-129.1
4081.606	-120.1
4084.052	-135.1
4086.497	-129.1
4088.939	-121.1
4091.38	-126.1
4093.819	-125.1
4096.257	-134.1
4098.693	-134.1
4101.127	-133.1
4103.559	-132.1
4105.989	15.9
4108.418	14.9
4110.845	3.9
4113.27	12.9
4115.694	-5.1
4118.115	-8.1
4120.535	-131.1
4122.954	-130.1
4125.37	-125.1
4127.785	-130.1
4130.198	-131.1
4132.609	-127.1
4135.019	-134.1
4137.427	-137.1
4139.833	-132.1
4142.237	-135.1
