Data from 2018-2-8_conc=2_n=1_RamanShift_02.txt Node
Date: Mon Mar 12 13:55:28 IST 2018
User: aro
Spectrometer: QEPB0276
Trigger mode: 0
Integration Time (sec): 3.000000E1
Scans to average: 1
Electric dark correction enabled: true
Nonlinearity correction enabled: false
Boxcar width: 0
XAxis mode: Raman Shifts
Number of Pixels in Spectrum: 1044
>>>>>Begin Spectral Data<<<<<
160.701	21.4
166.742	48.4
172.777	141.4
178.805	417.4
184.826	1100.4
190.841	2354.4
196.849	3894.4
202.85	5127.4
208.845	5577.4
214.833	5545.4
220.815	5468.4
226.789	5474.4
232.758	5425.4
238.719	5469.4
244.674	5405.4
250.623	5360.4
256.565	5284.4
262.5	5196.4
268.429	5182.4
274.351	5100.4
280.267	5085.4
286.176	5030.4
292.079	5013.4
297.975	4972.4
303.865	4993.4
309.748	4965.4
315.625	4954.4
321.495	4970.4
327.359	4933.4
333.217	4957.4
339.068	4952.4
344.912	4973.4
350.751	4982.4
356.583	4978.4
362.408	4996.4
368.227	4999.4
374.04	5019.4
379.847	5058.4
385.647	5078.4
391.44	5071.4
397.228	5119.4
403.009	5138.4
408.784	5180.4
414.553	5150.4
420.315	5189.4
426.071	5190.4
431.821	5208.4
437.565	5175.4
443.302	5163.4
449.033	5149.4
454.758	5147.4
460.477	5097.4
466.189	5061.4
471.896	5047.4
477.596	5014.4
483.29	4993.4
488.978	5019.4
494.66	4973.4
500.335	4884.4
506.005	4808.4
511.668	4620.4
517.325	4466.4
522.977	4344.4
528.622	4313.4
534.261	4224.4
539.894	4160.4
545.521	4120.4
551.141	4111.4
556.756	4086.4
562.365	4084.4
567.968	4034.4
573.565	3994.4
579.155	3964.4
584.74	3959.4
590.319	3941.4
595.892	3946.4
601.459	3952.4
607.02	3916.4
612.575	3888.4
618.124	3845.4
623.667	3833.4
629.204	3806.4
634.735	3769.4
640.261	3699.4
645.781	3702.4
651.294	3692.4
656.802	3668.4
662.304	3680.4
667.8	3696.4
673.29	3669.4
678.775	3667.4
684.254	3624.4
689.726	3627.4
695.193	3592.4
700.655	3567.4
706.11	3568.4
711.56	3530.4
717.004	3516.4
722.442	3519.4
727.874	3514.4
733.301	3486.4
738.722	3471.4
744.137	3457.4
749.547	3430.4
754.951	3461.4
760.349	3440.4
765.741	3452.4
771.128	3484.4
776.509	3506.4
781.885	3525.4
787.254	3510.4
792.618	3524.4
797.977	3518.4
803.33	3492.4
808.677	3450.4
814.019	3432.4
819.355	3421.4
824.686	3371.4
830.011	3358.4
835.33	3366.4
840.644	3380.4
845.952	3340.4
851.255	3345.4
856.552	3330.4
861.844	3307.4
867.13	3302.4
872.41	3255.4
877.686	3230.4
882.955	3192.4
888.219	3186.4
893.478	3153.4
898.731	3095.4
903.979	3059.4
909.221	3020.4
914.458	3026.4
919.69	3009.4
924.916	3021.4
930.136	3019.4
935.351	3026.4
940.561	3050.4
945.766	3027.4
950.965	3030.4
956.158	2971.4
961.347	2963.4
966.529	2918.4
971.707	2906.4
976.879	2842.4
982.046	2812.4
987.208	2796.4
992.364	2792.4
997.515	2803.4
1002.66	2823.4
1007.801	2857.4
1012.936	2868.4
1018.066	2863.4
1023.19	2897.4
1028.309	2887.4
1033.423	2910.4
1038.532	2873.4
1043.636	2853.4
1048.734	2838.4
1053.827	2791.4
1058.915	2771.4
1063.998	2734.4
1069.075	2726.4
1074.147	2740.4
1079.214	2743.4
1084.276	2757.4
1089.333	2736.4
1094.385	2762.4
1099.431	2771.4
1104.472	2761.4
1109.509	2728.4
1114.54	2711.4
1119.565	2661.4
1124.586	2619.4
1129.602	2613.4
1134.613	2584.4
1139.618	2561.4
1144.619	2551.4
1149.614	2561.4
1154.604	2566.4
1159.589	2582.4
1164.57	2583.4
1169.545	2587.4
1174.515	2598.4
1179.48	2572.4
1184.44	2528.4
1189.395	2509.4
1194.345	2501.4
1199.29	2478.4
1204.23	2482.4
1209.165	2491.4
1214.095	2503.4
1219.021	2516.4
1223.941	2529.4
1228.856	2543.4
1233.766	2550.4
1238.672	2550.4
1243.572	2537.4
1248.467	2540.4
1253.358	2528.4
1258.244	2473.4
1263.124	2433.4
1268	2383.4
1272.871	2341.4
1277.737	2315.4
1282.599	2324.4
1287.455	2306.4
1292.306	2344.4
1297.153	2349.4
1301.995	2347.4
1306.832	2354.4
1311.664	2382.4
1316.491	2361.4
1321.314	2352.4
1326.132	2343.4
1330.945	2333.4
1335.753	2279.4
1340.556	2241.4
1345.354	2230.4
1350.148	2178.4
1354.937	2147.4
1359.722	2115.4
1364.501	2096.4
1369.276	2054.4
1374.046	2033.4
1378.811	2028.4
1383.572	2001.4
1388.327	1993.4
1393.079	1975.4
1397.825	2012.4
1402.567	1985.4
1407.304	1998.4
1412.036	1997.4
1416.764	1987.4
1421.487	1990.4
1426.205	1987.4
1430.919	1982.4
1435.628	2039.4
1440.333	2029.4
1445.032	2068.4
1449.727	2059.4
1454.418	2060.4
1459.104	2053.4
1463.785	2042.4
1468.462	2013.4
1473.134	1965.4
1477.802	1929.4
1482.465	1881.4
1487.123	1839.4
1491.777	1815.4
1496.426	1805.4
1501.071	1785.4
1505.711	1790.4
1510.347	1767.4
1514.978	1760.4
1519.604	1778.4
1524.226	1778.4
1528.844	1759.4
1533.457	1754.4
1538.065	1753.4
1542.669	1760.4
1547.269	1751.4
1551.864	1765.4
1556.454	1768.4
1561.041	1798.4
1565.622	1764.4
1570.199	1797.4
1574.772	1813.4
1579.34	1833.4
1583.904	1854.4
1588.464	1875.4
1593.019	1873.4
1597.569	1871.4
1602.115	1859.4
1606.657	1867.4
1611.195	1853.4
1615.728	1850.4
1620.256	1850.4
1624.78	1870.4
1629.3	1842.4
1633.816	1860.4
1638.327	1871.4
1642.834	1864.4
1647.336	1885.4
1651.834	1895.4
1656.328	1880.4
1660.817	1884.4
1665.302	1854.4
1669.783	1820.4
1674.259	1774.4
1678.732	1732.4
1683.199	1676.4
1687.663	1653.4
1692.122	1579.4
1696.577	1531.4
1701.028	1451.4
1705.474	1407.4
1709.917	1343.4
1714.355	1330.4
1718.788	1319.4
1723.218	1337.4
1727.643	1309.4
1732.064	1323.4
1736.481	1310.4
1740.893	1276.4
1745.301	1241.4
1749.705	1205.4
1754.105	1184.4
1758.501	1168.4
1762.893	1151.4
1767.28	1165.4
1771.663	1137.4
1776.042	1128.4
1780.417	1109.4
1784.787	1103.4
1789.154	1091.4
1793.516	1088.4
1797.874	1060.4
1802.228	1050.4
1806.578	1051.4
1810.924	1030.4
1815.266	1022.4
1819.603	1022.4
1823.937	1021.4
1828.266	1026.4
1832.591	1021.4
1836.913	1022.4
1841.23	1029.4
1845.543	1022.4
1849.852	1016.4
1854.156	1012.4
1858.457	1011.4
1862.754	1007.4
1867.047	1019.4
1871.335	1011.4
1875.62	1006.4
1879.9	1019.4
1884.177	1000.4
1888.449	981.4
1892.718	977.4
1896.982	962.4
1901.243	952.4
1905.499	946.4
1909.752	926.4
1914	919.4
1918.245	897.4
1922.485	885.4
1926.722	881.4
1930.954	873.4
1935.183	871.4
1939.408	873.4
1943.628	878.4
1947.845	861.4
1952.058	864.4
1956.267	850.4
1960.472	852.4
1964.673	833.4
1968.87	824.4
1973.063	818.4
1977.252	800.4
1981.438	819.4
1985.619	820.4
1989.797	814.4
1993.971	826.4
1998.14	829.4
2002.306	807.4
2006.469	830.4
2010.627	839.4
2014.781	825.4
2018.932	816.4
2023.078	823.4
2027.221	809.4
2031.36	808.4
2035.495	795.4
2039.627	783.4
2043.754	781.4
2047.878	779.4
2051.998	769.4
2056.114	763.4
2060.226	759.4
2064.334	742.4
2068.439	747.4
2072.54	752.4
2076.637	749.4
2080.73	744.4
2084.82	731.4
2088.906	732.4
2092.988	726.4
2097.066	713.4
2101.14	699.4
2105.211	698.4
2109.278	691.4
2113.342	690.4
2117.401	679.4
2121.457	673.4
2125.509	670.4
2129.558	661.4
2133.602	661.4
2137.643	655.4
2141.681	666.4
2145.714	655.4
2149.744	670.4
2153.77	667.4
2157.793	643.4
2161.812	658.4
2165.827	643.4
2169.838	641.4
2173.846	626.4
2177.851	606.4
2181.851	601.4
2185.848	603.4
2189.841	603.4
2193.831	577.4
2197.817	588.4
2201.799	563.4
2205.778	586.4
2209.753	572.4
2213.725	583.4
2217.693	577.4
2221.657	572.4
2225.618	574.4
2229.575	571.4
2233.529	565.4
2237.479	564.4
2241.425	557.4
2245.368	535.4
2249.307	529.4
2253.243	517.4
2257.175	520.4
2261.104	518.4
2265.029	512.4
2268.95	510.4
2272.868	497.4
2276.783	491.4
2280.694	484.4
2284.601	475.4
2288.505	468.4
2292.405	462.4
2296.302	456.4
2300.195	456.4
2304.085	439.4
2307.971	424.4
2311.854	437.4
2315.734	416.4
2319.609	420.4
2323.482	416.4
2327.351	421.4
2331.216	427.4
2335.078	435.4
2338.937	418.4
2342.792	408.4
2346.643	404.4
2350.492	392.4
2354.336	398.4
2358.178	399.4
2362.015	401.4
2365.85	401.4
2369.681	401.4
2373.508	392.4
2377.333	397.4
2381.153	395.4
2384.971	394.4
2388.785	392.4
2392.595	385.4
2396.402	380.4
2400.206	387.4
2404.007	378.4
2407.804	372.4
2411.597	373.4
2415.388	365.4
2419.174	371.4
2422.958	372.4
2426.738	373.4
2430.515	354.4
2434.289	367.4
2438.059	345.4
2441.825	351.4
2445.589	354.4
2449.349	335.4
2453.106	345.4
2456.859	335.4
2460.61	326.4
2464.356	322.4
2468.1	317.4
2471.84	313.4
2475.577	324.4
2479.311	312.4
2483.041	304.4
2486.768	314.4
2490.492	296.4
2494.213	305.4
2497.93	302.4
2501.644	295.4
2505.355	286.4
2509.062	290.4
2512.766	295.4
2516.467	283.4
2520.165	284.4
2523.859	275.4
2527.551	273.4
2531.239	256.4
2534.923	256.4
2538.605	260.4
2542.283	259.4
2545.958	251.4
2549.63	252.4
2553.299	256.4
2556.964	253.4
2560.626	247.4
2564.285	243.4
2567.941	234.4
2571.594	234.4
2575.243	228.4
2578.89	224.4
2582.533	225.4
2586.173	214.4
2589.809	215.4
2593.443	213.4
2597.073	213.4
2600.701	214.4
2604.325	211.4
2607.946	213.4
2611.564	205.4
2615.178	213.4
2618.79	214.4
2622.398	206.4
2626.004	212.4
2629.606	195.4
2633.205	190.4
2636.801	190.4
2640.394	191.4
2643.983	189.4
2647.57	192.4
2651.153	179.4
2654.734	186.4
2658.311	173.4
2661.885	173.4
2665.456	178.4
2669.025	180.4
2672.589	174.4
2676.151	177.4
2679.71	168.4
2683.266	162.4
2686.819	160.4
2690.368	163.4
2693.915	160.4
2697.458	159.4
2700.999	155.4
2704.536	147.4
2708.071	142.4
2711.602	136.4
2715.13	138.4
2718.656	139.4
2722.178	136.4
2725.697	131.4
2729.214	124.4
2732.727	130.4
2736.237	127.4
2739.744	126.4
2743.249	123.4
2746.75	123.4
2750.248	124.4
2753.743	119.4
2757.236	110.4
2760.725	109.4
2764.211	108.4
2767.695	106.4
2771.175	99.4
2774.652	101.4
2778.127	98.4
2781.598	105.4
2785.067	97.4
2788.532	105.4
2791.995	102.4
2795.455	102.4
2798.911	100.4
2802.365	111.4
2805.816	107.4
2809.264	104.4
2812.709	114.4
2816.151	115.4
2819.59	107.4
2823.026	108.4
2826.46	103.4
2829.89	100.4
2833.318	100.4
2836.742	109.4
2840.164	99.4
2843.583	117.4
2846.999	114.4
2850.412	108.4
2853.822	117.4
2857.229	104.4
2860.634	113.4
2864.035	124.4
2867.434	117.4
2870.83	142.4
2874.223	140.4
2877.613	148.4
2881	150.4
2884.385	149.4
2887.766	151.4
2891.145	147.4
2894.521	153.4
2897.894	156.4
2901.264	157.4
2904.631	153.4
2907.996	160.4
2911.358	162.4
2914.717	162.4
2918.073	165.4
2921.426	180.4
2924.777	173.4
2928.124	186.4
2931.469	180.4
2934.811	188.4
2938.15	192.4
2941.487	203.4
2944.821	202.4
2948.152	201.4
2951.48	206.4
2954.805	213.4
2958.128	191.4
2961.447	187.4
2964.765	196.4
2968.079	198.4
2971.39	192.4
2974.699	214.4
2978.005	204.4
2981.308	205.4
2984.609	205.4
2987.907	203.4
2991.202	213.4
2994.494	211.4
2997.784	205.4
3001.07	215.4
3004.355	225.4
3007.636	231.4
3010.915	224.4
3014.191	231.4
3017.464	232.4
3020.734	233.4
3024.002	234.4
3027.267	244.4
3030.53	253.4
3033.789	263.4
3037.046	275.4
3040.301	261.4
3043.552	274.4
3046.801	293.4
3050.048	285.4
3053.291	307.4
3056.532	312.4
3059.771	329.4
3063.006	332.4
3066.239	360.4
3069.469	367.4
3072.697	377.4
3075.922	378.4
3079.144	396.4
3082.364	403.4
3085.581	404.4
3088.795	417.4
3092.007	433.4
3095.216	436.4
3098.423	444.4
3101.627	460.4
3104.828	457.4
3108.026	475.4
3111.222	487.4
3114.416	498.4
3117.607	516.4
3120.795	525.4
3123.98	522.4
3127.163	537.4
3130.344	560.4
3133.521	573.4
3136.696	587.4
3139.869	595.4
3143.039	602.4
3146.206	615.4
3149.371	626.4
3152.533	635.4
3155.693	637.4
3158.85	639.4
3162.005	643.4
3165.157	659.4
3168.306	652.4
3171.453	654.4
3174.597	656.4
3177.739	678.4
3180.878	657.4
3184.014	694.4
3187.149	671.4
3190.28	685.4
3193.409	672.4
3196.536	683.4
3199.659	683.4
3202.781	686.4
3205.9	696.4
3209.016	688.4
3212.13	680.4
3215.241	692.4
3218.35	697.4
3221.456	673.4
3224.56	660.4
3227.661	665.4
3230.76	656.4
3233.856	643.4
3236.95	624.4
3240.041	628.4
3243.13	615.4
3246.216	606.4
3249.3	590.4
3252.382	588.4
3255.46	588.4
3258.537	576.4
3261.611	581.4
3264.682	566.4
3267.751	567.4
3270.818	559.4
3273.882	561.4
3276.943	552.4
3280.002	544.4
3283.059	554.4
3286.113	552.4
3289.165	537.4
3292.214	535.4
3295.261	525.4
3298.306	521.4
3301.348	514.4
3304.387	505.4
3307.425	498.4
3310.459	507.4
3313.492	493.4
3316.521	492.4
3319.549	475.4
3322.574	477.4
3325.597	472.4
3328.617	480.4
3331.635	482.4
3334.65	476.4
3337.663	451.4
3340.674	472.4
3343.682	463.4
3346.688	460.4
3349.691	464.4
3352.692	456.4
3355.691	460.4
3358.687	445.4
3361.681	456.4
3364.673	455.4
3367.662	447.4
3370.649	418.4
3373.633	417.4
3376.615	418.4
3379.595	405.4
3382.572	397.4
3385.547	388.4
3388.52	394.4
3391.49	380.4
3394.458	373.4
3397.424	363.4
3400.387	358.4
3403.348	360.4
3406.307	348.4
3409.263	345.4
3412.217	349.4
3415.168	344.4
3418.118	336.4
3421.065	336.4
3424.009	313.4
3426.951	315.4
3429.891	312.4
3432.829	297.4
3435.764	295.4
3438.697	291.4
3441.628	281.4
3444.557	268.4
3447.483	258.4
3450.407	240.4
3453.328	245.4
3456.247	226.4
3459.164	215.4
3462.079	211.4
3464.991	205.4
3467.902	189.4
3470.809	189.4
3473.715	168.4
3476.618	161.4
3479.519	162.4
3482.418	152.4
3485.315	150.4
3488.209	143.4
3491.101	131.4
3493.99	133.4
3496.878	119.4
3499.763	110.4
3502.646	103.4
3505.527	101.4
3508.405	94.4
3511.281	88.4
3514.155	75.4
3517.027	71.4
3519.897	57.4
3522.764	56.4
3525.629	47.4
3528.492	31.4
3531.352	34.4
3534.211	28.4
3537.067	11.4
3539.921	16.4
3542.773	6.4
3545.622	-4.6
3548.469	-5.6
3551.315	-7.6
3554.157	-11.6
3556.998	-18.6
3559.837	-19.6
3562.673	-24.6
3565.507	-29.6
3568.339	-32.6
3571.169	-41.6
3573.996	-38.6
3576.822	-42.6
3579.645	-45.6
3582.466	-47.6
3585.285	-54.6
3588.101	-51.6
3590.916	-60.6
3593.728	-66.6
3596.538	-68.6
3599.346	-69.6
3602.152	-66.6
3604.956	-70.6
3607.757	-72.6
3610.556	-79.6
3613.354	-79.6
3616.149	-95.6
3618.942	-77.6
3621.732	-95.6
3624.521	-89.6
3627.307	-88.6
3630.092	-95.6
3632.874	-90.6
3635.654	-102.6
3638.432	-94.6
3641.208	-96.6
3643.982	-105.6
3646.753	-105.6
3649.523	-112.6
3652.29	-109.6
3655.055	-112.6
3657.818	-112.6
3660.579	-110.6
3663.338	-113.6
3666.095	-113.6
3668.849	-116.6
3671.602	-123.6
3674.352	-123.6
3677.101	-126.6
3679.847	-124.6
3682.591	-124.6
3685.333	-124.6
3688.073	-122.6
3690.811	-130.6
3693.547	-133.6
3696.281	-132.6
3699.013	-134.6
3701.742	-135.6
3704.47	-137.6
3707.195	-128.6
3709.919	-133.6
3712.64	-138.6
3715.359	-142.6
3718.076	-143.6
3720.792	-139.6
3723.505	-143.6
3726.216	-138.6
3728.925	-142.6
3731.632	-143.6
3734.336	-149.6
3737.039	-141.6
3739.74	-148.6
3742.439	-153.6
3745.136	-136.6
3747.83	-150.6
3750.523	-145.6
3753.213	-157.6
3755.902	-138.6
3758.589	-150.6
3761.273	-142.6
3763.956	-137.6
3766.636	-147.6
3769.315	-137.6
3771.991	-142.6
3774.665	-147.6
3777.338	-143.6
3780.008	-146.6
3782.677	-147.6
3785.343	-147.6
3788.007	-145.6
3790.67	-149.6
3793.33	-140.6
3795.989	-147.6
3798.645	-143.6
3801.299	-148.6
3803.952	-158.6
3806.602	-149.6
3809.251	-153.6
3811.897	-155.6
3814.542	-148.6
3817.184	-145.6
3819.825	-151.6
3822.463	-148.6
3825.1	-148.6
3827.735	-150.6
3830.367	-150.6
3832.998	-151.6
3835.627	-148.6
3838.253	-151.6
3840.878	-151.6
3843.501	-149.6
3846.122	-156.6
3848.741	-153.6
3851.358	-144.6
3853.973	-152.6
3856.586	-145.6
3859.197	-155.6
3861.806	-149.6
3864.414	-152.6
3867.019	-147.6
3869.622	-150.6
3872.224	-134.6
3874.823	-124.6
3877.421	-112.6
3880.016	-75.6
3882.61	-57.6
3885.202	-47.6
3887.792	-74.6
3890.38	-107.6
3892.966	-133.6
3895.55	-142.6
3898.132	-146.6
3900.713	-147.6
3903.291	-152.6
3905.868	-148.6
3908.442	-148.6
3911.015	-159.6
3913.586	-148.6
3916.155	-154.6
3918.722	-152.6
3921.287	-151.6
3923.85	-154.6
3926.411	-155.6
3928.971	-155.6
3931.528	-157.6
3934.084	-153.6
3936.638	-150.6
3939.19	-156.6
3941.74	-155.6
3944.288	-149.6
3946.834	-149.6
3949.378	-149.6
3951.921	-155.6
3954.462	-159.6
3957	-149.6
3959.537	-144.6
3962.072	-145.6
3964.606	-141.6
3967.137	-148.6
3969.667	-154.6
3972.194	-157.6
3974.72	-150.6
3977.244	-151.6
3979.766	-157.6
3982.286	-150.6
3984.805	-148.6
3987.321	-147.6
3989.836	-147.6
3992.349	-148.6
3994.86	-154.6
3997.369	-151.6
3999.877	-155.6
4002.382	-145.6
4004.886	-154.6
4007.388	-150.6
4009.888	-145.6
4012.386	-155.6
4014.883	-151.6
4017.377	-152.6
4019.87	-150.6
4022.361	-155.6
4024.85	-151.6
4027.338	-151.6
4029.823	-150.6
4032.307	-149.6
4034.789	-154.6
4037.269	-151.6
4039.747	-148.6
4042.224	-150.6
4044.699	-151.6
4047.172	-146.6
4049.643	-140.6
4052.112	-146.6
4054.58	-148.6
4057.046	-156.6
4059.51	-152.6
4061.972	-147.6
4064.432	-148.6
4066.891	-148.6
4069.348	-144.6
4071.803	-154.6
4074.256	-150.6
4076.708	-148.6
4079.158	-154.6
4081.606	-145.6
4084.052	-159.6
4086.497	-152.6
4088.939	-141.6
4091.38	-147.6
4093.819	-146.6
4096.257	-159.6
4098.693	-159.6
4101.127	-161.6
4103.559	-154.6
4105.989	19.4
4108.418	10.4
4110.845	17.4
4113.27	-0.6
4115.694	2.4
4118.115	1.4
4120.535	-151.6
4122.954	-155.6
4125.37	-147.6
4127.785	-154.6
4130.198	-151.6
4132.609	-149.6
4135.019	-153.6
4137.427	-156.6
4139.833	-157.6
4142.237	-160.6
