Data from 2018-2-8_conc=4_n=2_RamanShift_01.txt Node
Date: Mon Mar 12 15:11:58 IST 2018
User: aro
Spectrometer: QEPB0276
Trigger mode: 0
Integration Time (sec): 3.000000E1
Scans to average: 1
Electric dark correction enabled: true
Nonlinearity correction enabled: false
Boxcar width: 0
XAxis mode: Raman Shifts
Number of Pixels in Spectrum: 1044
>>>>>Begin Spectral Data<<<<<
160.701	27.4
166.742	47.4
172.777	111.4
178.805	336.4
184.826	907.4
190.841	1931.4
196.849	3198.4
202.85	4170.4
208.845	4552.4
214.833	4549.4
220.815	4483.4
226.789	4458.4
232.758	4460.4
238.719	4483.4
244.674	4425.4
250.623	4394.4
256.565	4320.4
262.5	4287.4
268.429	4199.4
274.351	4196.4
280.267	4164.4
286.176	4157.4
292.079	4121.4
297.975	4088.4
303.865	4111.4
309.748	4107.4
315.625	4087.4
321.495	4060.4
327.359	4090.4
333.217	4095.4
339.068	4069.4
344.912	4078.4
350.751	4083.4
356.583	4103.4
362.408	4116.4
368.227	4118.4
374.04	4135.4
379.847	4156.4
385.647	4168.4
391.44	4171.4
397.228	4227.4
403.009	4252.4
408.784	4251.4
414.553	4260.4
420.315	4302.4
426.071	4302.4
431.821	4289.4
437.565	4292.4
443.302	4282.4
449.033	4235.4
454.758	4233.4
460.477	4206.4
466.189	4187.4
471.896	4149.4
477.596	4139.4
483.29	4102.4
488.978	4131.4
494.66	4096.4
500.335	4008.4
506.005	3936.4
511.668	3779.4
517.325	3639.4
522.977	3561.4
528.622	3459.4
534.261	3394.4
539.894	3341.4
545.521	3309.4
551.141	3282.4
556.756	3269.4
562.365	3261.4
567.968	3223.4
573.565	3216.4
579.155	3173.4
584.74	3170.4
590.319	3170.4
595.892	3146.4
601.459	3152.4
607.02	3141.4
612.575	3114.4
618.124	3069.4
623.667	3041.4
629.204	3029.4
634.735	2994.4
640.261	2973.4
645.781	2962.4
651.294	2948.4
656.802	2941.4
662.304	2936.4
667.8	2915.4
673.29	2910.4
678.775	2915.4
684.254	2896.4
689.726	2888.4
695.193	2874.4
700.655	2870.4
706.11	2845.4
711.56	2852.4
717.004	2799.4
722.442	2796.4
727.874	2788.4
733.301	2803.4
738.722	2764.4
744.137	2752.4
749.547	2729.4
754.951	2749.4
760.349	2743.4
765.741	2762.4
771.128	2757.4
776.509	2781.4
781.885	2833.4
787.254	2816.4
792.618	2823.4
797.977	2830.4
803.33	2810.4
808.677	2774.4
814.019	2743.4
819.355	2729.4
824.686	2710.4
830.011	2705.4
835.33	2704.4
840.644	2678.4
845.952	2674.4
851.255	2675.4
856.552	2636.4
861.844	2637.4
867.13	2630.4
872.41	2603.4
877.686	2577.4
882.955	2559.4
888.219	2536.4
893.478	2508.4
898.731	2482.4
903.979	2431.4
909.221	2418.4
914.458	2417.4
919.69	2425.4
924.916	2407.4
930.136	2423.4
935.351	2408.4
940.561	2436.4
945.766	2406.4
950.965	2403.4
956.158	2384.4
961.347	2373.4
966.529	2349.4
971.707	2305.4
976.879	2253.4
982.046	2247.4
987.208	2243.4
992.364	2240.4
997.515	2240.4
1002.66	2278.4
1007.801	2285.4
1012.936	2291.4
1018.066	2318.4
1023.19	2311.4
1028.309	2317.4
1033.423	2301.4
1038.532	2294.4
1043.636	2299.4
1048.734	2267.4
1053.827	2244.4
1058.915	2217.4
1063.998	2205.4
1069.075	2206.4
1074.147	2180.4
1079.214	2189.4
1084.276	2207.4
1089.333	2220.4
1094.385	2231.4
1099.431	2206.4
1104.472	2231.4
1109.509	2202.4
1114.54	2171.4
1119.565	2141.4
1124.586	2085.4
1129.602	2087.4
1134.613	2072.4
1139.618	2060.4
1144.619	2067.4
1149.614	2030.4
1154.604	2068.4
1159.589	2060.4
1164.57	2083.4
1169.545	2058.4
1174.515	2076.4
1179.48	2070.4
1184.44	2035.4
1189.395	2044.4
1194.345	2014.4
1199.29	1994.4
1204.23	2000.4
1209.165	2016.4
1214.095	2019.4
1219.021	2031.4
1223.941	2035.4
1228.856	2058.4
1233.766	2052.4
1238.672	2047.4
1243.572	2052.4
1248.467	2030.4
1253.358	2012.4
1258.244	1993.4
1263.124	1965.4
1268	1916.4
1272.871	1902.4
1277.737	1886.4
1282.599	1876.4
1287.455	1873.4
1292.306	1878.4
1297.153	1866.4
1301.995	1911.4
1306.832	1915.4
1311.664	1918.4
1316.491	1924.4
1321.314	1908.4
1326.132	1903.4
1330.945	1887.4
1335.753	1840.4
1340.556	1824.4
1345.354	1803.4
1350.148	1783.4
1354.937	1742.4
1359.722	1711.4
1364.501	1710.4
1369.276	1671.4
1374.046	1645.4
1378.811	1635.4
1383.572	1616.4
1388.327	1606.4
1393.079	1614.4
1397.825	1597.4
1402.567	1616.4
1407.304	1612.4
1412.036	1613.4
1416.764	1620.4
1421.487	1613.4
1426.205	1612.4
1430.919	1617.4
1435.628	1633.4
1440.333	1644.4
1445.032	1654.4
1449.727	1679.4
1454.418	1676.4
1459.104	1671.4
1463.785	1659.4
1468.462	1643.4
1473.134	1598.4
1477.802	1555.4
1482.465	1524.4
1487.123	1491.4
1491.777	1502.4
1496.426	1493.4
1501.071	1470.4
1505.711	1452.4
1510.347	1467.4
1514.978	1445.4
1519.604	1463.4
1524.226	1454.4
1528.844	1443.4
1533.457	1417.4
1538.065	1435.4
1542.669	1422.4
1547.269	1424.4
1551.864	1416.4
1556.454	1418.4
1561.041	1466.4
1565.622	1450.4
1570.199	1461.4
1574.772	1470.4
1579.34	1486.4
1583.904	1502.4
1588.464	1508.4
1593.019	1527.4
1597.569	1521.4
1602.115	1527.4
1606.657	1512.4
1611.195	1519.4
1615.728	1509.4
1620.256	1522.4
1624.78	1514.4
1629.3	1497.4
1633.816	1510.4
1638.327	1531.4
1642.834	1531.4
1647.336	1527.4
1651.834	1535.4
1656.328	1562.4
1660.817	1536.4
1665.302	1516.4
1669.783	1496.4
1674.259	1456.4
1678.732	1428.4
1683.199	1394.4
1687.663	1346.4
1692.122	1306.4
1696.577	1269.4
1701.028	1223.4
1705.474	1177.4
1709.917	1131.4
1714.355	1112.4
1718.788	1102.4
1723.218	1092.4
1727.643	1096.4
1732.064	1076.4
1736.481	1064.4
1740.893	1057.4
1745.301	1043.4
1749.705	1010.4
1754.105	999.4
1758.501	976.4
1762.893	968.4
1767.28	963.4
1771.663	949.4
1776.042	947.4
1780.417	950.4
1784.787	934.4
1789.154	924.4
1793.516	917.4
1797.874	901.4
1802.228	890.4
1806.578	894.4
1810.924	874.4
1815.266	870.4
1819.603	873.4
1823.937	858.4
1828.266	853.4
1832.591	845.4
1836.913	864.4
1841.23	863.4
1845.543	845.4
1849.852	839.4
1854.156	857.4
1858.457	844.4
1862.754	858.4
1867.047	842.4
1871.335	845.4
1875.62	839.4
1879.9	838.4
1884.177	857.4
1888.449	834.4
1892.718	827.4
1896.982	820.4
1901.243	819.4
1905.499	810.4
1909.752	806.4
1914	787.4
1918.245	764.4
1922.485	764.4
1926.722	764.4
1930.954	769.4
1935.183	759.4
1939.408	760.4
1943.628	739.4
1947.845	751.4
1952.058	746.4
1956.267	734.4
1960.472	731.4
1964.673	712.4
1968.87	700.4
1973.063	697.4
1977.252	689.4
1981.438	706.4
1985.619	695.4
1989.797	689.4
1993.971	698.4
1998.14	692.4
2002.306	692.4
2006.469	694.4
2010.627	689.4
2014.781	701.4
2018.932	686.4
2023.078	706.4
2027.221	683.4
2031.36	688.4
2035.495	667.4
2039.627	659.4
2043.754	657.4
2047.878	631.4
2051.998	652.4
2056.114	642.4
2060.226	646.4
2064.334	644.4
2068.439	647.4
2072.54	638.4
2076.637	636.4
2080.73	646.4
2084.82	639.4
2088.906	630.4
2092.988	608.4
2097.066	626.4
2101.14	602.4
2105.211	600.4
2109.278	590.4
2113.342	586.4
2117.401	575.4
2121.457	574.4
2125.509	563.4
2129.558	570.4
2133.602	573.4
2137.643	567.4
2141.681	565.4
2145.714	561.4
2149.744	571.4
2153.77	555.4
2157.793	555.4
2161.812	560.4
2165.827	552.4
2169.838	545.4
2173.846	535.4
2177.851	523.4
2181.851	523.4
2185.848	516.4
2189.841	519.4
2193.831	500.4
2197.817	500.4
2201.799	488.4
2205.778	493.4
2209.753	484.4
2213.725	480.4
2217.693	491.4
2221.657	490.4
2225.618	479.4
2229.575	484.4
2233.529	481.4
2237.479	479.4
2241.425	463.4
2245.368	456.4
2249.307	452.4
2253.243	452.4
2257.175	445.4
2261.104	441.4
2265.029	429.4
2268.95	431.4
2272.868	417.4
2276.783	412.4
2280.694	407.4
2284.601	401.4
2288.505	397.4
2292.405	397.4
2296.302	387.4
2300.195	386.4
2304.085	377.4
2307.971	367.4
2311.854	373.4
2315.734	352.4
2319.609	356.4
2323.482	352.4
2327.351	359.4
2331.216	355.4
2335.078	381.4
2338.937	344.4
2342.792	342.4
2346.643	339.4
2350.492	338.4
2354.336	334.4
2358.178	337.4
2362.015	331.4
2365.85	340.4
2369.681	338.4
2373.508	334.4
2377.333	336.4
2381.153	335.4
2384.971	346.4
2388.785	337.4
2392.595	340.4
2396.402	323.4
2400.206	329.4
2404.007	326.4
2407.804	329.4
2411.597	319.4
2415.388	306.4
2419.174	309.4
2422.958	304.4
2426.738	312.4
2430.515	311.4
2434.289	310.4
2438.059	297.4
2441.825	293.4
2445.589	288.4
2449.349	284.4
2453.106	289.4
2456.859	288.4
2460.61	288.4
2464.356	274.4
2468.1	267.4
2471.84	273.4
2475.577	263.4
2479.311	259.4
2483.041	261.4
2486.768	264.4
2490.492	258.4
2494.213	268.4
2497.93	262.4
2501.644	250.4
2505.355	255.4
2509.062	252.4
2512.766	243.4
2516.467	248.4
2520.165	240.4
2523.859	251.4
2527.551	248.4
2531.239	236.4
2534.923	227.4
2538.605	226.4
2542.283	220.4
2545.958	216.4
2549.63	229.4
2553.299	220.4
2556.964	220.4
2560.626	221.4
2564.285	209.4
2567.941	208.4
2571.594	214.4
2575.243	203.4
2578.89	191.4
2582.533	196.4
2586.173	198.4
2589.809	195.4
2593.443	193.4
2597.073	191.4
2600.701	192.4
2604.325	180.4
2607.946	184.4
2611.564	178.4
2615.178	185.4
2618.79	182.4
2622.398	183.4
2626.004	169.4
2629.606	176.4
2633.205	170.4
2636.801	165.4
2640.394	164.4
2643.983	164.4
2647.57	170.4
2651.153	167.4
2654.734	164.4
2658.311	160.4
2661.885	154.4
2665.456	154.4
2669.025	154.4
2672.589	156.4
2676.151	153.4
2679.71	155.4
2683.266	147.4
2686.819	146.4
2690.368	140.4
2693.915	135.4
2697.458	134.4
2700.999	132.4
2704.536	128.4
2708.071	130.4
2711.602	131.4
2715.13	123.4
2718.656	119.4
2722.178	125.4
2725.697	117.4
2729.214	113.4
2732.727	122.4
2736.237	126.4
2739.744	118.4
2743.249	119.4
2746.75	116.4
2750.248	108.4
2753.743	104.4
2757.236	101.4
2760.725	106.4
2764.211	102.4
2767.695	96.4
2771.175	88.4
2774.652	91.4
2778.127	90.4
2781.598	88.4
2785.067	94.4
2788.532	86.4
2791.995	97.4
2795.455	89.4
2798.911	89.4
2802.365	103.4
2805.816	102.4
2809.264	96.4
2812.709	103.4
2816.151	101.4
2819.59	108.4
2823.026	92.4
2826.46	92.4
2829.89	100.4
2833.318	87.4
2836.742	102.4
2840.164	95.4
2843.583	100.4
2846.999	105.4
2850.412	101.4
2853.822	97.4
2857.229	101.4
2860.634	114.4
2864.035	117.4
2867.434	105.4
2870.83	122.4
2874.223	133.4
2877.613	127.4
2881	146.4
2884.385	145.4
2887.766	128.4
2891.145	125.4
2894.521	138.4
2897.894	138.4
2901.264	136.4
2904.631	144.4
2907.996	139.4
2911.358	137.4
2914.717	141.4
2918.073	149.4
2921.426	149.4
2924.777	150.4
2928.124	157.4
2931.469	162.4
2934.811	173.4
2938.15	164.4
2941.487	174.4
2944.821	170.4
2948.152	170.4
2951.48	170.4
2954.805	189.4
2958.128	169.4
2961.447	173.4
2964.765	169.4
2968.079	166.4
2971.39	170.4
2974.699	175.4
2978.005	172.4
2981.308	171.4
2984.609	179.4
2987.907	171.4
2991.202	186.4
2994.494	179.4
2997.784	179.4
3001.07	189.4
3004.355	191.4
3007.636	193.4
3010.915	191.4
3014.191	198.4
3017.464	207.4
3020.734	193.4
3024.002	194.4
3027.267	210.4
3030.53	204.4
3033.789	224.4
3037.046	228.4
3040.301	221.4
3043.552	246.4
3046.801	254.4
3050.048	247.4
3053.291	254.4
3056.532	266.4
3059.771	270.4
3063.006	279.4
3066.239	300.4
3069.469	307.4
3072.697	306.4
3075.922	324.4
3079.144	325.4
3082.364	333.4
3085.581	345.4
3088.795	357.4
3092.007	352.4
3095.216	360.4
3098.423	380.4
3101.627	392.4
3104.828	382.4
3108.026	401.4
3111.222	400.4
3114.416	414.4
3117.607	426.4
3120.795	431.4
3123.98	443.4
3127.163	460.4
3130.344	470.4
3133.521	462.4
3136.696	485.4
3139.869	494.4
3143.039	507.4
3146.206	513.4
3149.371	521.4
3152.533	527.4
3155.693	539.4
3158.85	529.4
3162.005	546.4
3165.157	555.4
3168.306	551.4
3171.453	540.4
3174.597	547.4
3177.739	558.4
3180.878	555.4
3184.014	569.4
3187.149	554.4
3190.28	563.4
3193.409	573.4
3196.536	564.4
3199.659	571.4
3202.781	575.4
3205.9	579.4
3209.016	573.4
3212.13	575.4
3215.241	555.4
3218.35	573.4
3221.456	562.4
3224.56	557.4
3227.661	543.4
3230.76	538.4
3233.856	541.4
3236.95	519.4
3240.041	515.4
3243.13	503.4
3246.216	512.4
3249.3	481.4
3252.382	499.4
3255.46	481.4
3258.537	484.4
3261.611	483.4
3264.682	473.4
3267.751	471.4
3270.818	468.4
3273.882	461.4
3276.943	459.4
3280.002	465.4
3283.059	464.4
3286.113	441.4
3289.165	451.4
3292.214	437.4
3295.261	436.4
3298.306	432.4
3301.348	428.4
3304.387	420.4
3307.425	400.4
3310.459	405.4
3313.492	399.4
3316.521	397.4
3319.549	399.4
3322.574	393.4
3325.597	387.4
3328.617	392.4
3331.635	388.4
3334.65	386.4
3337.663	382.4
3340.674	389.4
3343.682	382.4
3346.688	380.4
3349.691	375.4
3352.692	371.4
3355.691	374.4
3358.687	373.4
3361.681	370.4
3364.673	360.4
3367.662	350.4
3370.649	346.4
3373.633	341.4
3376.615	328.4
3379.595	333.4
3382.572	313.4
3385.547	324.4
3388.52	329.4
3391.49	311.4
3394.458	308.4
3397.424	296.4
3400.387	294.4
3403.348	292.4
3406.307	295.4
3409.263	284.4
3412.217	288.4
3415.168	280.4
3418.118	273.4
3421.065	268.4
3424.009	263.4
3426.951	264.4
3429.891	257.4
3432.829	250.4
3435.764	242.4
3438.697	233.4
3441.628	233.4
3444.557	223.4
3447.483	216.4
3450.407	199.4
3453.328	193.4
3456.247	187.4
3459.164	171.4
3462.079	168.4
3464.991	173.4
3467.902	160.4
3470.809	159.4
3473.715	143.4
3476.618	134.4
3479.519	137.4
3482.418	135.4
3485.315	118.4
3488.209	104.4
3491.101	111.4
3493.99	114.4
3496.878	103.4
3499.763	100.4
3502.646	88.4
3505.527	77.4
3508.405	82.4
3511.281	72.4
3514.155	69.4
3517.027	65.4
3519.897	57.4
3522.764	50.4
3525.629	36.4
3528.492	35.4
3531.352	31.4
3534.211	31.4
3537.067	22.4
3539.921	20.4
3542.773	15.4
3545.622	6.4
3548.469	0.4
3551.315	-0.6
3554.157	-8.6
3556.998	-14.6
3559.837	-8.6
3562.673	-12.6
3565.507	-15.6
3568.339	-25.6
3571.169	-39.6
3573.996	-27.6
3576.822	-31.6
3579.645	-31.6
3582.466	-33.6
3585.285	-40.6
3588.101	-31.6
3590.916	-49.6
3593.728	-55.6
3596.538	-45.6
3599.346	-54.6
3602.152	-51.6
3604.956	-54.6
3607.757	-50.6
3610.556	-64.6
3613.354	-60.6
3616.149	-71.6
3618.942	-73.6
3621.732	-66.6
3624.521	-68.6
3627.307	-69.6
3630.092	-69.6
3632.874	-71.6
3635.654	-78.6
3638.432	-78.6
3641.208	-80.6
3643.982	-79.6
3646.753	-82.6
3649.523	-80.6
3652.29	-81.6
3655.055	-87.6
3657.818	-87.6
3660.579	-89.6
3663.338	-91.6
3666.095	-93.6
3668.849	-89.6
3671.602	-94.6
3674.352	-94.6
3677.101	-98.6
3679.847	-99.6
3682.591	-102.6
3685.333	-98.6
3688.073	-104.6
3690.811	-104.6
3693.547	-110.6
3696.281	-103.6
3699.013	-107.6
3701.742	-110.6
3704.47	-111.6
3707.195	-103.6
3709.919	-110.6
3712.64	-111.6
3715.359	-116.6
3718.076	-108.6
3720.792	-116.6
3723.505	-115.6
3726.216	-112.6
3728.925	-115.6
3731.632	-112.6
3734.336	-121.6
3737.039	-112.6
3739.74	-121.6
3742.439	-122.6
3745.136	-109.6
3747.83	-123.6
3750.523	-120.6
3753.213	-111.6
3755.902	-112.6
3758.589	-121.6
3761.273	-114.6
3763.956	-115.6
3766.636	-112.6
3769.315	-114.6
3771.991	-119.6
3774.665	-121.6
3777.338	-114.6
3780.008	-117.6
3782.677	-122.6
3785.343	-116.6
3788.007	-121.6
3790.67	-121.6
3793.33	-115.6
3795.989	-123.6
3798.645	-115.6
3801.299	-120.6
3803.952	-123.6
3806.602	-115.6
3809.251	-123.6
3811.897	-128.6
3814.542	-122.6
3817.184	-117.6
3819.825	-118.6
3822.463	-120.6
3825.1	-119.6
3827.735	-118.6
3830.367	-123.6
3832.998	-122.6
3835.627	-121.6
3838.253	-118.6
3840.878	-123.6
3843.501	-118.6
3846.122	-121.6
3848.741	-125.6
3851.358	-113.6
3853.973	-127.6
3856.586	-121.6
3859.197	-128.6
3861.806	-121.6
3864.414	-125.6
3867.019	-121.6
3869.622	-121.6
3872.224	-107.6
3874.823	-103.6
3877.421	-90.6
3880.016	-67.6
3882.61	-48.6
3885.202	-46.6
3887.792	-56.6
3890.38	-88.6
3892.966	-110.6
3895.55	-115.6
3898.132	-120.6
3900.713	-123.6
3903.291	-126.6
3905.868	-125.6
3908.442	-117.6
3911.015	-123.6
3913.586	-126.6
3916.155	-127.6
3918.722	-126.6
3921.287	-123.6
3923.85	-124.6
3926.411	-127.6
3928.971	-124.6
3931.528	-124.6
3934.084	-121.6
3936.638	-122.6
3939.19	-127.6
3941.74	-124.6
3944.288	-127.6
3946.834	-122.6
3949.378	-124.6
3951.921	-122.6
3954.462	-133.6
3957	-124.6
3959.537	-118.6
3962.072	-123.6
3964.606	-119.6
3967.137	-124.6
3969.667	-124.6
3972.194	-131.6
3974.72	-123.6
3977.244	-125.6
3979.766	-128.6
3982.286	-120.6
3984.805	-123.6
3987.321	-122.6
3989.836	-115.6
3992.349	-126.6
3994.86	-123.6
3997.369	-119.6
3999.877	-122.6
4002.382	-117.6
4004.886	-125.6
4007.388	-121.6
4009.888	-118.6
4012.386	-122.6
4014.883	-120.6
4017.377	-123.6
4019.87	-119.6
4022.361	-126.6
4024.85	-122.6
4027.338	-123.6
4029.823	-119.6
4032.307	-121.6
4034.789	-125.6
4037.269	-126.6
4039.747	-114.6
4042.224	-117.6
4044.699	-124.6
4047.172	-124.6
4049.643	-118.6
4052.112	-124.6
4054.58	-124.6
4057.046	-121.6
4059.51	-126.6
4061.972	-123.6
4064.432	-118.6
4066.891	-121.6
4069.348	-121.6
4071.803	-130.6
4074.256	-127.6
4076.708	-123.6
4079.158	-118.6
4081.606	-117.6
4084.052	-122.6
4086.497	-120.6
4088.939	-119.6
4091.38	-125.6
4093.819	-127.6
4096.257	-127.6
4098.693	-125.6
4101.127	-124.6
4103.559	-125.6
4105.989	19.4
4108.418	15.4
4110.845	9.4
4113.27	7.4
4115.694	4.4
4118.115	3.4
4120.535	-120.6
4122.954	-125.6
4125.37	-120.6
4127.785	-119.6
4130.198	-121.6
4132.609	-121.6
4135.019	-130.6
4137.427	-130.6
4139.833	-130.6
4142.237	-130.6
