Data from 2018-2-8_conc=5_n=3_RamanShift_05.txt Node
Date: Mon Mar 12 15:58:58 IST 2018
User: aro
Spectrometer: QEPB0276
Trigger mode: 0
Integration Time (sec): 3.000000E1
Scans to average: 1
Electric dark correction enabled: true
Nonlinearity correction enabled: false
Boxcar width: 0
XAxis mode: Raman Shifts
Number of Pixels in Spectrum: 1044
>>>>>Begin Spectral Data<<<<<
160.701	25.6
166.742	45.6
172.777	122.6
178.805	351.6
184.826	958.6
190.841	2043.6
196.849	3391.6
202.85	4455.6
208.845	4843.6
214.833	4851.6
220.815	4816.6
226.789	4780.6
232.758	4753.6
238.719	4770.6
244.674	4749.6
250.623	4680.6
256.565	4625.6
262.5	4580.6
268.429	4531.6
274.351	4469.6
280.267	4467.6
286.176	4455.6
292.079	4423.6
297.975	4395.6
303.865	4374.6
309.748	4384.6
315.625	4366.6
321.495	4388.6
327.359	4341.6
333.217	4375.6
339.068	4369.6
344.912	4387.6
350.751	4394.6
356.583	4383.6
362.408	4409.6
368.227	4421.6
374.04	4420.6
379.847	4422.6
385.647	4479.6
391.44	4453.6
397.228	4485.6
403.009	4518.6
408.784	4528.6
414.553	4575.6
420.315	4550.6
426.071	4563.6
431.821	4608.6
437.565	4573.6
443.302	4538.6
449.033	4526.6
454.758	4505.6
460.477	4484.6
466.189	4481.6
471.896	4445.6
477.596	4405.6
483.29	4386.6
488.978	4404.6
494.66	4390.6
500.335	4294.6
506.005	4199.6
511.668	4023.6
517.325	3933.6
522.977	3814.6
528.622	3752.6
534.261	3682.6
539.894	3633.6
545.521	3614.6
551.141	3560.6
556.756	3559.6
562.365	3538.6
567.968	3507.6
573.565	3465.6
579.155	3450.6
584.74	3462.6
590.319	3440.6
595.892	3415.6
601.459	3400.6
607.02	3413.6
612.575	3387.6
618.124	3360.6
623.667	3295.6
629.204	3272.6
634.735	3272.6
640.261	3218.6
645.781	3215.6
651.294	3216.6
656.802	3217.6
662.304	3199.6
667.8	3189.6
673.29	3171.6
678.775	3165.6
684.254	3155.6
689.726	3152.6
695.193	3144.6
700.655	3114.6
706.11	3116.6
711.56	3083.6
717.004	3055.6
722.442	3056.6
727.874	3020.6
733.301	3031.6
738.722	3002.6
744.137	3017.6
749.547	2994.6
754.951	3000.6
760.349	2996.6
765.741	3013.6
771.128	3023.6
776.509	3046.6
781.885	3074.6
787.254	3067.6
792.618	3082.6
797.977	3072.6
803.33	3040.6
808.677	3016.6
814.019	2995.6
819.355	2975.6
824.686	2980.6
830.011	2953.6
835.33	2925.6
840.644	2926.6
845.952	2918.6
851.255	2903.6
856.552	2898.6
861.844	2884.6
867.13	2874.6
872.41	2848.6
877.686	2845.6
882.955	2796.6
888.219	2773.6
893.478	2729.6
898.731	2715.6
903.979	2666.6
909.221	2663.6
914.458	2632.6
919.69	2639.6
924.916	2660.6
930.136	2645.6
935.351	2644.6
940.561	2665.6
945.766	2638.6
950.965	2646.6
956.158	2642.6
961.347	2604.6
966.529	2561.6
971.707	2515.6
976.879	2499.6
982.046	2452.6
987.208	2452.6
992.364	2454.6
997.515	2478.6
1002.66	2492.6
1007.801	2534.6
1012.936	2526.6
1018.066	2525.6
1023.19	2541.6
1028.309	2521.6
1033.423	2536.6
1038.532	2534.6
1043.636	2499.6
1048.734	2473.6
1053.827	2475.6
1058.915	2405.6
1063.998	2387.6
1069.075	2388.6
1074.147	2398.6
1079.214	2418.6
1084.276	2399.6
1089.333	2433.6
1094.385	2426.6
1099.431	2413.6
1104.472	2439.6
1109.509	2408.6
1114.54	2372.6
1119.565	2360.6
1124.586	2306.6
1129.602	2286.6
1134.613	2290.6
1139.618	2264.6
1144.619	2261.6
1149.614	2252.6
1154.604	2257.6
1159.589	2263.6
1164.57	2277.6
1169.545	2279.6
1174.515	2281.6
1179.48	2270.6
1184.44	2246.6
1189.395	2217.6
1194.345	2204.6
1199.29	2190.6
1204.23	2214.6
1209.165	2196.6
1214.095	2228.6
1219.021	2227.6
1223.941	2229.6
1228.856	2231.6
1233.766	2246.6
1238.672	2253.6
1243.572	2257.6
1248.467	2233.6
1253.358	2219.6
1258.244	2184.6
1263.124	2128.6
1268	2087.6
1272.871	2093.6
1277.737	2075.6
1282.599	2035.6
1287.455	2055.6
1292.306	2057.6
1297.153	2068.6
1301.995	2077.6
1306.832	2079.6
1311.664	2115.6
1316.491	2097.6
1321.314	2120.6
1326.132	2108.6
1330.945	2080.6
1335.753	2046.6
1340.556	1989.6
1345.354	1980.6
1350.148	1947.6
1354.937	1920.6
1359.722	1880.6
1364.501	1855.6
1369.276	1816.6
1374.046	1780.6
1378.811	1754.6
1383.572	1737.6
1388.327	1756.6
1393.079	1743.6
1397.825	1749.6
1402.567	1747.6
1407.304	1763.6
1412.036	1776.6
1416.764	1772.6
1421.487	1779.6
1426.205	1757.6
1430.919	1769.6
1435.628	1791.6
1440.333	1820.6
1445.032	1825.6
1449.727	1838.6
1454.418	1825.6
1459.104	1829.6
1463.785	1793.6
1468.462	1779.6
1473.134	1747.6
1477.802	1709.6
1482.465	1693.6
1487.123	1649.6
1491.777	1613.6
1496.426	1613.6
1501.071	1601.6
1505.711	1583.6
1510.347	1590.6
1514.978	1571.6
1519.604	1593.6
1524.226	1580.6
1528.844	1557.6
1533.457	1544.6
1538.065	1552.6
1542.669	1543.6
1547.269	1537.6
1551.864	1553.6
1556.454	1562.6
1561.041	1580.6
1565.622	1588.6
1570.199	1548.6
1574.772	1594.6
1579.34	1616.6
1583.904	1631.6
1588.464	1655.6
1593.019	1664.6
1597.569	1640.6
1602.115	1667.6
1606.657	1645.6
1611.195	1654.6
1615.728	1631.6
1620.256	1651.6
1624.78	1638.6
1629.3	1640.6
1633.816	1636.6
1638.327	1666.6
1642.834	1648.6
1647.336	1657.6
1651.834	1673.6
1656.328	1658.6
1660.817	1646.6
1665.302	1656.6
1669.783	1616.6
1674.259	1601.6
1678.732	1559.6
1683.199	1517.6
1687.663	1465.6
1692.122	1421.6
1696.577	1369.6
1701.028	1298.6
1705.474	1258.6
1709.917	1194.6
1714.355	1189.6
1718.788	1176.6
1723.218	1180.6
1727.643	1179.6
1732.064	1186.6
1736.481	1177.6
1740.893	1155.6
1745.301	1124.6
1749.705	1105.6
1754.105	1081.6
1758.501	1050.6
1762.893	1037.6
1767.28	1042.6
1771.663	1030.6
1776.042	1016.6
1780.417	1009.6
1784.787	997.6
1789.154	971.6
1793.516	989.6
1797.874	961.6
1802.228	953.6
1806.578	956.6
1810.924	922.6
1815.266	928.6
1819.603	925.6
1823.937	918.6
1828.266	908.6
1832.591	918.6
1836.913	910.6
1841.23	903.6
1845.543	921.6
1849.852	929.6
1854.156	919.6
1858.457	920.6
1862.754	916.6
1867.047	917.6
1871.335	924.6
1875.62	927.6
1879.9	924.6
1884.177	908.6
1888.449	907.6
1892.718	900.6
1896.982	878.6
1901.243	869.6
1905.499	865.6
1909.752	844.6
1914	844.6
1918.245	830.6
1922.485	811.6
1926.722	804.6
1930.954	815.6
1935.183	804.6
1939.408	800.6
1943.628	803.6
1947.845	783.6
1952.058	775.6
1956.267	786.6
1960.472	763.6
1964.673	763.6
1968.87	756.6
1973.063	743.6
1977.252	735.6
1981.438	750.6
1985.619	735.6
1989.797	729.6
1993.971	744.6
1998.14	748.6
2002.306	739.6
2006.469	767.6
2010.627	753.6
2014.781	758.6
2018.932	757.6
2023.078	756.6
2027.221	730.6
2031.36	734.6
2035.495	726.6
2039.627	715.6
2043.754	695.6
2047.878	690.6
2051.998	699.6
2056.114	690.6
2060.226	689.6
2064.334	679.6
2068.439	688.6
2072.54	683.6
2076.637	685.6
2080.73	673.6
2084.82	666.6
2088.906	671.6
2092.988	655.6
2097.066	663.6
2101.14	643.6
2105.211	644.6
2109.278	628.6
2113.342	627.6
2117.401	617.6
2121.457	618.6
2125.509	609.6
2129.558	613.6
2133.602	607.6
2137.643	606.6
2141.681	606.6
2145.714	603.6
2149.744	600.6
2153.77	601.6
2157.793	595.6
2161.812	603.6
2165.827	585.6
2169.838	579.6
2173.846	568.6
2177.851	563.6
2181.851	558.6
2185.848	543.6
2189.841	555.6
2193.831	544.6
2197.817	544.6
2201.799	531.6
2205.778	527.6
2209.753	535.6
2213.725	532.6
2217.693	536.6
2221.657	521.6
2225.618	533.6
2229.575	525.6
2233.529	528.6
2237.479	523.6
2241.425	516.6
2245.368	505.6
2249.307	495.6
2253.243	485.6
2257.175	483.6
2261.104	482.6
2265.029	473.6
2268.95	464.6
2272.868	456.6
2276.783	453.6
2280.694	444.6
2284.601	438.6
2288.505	442.6
2292.405	428.6
2296.302	420.6
2300.195	423.6
2304.085	409.6
2307.971	400.6
2311.854	403.6
2315.734	388.6
2319.609	388.6
2323.482	388.6
2327.351	407.6
2331.216	403.6
2335.078	416.6
2338.937	399.6
2342.792	386.6
2346.643	376.6
2350.492	382.6
2354.336	369.6
2358.178	367.6
2362.015	376.6
2365.85	380.6
2369.681	383.6
2373.508	388.6
2377.333	386.6
2381.153	379.6
2384.971	387.6
2388.785	384.6
2392.595	375.6
2396.402	363.6
2400.206	369.6
2404.007	372.6
2407.804	371.6
2411.597	362.6
2415.388	361.6
2419.174	352.6
2422.958	348.6
2426.738	365.6
2430.515	350.6
2434.289	364.6
2438.059	342.6
2441.825	342.6
2445.589	338.6
2449.349	324.6
2453.106	334.6
2456.859	323.6
2460.61	333.6
2464.356	314.6
2468.1	310.6
2471.84	313.6
2475.577	316.6
2479.311	303.6
2483.041	300.6
2486.768	314.6
2490.492	296.6
2494.213	316.6
2497.93	301.6
2501.644	292.6
2505.355	290.6
2509.062	292.6
2512.766	290.6
2516.467	275.6
2520.165	286.6
2523.859	271.6
2527.551	283.6
2531.239	268.6
2534.923	259.6
2538.605	263.6
2542.283	265.6
2545.958	260.6
2549.63	259.6
2553.299	249.6
2556.964	255.6
2560.626	236.6
2564.285	243.6
2567.941	240.6
2571.594	251.6
2575.243	240.6
2578.89	237.6
2582.533	228.6
2586.173	221.6
2589.809	220.6
2593.443	231.6
2597.073	225.6
2600.701	214.6
2604.325	218.6
2607.946	210.6
2611.564	208.6
2615.178	213.6
2618.79	209.6
2622.398	215.6
2626.004	202.6
2629.606	205.6
2633.205	198.6
2636.801	200.6
2640.394	199.6
2643.983	198.6
2647.57	192.6
2651.153	189.6
2654.734	190.6
2658.311	184.6
2661.885	183.6
2665.456	183.6
2669.025	180.6
2672.589	181.6
2676.151	180.6
2679.71	181.6
2683.266	169.6
2686.819	163.6
2690.368	166.6
2693.915	162.6
2697.458	156.6
2700.999	159.6
2704.536	156.6
2708.071	159.6
2711.602	153.6
2715.13	151.6
2718.656	146.6
2722.178	150.6
2725.697	144.6
2729.214	134.6
2732.727	140.6
2736.237	146.6
2739.744	134.6
2743.249	133.6
2746.75	133.6
2750.248	125.6
2753.743	121.6
2757.236	123.6
2760.725	124.6
2764.211	116.6
2767.695	117.6
2771.175	107.6
2774.652	102.6
2778.127	107.6
2781.598	108.6
2785.067	115.6
2788.532	104.6
2791.995	111.6
2795.455	110.6
2798.911	111.6
2802.365	120.6
2805.816	116.6
2809.264	109.6
2812.709	121.6
2816.151	116.6
2819.59	114.6
2823.026	111.6
2826.46	116.6
2829.89	108.6
2833.318	106.6
2836.742	114.6
2840.164	108.6
2843.583	112.6
2846.999	115.6
2850.412	125.6
2853.822	124.6
2857.229	113.6
2860.634	121.6
2864.035	126.6
2867.434	132.6
2870.83	127.6
2874.223	138.6
2877.613	155.6
2881	155.6
2884.385	153.6
2887.766	148.6
2891.145	137.6
2894.521	143.6
2897.894	149.6
2901.264	157.6
2904.631	151.6
2907.996	161.6
2911.358	151.6
2914.717	152.6
2918.073	154.6
2921.426	167.6
2924.777	166.6
2928.124	179.6
2931.469	175.6
2934.811	174.6
2938.15	178.6
2941.487	186.6
2944.821	189.6
2948.152	193.6
2951.48	189.6
2954.805	190.6
2958.128	192.6
2961.447	179.6
2964.765	187.6
2968.079	180.6
2971.39	188.6
2974.699	181.6
2978.005	185.6
2981.308	182.6
2984.609	185.6
2987.907	179.6
2991.202	191.6
2994.494	194.6
2997.784	200.6
3001.07	198.6
3004.355	216.6
3007.636	210.6
3010.915	207.6
3014.191	211.6
3017.464	223.6
3020.734	214.6
3024.002	211.6
3027.267	226.6
3030.53	224.6
3033.789	227.6
3037.046	239.6
3040.301	241.6
3043.552	259.6
3046.801	256.6
3050.048	263.6
3053.291	269.6
3056.532	271.6
3059.771	294.6
3063.006	299.6
3066.239	311.6
3069.469	319.6
3072.697	329.6
3075.922	340.6
3079.144	352.6
3082.364	366.6
3085.581	364.6
3088.795	368.6
3092.007	374.6
3095.216	389.6
3098.423	391.6
3101.627	412.6
3104.828	409.6
3108.026	413.6
3111.222	421.6
3114.416	436.6
3117.607	448.6
3120.795	462.6
3123.98	457.6
3127.163	471.6
3130.344	483.6
3133.521	492.6
3136.696	518.6
3139.869	526.6
3143.039	532.6
3146.206	525.6
3149.371	543.6
3152.533	555.6
3155.693	547.6
3158.85	558.6
3162.005	555.6
3165.157	558.6
3168.306	567.6
3171.453	553.6
3174.597	582.6
3177.739	580.6
3180.878	578.6
3184.014	598.6
3187.149	595.6
3190.28	590.6
3193.409	581.6
3196.536	591.6
3199.659	599.6
3202.781	597.6
3205.9	601.6
3209.016	597.6
3212.13	587.6
3215.241	590.6
3218.35	587.6
3221.456	573.6
3224.56	563.6
3227.661	549.6
3230.76	555.6
3233.856	550.6
3236.95	530.6
3240.041	534.6
3243.13	515.6
3246.216	523.6
3249.3	502.6
3252.382	508.6
3255.46	491.6
3258.537	492.6
3261.611	483.6
3264.682	470.6
3267.751	474.6
3270.818	479.6
3273.882	471.6
3276.943	465.6
3280.002	465.6
3283.059	469.6
3286.113	469.6
3289.165	449.6
3292.214	469.6
3295.261	433.6
3298.306	440.6
3301.348	437.6
3304.387	407.6
3307.425	424.6
3310.459	416.6
3313.492	419.6
3316.521	407.6
3319.549	406.6
3322.574	407.6
3325.597	394.6
3328.617	410.6
3331.635	399.6
3334.65	398.6
3337.663	384.6
3340.674	395.6
3343.682	394.6
3346.688	389.6
3349.691	396.6
3352.692	380.6
3355.691	379.6
3358.687	374.6
3361.681	386.6
3364.673	386.6
3367.662	361.6
3370.649	366.6
3373.633	348.6
3376.615	339.6
3379.595	339.6
3382.572	344.6
3385.547	332.6
3388.52	339.6
3391.49	330.6
3394.458	318.6
3397.424	311.6
3400.387	305.6
3403.348	304.6
3406.307	299.6
3409.263	297.6
3412.217	299.6
3415.168	295.6
3418.118	288.6
3421.065	273.6
3424.009	277.6
3426.951	277.6
3429.891	257.6
3432.829	255.6
3435.764	258.6
3438.697	237.6
3441.628	231.6
3444.557	224.6
3447.483	223.6
3450.407	211.6
3453.328	198.6
3456.247	198.6
3459.164	186.6
3462.079	176.6
3464.991	163.6
3467.902	155.6
3470.809	159.6
3473.715	147.6
3476.618	143.6
3479.519	133.6
3482.418	126.6
3485.315	119.6
3488.209	113.6
3491.101	112.6
3493.99	113.6
3496.878	98.6
3499.763	96.6
3502.646	85.6
3505.527	81.6
3508.405	70.6
3511.281	67.6
3514.155	60.6
3517.027	60.6
3519.897	44.6
3522.764	46.6
3525.629	32.6
3528.492	33.6
3531.352	26.6
3534.211	21.6
3537.067	12.6
3539.921	20.6
3542.773	7.6
3545.622	3.6
3548.469	-1.4
3551.315	-0.4
3554.157	-13.4
3556.998	-27.4
3559.837	-15.4
3562.673	-21.4
3565.507	-20.4
3568.339	-30.4
3571.169	-39.4
3573.996	-34.4
3576.822	-37.4
3579.645	-35.4
3582.466	-41.4
3585.285	-47.4
3588.101	-35.4
3590.916	-53.4
3593.728	-57.4
3596.538	-59.4
3599.346	-59.4
3602.152	-60.4
3604.956	-62.4
3607.757	-56.4
3610.556	-67.4
3613.354	-65.4
3616.149	-78.4
3618.942	-78.4
3621.732	-79.4
3624.521	-73.4
3627.307	-74.4
3630.092	-76.4
3632.874	-77.4
3635.654	-82.4
3638.432	-86.4
3641.208	-81.4
3643.982	-88.4
3646.753	-91.4
3649.523	-91.4
3652.29	-85.4
3655.055	-85.4
3657.818	-85.4
3660.579	-91.4
3663.338	-94.4
3666.095	-100.4
3668.849	-99.4
3671.602	-99.4
3674.352	-102.4
3677.101	-104.4
3679.847	-100.4
3682.591	-107.4
3685.333	-105.4
3688.073	-105.4
3690.811	-105.4
3693.547	-111.4
3696.281	-106.4
3699.013	-112.4
3701.742	-118.4
3704.47	-114.4
3707.195	-109.4
3709.919	-115.4
3712.64	-112.4
3715.359	-118.4
3718.076	-115.4
3720.792	-121.4
3723.505	-123.4
3726.216	-117.4
3728.925	-117.4
3731.632	-116.4
3734.336	-124.4
3737.039	-115.4
3739.74	-123.4
3742.439	-129.4
3745.136	-114.4
3747.83	-125.4
3750.523	-123.4
3753.213	-131.4
3755.902	-118.4
3758.589	-130.4
3761.273	-124.4
3763.956	-121.4
3766.636	-122.4
3769.315	-119.4
3771.991	-122.4
3774.665	-127.4
3777.338	-118.4
3780.008	-121.4
3782.677	-128.4
3785.343	-122.4
3788.007	-123.4
3790.67	-124.4
3793.33	-117.4
3795.989	-122.4
3798.645	-116.4
3801.299	-129.4
3803.952	-131.4
3806.602	-123.4
3809.251	-129.4
3811.897	-130.4
3814.542	-131.4
3817.184	-129.4
3819.825	-125.4
3822.463	-125.4
3825.1	-127.4
3827.735	-129.4
3830.367	-124.4
3832.998	-127.4
3835.627	-125.4
3838.253	-125.4
3840.878	-126.4
3843.501	-123.4
3846.122	-130.4
3848.741	-128.4
3851.358	-123.4
3853.973	-133.4
3856.586	-128.4
3859.197	-135.4
3861.806	-127.4
3864.414	-127.4
3867.019	-123.4
3869.622	-123.4
3872.224	-109.4
3874.823	-105.4
3877.421	-98.4
3880.016	-70.4
3882.61	-50.4
3885.202	-50.4
3887.792	-62.4
3890.38	-89.4
3892.966	-116.4
3895.55	-118.4
3898.132	-122.4
3900.713	-130.4
3903.291	-134.4
3905.868	-131.4
3908.442	-122.4
3911.015	-130.4
3913.586	-131.4
3916.155	-131.4
3918.722	-131.4
3921.287	-127.4
3923.85	-134.4
3926.411	-136.4
3928.971	-130.4
3931.528	-131.4
3934.084	-127.4
3936.638	-124.4
3939.19	-135.4
3941.74	-133.4
3944.288	-134.4
3946.834	-127.4
3949.378	-130.4
3951.921	-131.4
3954.462	-136.4
3957	-132.4
3959.537	-123.4
3962.072	-135.4
3964.606	-125.4
3967.137	-130.4
3969.667	-132.4
3972.194	-130.4
3974.72	-127.4
3977.244	-129.4
3979.766	-132.4
3982.286	-132.4
3984.805	-128.4
3987.321	-133.4
3989.836	-120.4
3992.349	-124.4
3994.86	-127.4
3997.369	-135.4
3999.877	-128.4
4002.382	-127.4
4004.886	-136.4
4007.388	-126.4
4009.888	-126.4
4012.386	-132.4
4014.883	-131.4
4017.377	-130.4
4019.87	-127.4
4022.361	-127.4
4024.85	-128.4
4027.338	-129.4
4029.823	-124.4
4032.307	-124.4
4034.789	-133.4
4037.269	-123.4
4039.747	-124.4
4042.224	-128.4
4044.699	-135.4
4047.172	-127.4
4049.643	-122.4
4052.112	-124.4
4054.58	-123.4
4057.046	-125.4
4059.51	-127.4
4061.972	-126.4
4064.432	-130.4
4066.891	-131.4
4069.348	-127.4
4071.803	-129.4
4074.256	-127.4
4076.708	-123.4
4079.158	-126.4
4081.606	-122.4
4084.052	-133.4
4086.497	-128.4
4088.939	-123.4
4091.38	-125.4
4093.819	-125.4
4096.257	-137.4
4098.693	-133.4
4101.127	-135.4
4103.559	-131.4
4105.989	23.6
4108.418	18.6
4110.845	11.6
4113.27	14.6
4115.694	1.6
4118.115	1.6
4120.535	-129.4
4122.954	-130.4
4125.37	-124.4
4127.785	-132.4
4130.198	-130.4
4132.609	-129.4
4135.019	-136.4
4137.427	-135.4
4139.833	-134.4
4142.237	-139.4
