Data from 2018-2-8_conc=3_n=1_RamanShift_05.txt Node
Date: Mon Mar 12 14:30:28 IST 2018
User: aro
Spectrometer: QEPB0276
Trigger mode: 0
Integration Time (sec): 3.000000E1
Scans to average: 1
Electric dark correction enabled: true
Nonlinearity correction enabled: false
Boxcar width: 0
XAxis mode: Raman Shifts
Number of Pixels in Spectrum: 1044
>>>>>Begin Spectral Data<<<<<
160.701	10.2
166.742	39.2
172.777	120.2
178.805	410.2
184.826	1115.2
190.841	2410.2
196.849	4007.2
202.85	5263.2
208.845	5804.2
214.833	5802.2
220.815	5691.2
226.789	5676.2
232.758	5687.2
238.719	5672.2
244.674	5645.2
250.623	5577.2
256.565	5512.2
262.5	5427.2
268.429	5306.2
274.351	5290.2
280.267	5246.2
286.176	5198.2
292.079	5178.2
297.975	5140.2
303.865	5111.2
309.748	5104.2
315.625	5066.2
321.495	5087.2
327.359	5061.2
333.217	5088.2
339.068	5067.2
344.912	5082.2
350.751	5098.2
356.583	5118.2
362.408	5116.2
368.227	5118.2
374.04	5107.2
379.847	5137.2
385.647	5140.2
391.44	5176.2
397.228	5194.2
403.009	5220.2
408.784	5234.2
414.553	5264.2
420.315	5261.2
426.071	5254.2
431.821	5270.2
437.565	5229.2
443.302	5258.2
449.033	5246.2
454.758	5227.2
460.477	5211.2
466.189	5173.2
471.896	5116.2
477.596	5105.2
483.29	5093.2
488.978	5100.2
494.66	5092.2
500.335	5016.2
506.005	4926.2
511.668	4773.2
517.325	4638.2
522.977	4544.2
528.622	4469.2
534.261	4415.2
539.894	4353.2
545.521	4312.2
551.141	4313.2
556.756	4279.2
562.365	4266.2
567.968	4205.2
573.565	4198.2
579.155	4171.2
584.74	4155.2
590.319	4162.2
595.892	4142.2
601.459	4106.2
607.02	4113.2
612.575	4065.2
618.124	4036.2
623.667	4004.2
629.204	3985.2
634.735	3963.2
640.261	3922.2
645.781	3916.2
651.294	3896.2
656.802	3886.2
662.304	3890.2
667.8	3866.2
673.29	3870.2
678.775	3873.2
684.254	3852.2
689.726	3828.2
695.193	3803.2
700.655	3782.2
706.11	3783.2
711.56	3751.2
717.004	3699.2
722.442	3723.2
727.874	3694.2
733.301	3672.2
738.722	3663.2
744.137	3673.2
749.547	3652.2
754.951	3634.2
760.349	3654.2
765.741	3643.2
771.128	3691.2
776.509	3683.2
781.885	3687.2
787.254	3678.2
792.618	3697.2
797.977	3667.2
803.33	3647.2
808.677	3629.2
814.019	3636.2
819.355	3567.2
824.686	3553.2
830.011	3542.2
835.33	3523.2
840.644	3515.2
845.952	3498.2
851.255	3493.2
856.552	3497.2
861.844	3485.2
867.13	3505.2
872.41	3460.2
877.686	3414.2
882.955	3429.2
888.219	3379.2
893.478	3338.2
898.731	3283.2
903.979	3245.2
909.221	3239.2
914.458	3210.2
919.69	3192.2
924.916	3222.2
930.136	3257.2
935.351	3214.2
940.561	3238.2
945.766	3220.2
950.965	3207.2
956.158	3175.2
961.347	3152.2
966.529	3118.2
971.707	3067.2
976.879	3017.2
982.046	3002.2
987.208	2974.2
992.364	2987.2
997.515	3002.2
1002.66	3043.2
1007.801	3059.2
1012.936	3057.2
1018.066	3066.2
1023.19	3074.2
1028.309	3088.2
1033.423	3085.2
1038.532	3059.2
1043.636	3037.2
1048.734	3003.2
1053.827	2962.2
1058.915	2937.2
1063.998	2909.2
1069.075	2891.2
1074.147	2901.2
1079.214	2895.2
1084.276	2929.2
1089.333	2951.2
1094.385	2966.2
1099.431	2943.2
1104.472	2938.2
1109.509	2907.2
1114.54	2903.2
1119.565	2857.2
1124.586	2810.2
1129.602	2779.2
1134.613	2788.2
1139.618	2739.2
1144.619	2736.2
1149.614	2728.2
1154.604	2747.2
1159.589	2764.2
1164.57	2737.2
1169.545	2746.2
1174.515	2758.2
1179.48	2741.2
1184.44	2717.2
1189.395	2680.2
1194.345	2677.2
1199.29	2650.2
1204.23	2643.2
1209.165	2656.2
1214.095	2686.2
1219.021	2702.2
1223.941	2710.2
1228.856	2720.2
1233.766	2717.2
1238.672	2729.2
1243.572	2724.2
1248.467	2707.2
1253.358	2664.2
1258.244	2632.2
1263.124	2584.2
1268	2561.2
1272.871	2525.2
1277.737	2492.2
1282.599	2486.2
1287.455	2468.2
1292.306	2483.2
1297.153	2505.2
1301.995	2503.2
1306.832	2522.2
1311.664	2539.2
1316.491	2557.2
1321.314	2537.2
1326.132	2542.2
1330.945	2507.2
1335.753	2447.2
1340.556	2428.2
1345.354	2377.2
1350.148	2350.2
1354.937	2315.2
1359.722	2274.2
1364.501	2237.2
1369.276	2184.2
1374.046	2151.2
1378.811	2143.2
1383.572	2147.2
1388.327	2110.2
1393.079	2132.2
1397.825	2131.2
1402.567	2130.2
1407.304	2117.2
1412.036	2139.2
1416.764	2137.2
1421.487	2129.2
1426.205	2138.2
1430.919	2145.2
1435.628	2151.2
1440.333	2173.2
1445.032	2189.2
1449.727	2221.2
1454.418	2211.2
1459.104	2214.2
1463.785	2178.2
1468.462	2157.2
1473.134	2092.2
1477.802	2052.2
1482.465	2021.2
1487.123	1982.2
1491.777	1953.2
1496.426	1942.2
1501.071	1926.2
1505.711	1891.2
1510.347	1898.2
1514.978	1882.2
1519.604	1876.2
1524.226	1886.2
1528.844	1881.2
1533.457	1856.2
1538.065	1858.2
1542.669	1872.2
1547.269	1851.2
1551.864	1849.2
1556.454	1875.2
1561.041	1886.2
1565.622	1902.2
1570.199	1895.2
1574.772	1913.2
1579.34	1947.2
1583.904	1977.2
1588.464	1996.2
1593.019	1987.2
1597.569	1980.2
1602.115	1991.2
1606.657	1985.2
1611.195	1972.2
1615.728	1971.2
1620.256	1960.2
1624.78	1951.2
1629.3	1980.2
1633.816	1980.2
1638.327	1991.2
1642.834	1993.2
1647.336	2016.2
1651.834	2009.2
1656.328	1990.2
1660.817	2007.2
1665.302	1983.2
1669.783	1939.2
1674.259	1898.2
1678.732	1862.2
1683.199	1781.2
1687.663	1749.2
1692.122	1689.2
1696.577	1628.2
1701.028	1542.2
1705.474	1488.2
1709.917	1457.2
1714.355	1417.2
1718.788	1406.2
1723.218	1415.2
1727.643	1412.2
1732.064	1403.2
1736.481	1385.2
1740.893	1355.2
1745.301	1339.2
1749.705	1307.2
1754.105	1276.2
1758.501	1269.2
1762.893	1239.2
1767.28	1250.2
1771.663	1215.2
1776.042	1213.2
1780.417	1208.2
1784.787	1185.2
1789.154	1161.2
1793.516	1158.2
1797.874	1150.2
1802.228	1130.2
1806.578	1113.2
1810.924	1098.2
1815.266	1099.2
1819.603	1079.2
1823.937	1106.2
1828.266	1094.2
1832.591	1100.2
1836.913	1092.2
1841.23	1088.2
1845.543	1089.2
1849.852	1084.2
1854.156	1094.2
1858.457	1101.2
1862.754	1089.2
1867.047	1097.2
1871.335	1089.2
1875.62	1117.2
1879.9	1098.2
1884.177	1082.2
1888.449	1059.2
1892.718	1053.2
1896.982	1032.2
1901.243	1045.2
1905.499	1030.2
1909.752	989.2
1914	984.2
1918.245	976.2
1922.485	969.2
1926.722	956.2
1930.954	955.2
1935.183	955.2
1939.408	938.2
1943.628	931.2
1947.845	930.2
1952.058	925.2
1956.267	911.2
1960.472	913.2
1964.673	897.2
1968.87	881.2
1973.063	899.2
1977.252	882.2
1981.438	881.2
1985.619	877.2
1989.797	878.2
1993.971	883.2
1998.14	895.2
2002.306	877.2
2006.469	895.2
2010.627	888.2
2014.781	883.2
2018.932	884.2
2023.078	888.2
2027.221	882.2
2031.36	887.2
2035.495	865.2
2039.627	830.2
2043.754	832.2
2047.878	826.2
2051.998	819.2
2056.114	838.2
2060.226	818.2
2064.334	821.2
2068.439	816.2
2072.54	820.2
2076.637	808.2
2080.73	808.2
2084.82	791.2
2088.906	798.2
2092.988	788.2
2097.066	778.2
2101.14	775.2
2105.211	757.2
2109.278	753.2
2113.342	741.2
2117.401	741.2
2121.457	723.2
2125.509	722.2
2129.558	733.2
2133.602	727.2
2137.643	731.2
2141.681	717.2
2145.714	719.2
2149.744	716.2
2153.77	719.2
2157.793	726.2
2161.812	713.2
2165.827	711.2
2169.838	689.2
2173.846	671.2
2177.851	659.2
2181.851	660.2
2185.848	666.2
2189.841	646.2
2193.831	647.2
2197.817	642.2
2201.799	629.2
2205.778	629.2
2209.753	630.2
2213.725	640.2
2217.693	635.2
2221.657	636.2
2225.618	643.2
2229.575	639.2
2233.529	613.2
2237.479	629.2
2241.425	605.2
2245.368	591.2
2249.307	591.2
2253.243	586.2
2257.175	571.2
2261.104	566.2
2265.029	554.2
2268.95	559.2
2272.868	542.2
2276.783	539.2
2280.694	533.2
2284.601	541.2
2288.505	518.2
2292.405	521.2
2296.302	504.2
2300.195	503.2
2304.085	506.2
2307.971	486.2
2311.854	486.2
2315.734	465.2
2319.609	470.2
2323.482	470.2
2327.351	466.2
2331.216	464.2
2335.078	483.2
2338.937	466.2
2342.792	464.2
2346.643	454.2
2350.492	458.2
2354.336	441.2
2358.178	448.2
2362.015	441.2
2365.85	465.2
2369.681	457.2
2373.508	457.2
2377.333	450.2
2381.153	443.2
2384.971	454.2
2388.785	443.2
2392.595	449.2
2396.402	422.2
2400.206	439.2
2404.007	437.2
2407.804	436.2
2411.597	428.2
2415.388	427.2
2419.174	422.2
2422.958	416.2
2426.738	428.2
2430.515	412.2
2434.289	424.2
2438.059	409.2
2441.825	397.2
2445.589	401.2
2449.349	385.2
2453.106	386.2
2456.859	396.2
2460.61	384.2
2464.356	384.2
2468.1	370.2
2471.84	372.2
2475.577	363.2
2479.311	358.2
2483.041	349.2
2486.768	354.2
2490.492	367.2
2494.213	362.2
2497.93	347.2
2501.644	340.2
2505.355	348.2
2509.062	343.2
2512.766	340.2
2516.467	338.2
2520.165	334.2
2523.859	328.2
2527.551	324.2
2531.239	317.2
2534.923	305.2
2538.605	309.2
2542.283	292.2
2545.958	304.2
2549.63	307.2
2553.299	298.2
2556.964	302.2
2560.626	301.2
2564.285	283.2
2567.941	294.2
2571.594	285.2
2575.243	287.2
2578.89	273.2
2582.533	262.2
2586.173	272.2
2589.809	265.2
2593.443	261.2
2597.073	254.2
2600.701	256.2
2604.325	252.2
2607.946	253.2
2611.564	253.2
2615.178	259.2
2618.79	253.2
2622.398	251.2
2626.004	249.2
2629.606	233.2
2633.205	240.2
2636.801	239.2
2640.394	231.2
2643.983	232.2
2647.57	238.2
2651.153	223.2
2654.734	221.2
2658.311	213.2
2661.885	223.2
2665.456	214.2
2669.025	226.2
2672.589	209.2
2676.151	220.2
2679.71	207.2
2683.266	208.2
2686.819	206.2
2690.368	197.2
2693.915	185.2
2697.458	200.2
2700.999	191.2
2704.536	190.2
2708.071	182.2
2711.602	179.2
2715.13	179.2
2718.656	169.2
2722.178	177.2
2725.697	166.2
2729.214	166.2
2732.727	173.2
2736.237	169.2
2739.744	161.2
2743.249	164.2
2746.75	159.2
2750.248	155.2
2753.743	156.2
2757.236	153.2
2760.725	146.2
2764.211	134.2
2767.695	138.2
2771.175	133.2
2774.652	133.2
2778.127	140.2
2781.598	135.2
2785.067	135.2
2788.532	140.2
2791.995	136.2
2795.455	138.2
2798.911	138.2
2802.365	143.2
2805.816	142.2
2809.264	130.2
2812.709	149.2
2816.151	148.2
2819.59	141.2
2823.026	133.2
2826.46	133.2
2829.89	138.2
2833.318	127.2
2836.742	142.2
2840.164	141.2
2843.583	138.2
2846.999	148.2
2850.412	138.2
2853.822	150.2
2857.229	141.2
2860.634	146.2
2864.035	149.2
2867.434	165.2
2870.83	166.2
2874.223	169.2
2877.613	176.2
2881	183.2
2884.385	177.2
2887.766	171.2
2891.145	177.2
2894.521	176.2
2897.894	197.2
2901.264	190.2
2904.631	183.2
2907.996	188.2
2911.358	193.2
2914.717	195.2
2918.073	204.2
2921.426	203.2
2924.777	214.2
2928.124	217.2
2931.469	221.2
2934.811	224.2
2938.15	227.2
2941.487	226.2
2944.821	236.2
2948.152	238.2
2951.48	245.2
2954.805	231.2
2958.128	236.2
2961.447	227.2
2964.765	233.2
2968.079	227.2
2971.39	230.2
2974.699	233.2
2978.005	232.2
2981.308	247.2
2984.609	236.2
2987.907	234.2
2991.202	238.2
2994.494	241.2
2997.784	236.2
3001.07	253.2
3004.355	258.2
3007.636	258.2
3010.915	255.2
3014.191	262.2
3017.464	270.2
3020.734	276.2
3024.002	267.2
3027.267	281.2
3030.53	272.2
3033.789	284.2
3037.046	295.2
3040.301	305.2
3043.552	322.2
3046.801	317.2
3050.048	320.2
3053.291	332.2
3056.532	353.2
3059.771	372.2
3063.006	382.2
3066.239	395.2
3069.469	392.2
3072.697	407.2
3075.922	426.2
3079.144	431.2
3082.364	442.2
3085.581	449.2
3088.795	448.2
3092.007	462.2
3095.216	473.2
3098.423	485.2
3101.627	514.2
3104.828	510.2
3108.026	512.2
3111.222	534.2
3114.416	535.2
3117.607	560.2
3120.795	570.2
3123.98	573.2
3127.163	582.2
3130.344	619.2
3133.521	609.2
3136.696	637.2
3139.869	637.2
3143.039	644.2
3146.206	658.2
3149.371	670.2
3152.533	680.2
3155.693	686.2
3158.85	687.2
3162.005	696.2
3165.157	695.2
3168.306	683.2
3171.453	701.2
3174.597	703.2
3177.739	715.2
3180.878	712.2
3184.014	713.2
3187.149	713.2
3190.28	726.2
3193.409	719.2
3196.536	724.2
3199.659	737.2
3202.781	747.2
3205.9	745.2
3209.016	742.2
3212.13	740.2
3215.241	734.2
3218.35	727.2
3221.456	716.2
3224.56	712.2
3227.661	695.2
3230.76	690.2
3233.856	677.2
3236.95	670.2
3240.041	658.2
3243.13	647.2
3246.216	647.2
3249.3	634.2
3252.382	621.2
3255.46	627.2
3258.537	620.2
3261.611	623.2
3264.682	609.2
3267.751	594.2
3270.818	615.2
3273.882	603.2
3276.943	598.2
3280.002	593.2
3283.059	589.2
3286.113	570.2
3289.165	569.2
3292.214	572.2
3295.261	566.2
3298.306	561.2
3301.348	536.2
3304.387	538.2
3307.425	552.2
3310.459	528.2
3313.492	523.2
3316.521	522.2
3319.549	514.2
3322.574	516.2
3325.597	512.2
3328.617	510.2
3331.635	495.2
3334.65	505.2
3337.663	493.2
3340.674	503.2
3343.682	504.2
3346.688	498.2
3349.691	500.2
3352.692	491.2
3355.691	493.2
3358.687	481.2
3361.681	494.2
3364.673	482.2
3367.662	474.2
3370.649	460.2
3373.633	450.2
3376.615	443.2
3379.595	439.2
3382.572	433.2
3385.547	438.2
3388.52	426.2
3391.49	414.2
3394.458	411.2
3397.424	401.2
3400.387	387.2
3403.348	383.2
3406.307	380.2
3409.263	378.2
3412.217	383.2
3415.168	371.2
3418.118	368.2
3421.065	364.2
3424.009	353.2
3426.951	346.2
3429.891	331.2
3432.829	335.2
3435.764	325.2
3438.697	309.2
3441.628	299.2
3444.557	298.2
3447.483	287.2
3450.407	271.2
3453.328	268.2
3456.247	261.2
3459.164	243.2
3462.079	240.2
3464.991	227.2
3467.902	220.2
3470.809	210.2
3473.715	190.2
3476.618	180.2
3479.519	181.2
3482.418	172.2
3485.315	163.2
3488.209	157.2
3491.101	154.2
3493.99	153.2
3496.878	136.2
3499.763	129.2
3502.646	126.2
3505.527	114.2
3508.405	112.2
3511.281	100.2
3514.155	90.2
3517.027	89.2
3519.897	75.2
3522.764	75.2
3525.629	64.2
3528.492	58.2
3531.352	53.2
3534.211	36.2
3537.067	37.2
3539.921	33.2
3542.773	31.2
3545.622	17.2
3548.469	11.2
3551.315	12.2
3554.157	1.2
3556.998	-7.8
3559.837	-5.8
3562.673	-14.8
3565.507	-11.8
3568.339	-16.8
3571.169	-23.8
3573.996	-21.8
3576.822	-26.8
3579.645	-36.8
3582.466	-30.8
3585.285	-43.8
3588.101	-33.8
3590.916	-47.8
3593.728	-55.8
3596.538	-55.8
3599.346	-52.8
3602.152	-53.8
3604.956	-56.8
3607.757	-58.8
3610.556	-66.8
3613.354	-62.8
3616.149	-70.8
3618.942	-79.8
3621.732	-75.8
3624.521	-75.8
3627.307	-79.8
3630.092	-81.8
3632.874	-74.8
3635.654	-87.8
3638.432	-84.8
3641.208	-85.8
3643.982	-93.8
3646.753	-93.8
3649.523	-100.8
3652.29	-84.8
3655.055	-90.8
3657.818	-95.8
3660.579	-91.8
3663.338	-96.8
3666.095	-108.8
3668.849	-109.8
3671.602	-103.8
3674.352	-107.8
3677.101	-107.8
3679.847	-109.8
3682.591	-109.8
3685.333	-110.8
3688.073	-114.8
3690.811	-112.8
3693.547	-121.8
3696.281	-118.8
3699.013	-115.8
3701.742	-118.8
3704.47	-113.8
3707.195	-116.8
3709.919	-124.8
3712.64	-121.8
3715.359	-125.8
3718.076	-121.8
3720.792	-120.8
3723.505	-124.8
3726.216	-124.8
3728.925	-125.8
3731.632	-123.8
3734.336	-137.8
3737.039	-124.8
3739.74	-122.8
3742.439	-132.8
3745.136	-124.8
3747.83	-131.8
3750.523	-131.8
3753.213	-139.8
3755.902	-127.8
3758.589	-133.8
3761.273	-121.8
3763.956	-126.8
3766.636	-132.8
3769.315	-123.8
3771.991	-129.8
3774.665	-135.8
3777.338	-127.8
3780.008	-134.8
3782.677	-133.8
3785.343	-135.8
3788.007	-130.8
3790.67	-132.8
3793.33	-130.8
3795.989	-136.8
3798.645	-126.8
3801.299	-130.8
3803.952	-136.8
3806.602	-129.8
3809.251	-137.8
3811.897	-137.8
3814.542	-138.8
3817.184	-134.8
3819.825	-132.8
3822.463	-136.8
3825.1	-130.8
3827.735	-134.8
3830.367	-132.8
3832.998	-140.8
3835.627	-138.8
3838.253	-135.8
3840.878	-136.8
3843.501	-131.8
3846.122	-133.8
3848.741	-138.8
3851.358	-135.8
3853.973	-141.8
3856.586	-136.8
3859.197	-139.8
3861.806	-133.8
3864.414	-140.8
3867.019	-131.8
3869.622	-130.8
3872.224	-126.8
3874.823	-112.8
3877.421	-108.8
3880.016	-90.8
3882.61	-75.8
3885.202	-78.8
3887.792	-86.8
3890.38	-103.8
3892.966	-123.8
3895.55	-133.8
3898.132	-131.8
3900.713	-136.8
3903.291	-136.8
3905.868	-140.8
3908.442	-135.8
3911.015	-137.8
3913.586	-137.8
3916.155	-137.8
3918.722	-137.8
3921.287	-135.8
3923.85	-140.8
3926.411	-141.8
3928.971	-141.8
3931.528	-137.8
3934.084	-138.8
3936.638	-132.8
3939.19	-138.8
3941.74	-138.8
3944.288	-137.8
3946.834	-138.8
3949.378	-142.8
3951.921	-141.8
3954.462	-145.8
3957	-138.8
3959.537	-137.8
3962.072	-141.8
3964.606	-135.8
3967.137	-139.8
3969.667	-143.8
3972.194	-144.8
3974.72	-137.8
3977.244	-142.8
3979.766	-139.8
3982.286	-136.8
3984.805	-137.8
3987.321	-133.8
3989.836	-130.8
3992.349	-138.8
3994.86	-138.8
3997.369	-135.8
3999.877	-134.8
4002.382	-132.8
4004.886	-141.8
4007.388	-133.8
4009.888	-137.8
4012.386	-137.8
4014.883	-137.8
4017.377	-136.8
4019.87	-131.8
4022.361	-138.8
4024.85	-138.8
4027.338	-137.8
4029.823	-133.8
4032.307	-132.8
4034.789	-139.8
4037.269	-137.8
4039.747	-133.8
4042.224	-135.8
4044.699	-140.8
4047.172	-134.8
4049.643	-134.8
4052.112	-137.8
4054.58	-134.8
4057.046	-129.8
4059.51	-140.8
4061.972	-131.8
4064.432	-135.8
4066.891	-139.8
4069.348	-133.8
4071.803	-143.8
4074.256	-138.8
4076.708	-137.8
4079.158	-132.8
4081.606	-133.8
4084.052	-136.8
4086.497	-133.8
4088.939	-127.8
4091.38	-136.8
4093.819	-139.8
4096.257	-146.8
4098.693	-141.8
4101.127	-141.8
4103.559	-138.8
4105.989	-25.8
4108.418	-24.8
4110.845	-19.8
4113.27	-20.8
4115.694	-21.8
4118.115	-20.8
4120.535	-137.8
4122.954	-140.8
4125.37	-134.8
4127.785	-132.8
4130.198	-137.8
4132.609	-136.8
4135.019	-144.8
4137.427	-144.8
4139.833	-144.8
4142.237	-145.8
