Data from 2018-2-8_conc=6_n=1_RamanShift_04.txt Node
Date: Mon Mar 12 16:24:58 IST 2018
User: aro
Spectrometer: QEPB0276
Trigger mode: 0
Integration Time (sec): 3.000000E1
Scans to average: 1
Electric dark correction enabled: true
Nonlinearity correction enabled: false
Boxcar width: 0
XAxis mode: Raman Shifts
Number of Pixels in Spectrum: 1044
>>>>>Begin Spectral Data<<<<<
160.701	9.5
166.742	31.5
172.777	97.5
178.805	317.5
184.826	871.5
190.841	1873.5
196.849	3097.5
202.85	4057.5
208.845	4446.5
214.833	4445.5
220.815	4372.5
226.789	4348.5
232.758	4366.5
238.719	4373.5
244.674	4328.5
250.623	4308.5
256.565	4238.5
262.5	4183.5
268.429	4126.5
274.351	4093.5
280.267	4064.5
286.176	4048.5
292.079	4022.5
297.975	4020.5
303.865	4015.5
309.748	4002.5
315.625	3982.5
321.495	3985.5
327.359	3968.5
333.217	3993.5
339.068	3977.5
344.912	3977.5
350.751	4012.5
356.583	4000.5
362.408	4012.5
368.227	4032.5
374.04	4057.5
379.847	4064.5
385.647	4062.5
391.44	4079.5
397.228	4105.5
403.009	4139.5
408.784	4134.5
414.553	4152.5
420.315	4153.5
426.071	4175.5
431.821	4158.5
437.565	4150.5
443.302	4163.5
449.033	4136.5
454.758	4110.5
460.477	4084.5
466.189	4097.5
471.896	4052.5
477.596	4033.5
483.29	4019.5
488.978	4021.5
494.66	3983.5
500.335	3950.5
506.005	3847.5
511.668	3704.5
517.325	3564.5
522.977	3481.5
528.622	3422.5
534.261	3393.5
539.894	3340.5
545.521	3304.5
551.141	3302.5
556.756	3251.5
562.365	3230.5
567.968	3203.5
573.565	3182.5
579.155	3189.5
584.74	3164.5
590.319	3136.5
595.892	3150.5
601.459	3152.5
607.02	3113.5
612.575	3082.5
618.124	3111.5
623.667	3052.5
629.204	3038.5
634.735	3008.5
640.261	2988.5
645.781	2952.5
651.294	2951.5
656.802	2931.5
662.304	2930.5
667.8	2949.5
673.29	2924.5
678.775	2920.5
684.254	2894.5
689.726	2881.5
695.193	2882.5
700.655	2878.5
706.11	2850.5
711.56	2852.5
717.004	2816.5
722.442	2812.5
727.874	2784.5
733.301	2793.5
738.722	2777.5
744.137	2758.5
749.547	2756.5
754.951	2756.5
760.349	2754.5
765.741	2759.5
771.128	2785.5
776.509	2794.5
781.885	2811.5
787.254	2833.5
792.618	2824.5
797.977	2805.5
803.33	2800.5
808.677	2780.5
814.019	2751.5
819.355	2731.5
824.686	2704.5
830.011	2697.5
835.33	2696.5
840.644	2675.5
845.952	2676.5
851.255	2673.5
856.552	2657.5
861.844	2623.5
867.13	2637.5
872.41	2623.5
877.686	2600.5
882.955	2578.5
888.219	2556.5
893.478	2522.5
898.731	2479.5
903.979	2450.5
909.221	2433.5
914.458	2422.5
919.69	2421.5
924.916	2420.5
930.136	2417.5
935.351	2437.5
940.561	2434.5
945.766	2433.5
950.965	2419.5
956.158	2389.5
961.347	2396.5
966.529	2351.5
971.707	2336.5
976.879	2307.5
982.046	2251.5
987.208	2255.5
992.364	2264.5
997.515	2277.5
1002.66	2264.5
1007.801	2311.5
1012.936	2319.5
1018.066	2318.5
1023.19	2314.5
1028.309	2325.5
1033.423	2340.5
1038.532	2328.5
1043.636	2320.5
1048.734	2267.5
1053.827	2244.5
1058.915	2233.5
1063.998	2197.5
1069.075	2197.5
1074.147	2209.5
1079.214	2191.5
1084.276	2192.5
1089.333	2206.5
1094.385	2235.5
1099.431	2231.5
1104.472	2239.5
1109.509	2219.5
1114.54	2176.5
1119.565	2143.5
1124.586	2114.5
1129.602	2092.5
1134.613	2079.5
1139.618	2080.5
1144.619	2091.5
1149.614	2046.5
1154.604	2066.5
1159.589	2074.5
1164.57	2079.5
1169.545	2084.5
1174.515	2077.5
1179.48	2074.5
1184.44	2074.5
1189.395	2026.5
1194.345	2013.5
1199.29	2015.5
1204.23	2034.5
1209.165	2015.5
1214.095	2014.5
1219.021	2039.5
1223.941	2049.5
1228.856	2060.5
1233.766	2064.5
1238.672	2058.5
1243.572	2048.5
1248.467	2051.5
1253.358	2031.5
1258.244	1993.5
1263.124	1960.5
1268	1911.5
1272.871	1912.5
1277.737	1887.5
1282.599	1900.5
1287.455	1867.5
1292.306	1880.5
1297.153	1895.5
1301.995	1891.5
1306.832	1917.5
1311.664	1921.5
1316.491	1926.5
1321.314	1928.5
1326.132	1913.5
1330.945	1891.5
1335.753	1843.5
1340.556	1834.5
1345.354	1807.5
1350.148	1798.5
1354.937	1751.5
1359.722	1723.5
1364.501	1710.5
1369.276	1679.5
1374.046	1652.5
1378.811	1634.5
1383.572	1613.5
1388.327	1622.5
1393.079	1605.5
1397.825	1619.5
1402.567	1614.5
1407.304	1641.5
1412.036	1616.5
1416.764	1620.5
1421.487	1629.5
1426.205	1623.5
1430.919	1635.5
1435.628	1636.5
1440.333	1654.5
1445.032	1667.5
1449.727	1676.5
1454.418	1683.5
1459.104	1665.5
1463.785	1669.5
1468.462	1645.5
1473.134	1612.5
1477.802	1562.5
1482.465	1528.5
1487.123	1504.5
1491.777	1513.5
1496.426	1483.5
1501.071	1457.5
1505.711	1470.5
1510.347	1467.5
1514.978	1468.5
1519.604	1465.5
1524.226	1480.5
1528.844	1436.5
1533.457	1441.5
1538.065	1437.5
1542.669	1443.5
1547.269	1435.5
1551.864	1424.5
1556.454	1439.5
1561.041	1447.5
1565.622	1451.5
1570.199	1449.5
1574.772	1464.5
1579.34	1480.5
1583.904	1506.5
1588.464	1517.5
1593.019	1513.5
1597.569	1522.5
1602.115	1510.5
1606.657	1499.5
1611.195	1506.5
1615.728	1513.5
1620.256	1498.5
1624.78	1503.5
1629.3	1505.5
1633.816	1516.5
1638.327	1511.5
1642.834	1528.5
1647.336	1536.5
1651.834	1542.5
1656.328	1536.5
1660.817	1538.5
1665.302	1524.5
1669.783	1503.5
1674.259	1465.5
1678.732	1435.5
1683.199	1398.5
1687.663	1345.5
1692.122	1312.5
1696.577	1260.5
1701.028	1206.5
1705.474	1183.5
1709.917	1131.5
1714.355	1115.5
1718.788	1098.5
1723.218	1089.5
1727.643	1108.5
1732.064	1089.5
1736.481	1084.5
1740.893	1064.5
1745.301	1038.5
1749.705	1022.5
1754.105	984.5
1758.501	984.5
1762.893	982.5
1767.28	963.5
1771.663	958.5
1776.042	943.5
1780.417	934.5
1784.787	924.5
1789.154	923.5
1793.516	912.5
1797.874	885.5
1802.228	888.5
1806.578	885.5
1810.924	857.5
1815.266	854.5
1819.603	857.5
1823.937	854.5
1828.266	857.5
1832.591	843.5
1836.913	842.5
1841.23	847.5
1845.543	863.5
1849.852	855.5
1854.156	848.5
1858.457	852.5
1862.754	872.5
1867.047	847.5
1871.335	852.5
1875.62	845.5
1879.9	849.5
1884.177	843.5
1888.449	842.5
1892.718	822.5
1896.982	824.5
1901.243	814.5
1905.499	798.5
1909.752	800.5
1914	771.5
1918.245	780.5
1922.485	768.5
1926.722	756.5
1930.954	758.5
1935.183	749.5
1939.408	754.5
1943.628	744.5
1947.845	741.5
1952.058	735.5
1956.267	725.5
1960.472	722.5
1964.673	700.5
1968.87	712.5
1973.063	698.5
1977.252	689.5
1981.438	695.5
1985.619	699.5
1989.797	689.5
1993.971	696.5
1998.14	694.5
2002.306	696.5
2006.469	697.5
2010.627	692.5
2014.781	705.5
2018.932	691.5
2023.078	695.5
2027.221	688.5
2031.36	683.5
2035.495	679.5
2039.627	671.5
2043.754	650.5
2047.878	647.5
2051.998	651.5
2056.114	652.5
2060.226	638.5
2064.334	641.5
2068.439	633.5
2072.54	636.5
2076.637	632.5
2080.73	639.5
2084.82	637.5
2088.906	616.5
2092.988	622.5
2097.066	618.5
2101.14	600.5
2105.211	611.5
2109.278	582.5
2113.342	586.5
2117.401	586.5
2121.457	577.5
2125.509	570.5
2129.558	573.5
2133.602	567.5
2137.643	567.5
2141.681	564.5
2145.714	556.5
2149.744	576.5
2153.77	569.5
2157.793	551.5
2161.812	555.5
2165.827	548.5
2169.838	546.5
2173.846	522.5
2177.851	521.5
2181.851	512.5
2185.848	506.5
2189.841	504.5
2193.831	509.5
2197.817	508.5
2201.799	498.5
2205.778	492.5
2209.753	493.5
2213.725	490.5
2217.693	499.5
2221.657	495.5
2225.618	487.5
2229.575	489.5
2233.529	484.5
2237.479	472.5
2241.425	472.5
2245.368	459.5
2249.307	453.5
2253.243	454.5
2257.175	454.5
2261.104	434.5
2265.029	438.5
2268.95	428.5
2272.868	421.5
2276.783	428.5
2280.694	414.5
2284.601	404.5
2288.505	397.5
2292.405	400.5
2296.302	393.5
2300.195	386.5
2304.085	388.5
2307.971	373.5
2311.854	373.5
2315.734	351.5
2319.609	350.5
2323.482	355.5
2327.351	366.5
2331.216	364.5
2335.078	377.5
2338.937	360.5
2342.792	345.5
2346.643	344.5
2350.492	346.5
2354.336	337.5
2358.178	342.5
2362.015	345.5
2365.85	353.5
2369.681	346.5
2373.508	352.5
2377.333	332.5
2381.153	344.5
2384.971	344.5
2388.785	347.5
2392.595	346.5
2396.402	340.5
2400.206	332.5
2404.007	336.5
2407.804	322.5
2411.597	327.5
2415.388	318.5
2419.174	324.5
2422.958	321.5
2426.738	308.5
2430.515	327.5
2434.289	318.5
2438.059	305.5
2441.825	307.5
2445.589	312.5
2449.349	287.5
2453.106	289.5
2456.859	297.5
2460.61	293.5
2464.356	293.5
2468.1	286.5
2471.84	285.5
2475.577	287.5
2479.311	269.5
2483.041	273.5
2486.768	284.5
2490.492	272.5
2494.213	269.5
2497.93	279.5
2501.644	260.5
2505.355	263.5
2509.062	257.5
2512.766	263.5
2516.467	252.5
2520.165	262.5
2523.859	247.5
2527.551	244.5
2531.239	240.5
2534.923	235.5
2538.605	240.5
2542.283	240.5
2545.958	237.5
2549.63	231.5
2553.299	229.5
2556.964	224.5
2560.626	224.5
2564.285	217.5
2567.941	217.5
2571.594	207.5
2575.243	207.5
2578.89	210.5
2582.533	217.5
2586.173	210.5
2589.809	195.5
2593.443	206.5
2597.073	205.5
2600.701	190.5
2604.325	194.5
2607.946	192.5
2611.564	200.5
2615.178	190.5
2618.79	192.5
2622.398	187.5
2626.004	187.5
2629.606	187.5
2633.205	179.5
2636.801	180.5
2640.394	184.5
2643.983	170.5
2647.57	180.5
2651.153	172.5
2654.734	172.5
2658.311	168.5
2661.885	164.5
2665.456	167.5
2669.025	166.5
2672.589	162.5
2676.151	154.5
2679.71	160.5
2683.266	152.5
2686.819	157.5
2690.368	153.5
2693.915	147.5
2697.458	138.5
2700.999	139.5
2704.536	147.5
2708.071	137.5
2711.602	137.5
2715.13	143.5
2718.656	134.5
2722.178	135.5
2725.697	126.5
2729.214	125.5
2732.727	127.5
2736.237	132.5
2739.744	124.5
2743.249	123.5
2746.75	124.5
2750.248	117.5
2753.743	119.5
2757.236	111.5
2760.725	115.5
2764.211	107.5
2767.695	108.5
2771.175	104.5
2774.652	98.5
2778.127	106.5
2781.598	96.5
2785.067	99.5
2788.532	94.5
2791.995	109.5
2795.455	108.5
2798.911	104.5
2802.365	112.5
2805.816	109.5
2809.264	102.5
2812.709	109.5
2816.151	104.5
2819.59	106.5
2823.026	103.5
2826.46	109.5
2829.89	107.5
2833.318	97.5
2836.742	108.5
2840.164	101.5
2843.583	113.5
2846.999	108.5
2850.412	105.5
2853.822	108.5
2857.229	107.5
2860.634	117.5
2864.035	118.5
2867.434	116.5
2870.83	126.5
2874.223	136.5
2877.613	135.5
2881	149.5
2884.385	147.5
2887.766	129.5
2891.145	130.5
2894.521	135.5
2897.894	142.5
2901.264	138.5
2904.631	140.5
2907.996	144.5
2911.358	135.5
2914.717	144.5
2918.073	147.5
2921.426	146.5
2924.777	157.5
2928.124	163.5
2931.469	161.5
2934.811	167.5
2938.15	164.5
2941.487	180.5
2944.821	176.5
2948.152	177.5
2951.48	180.5
2954.805	182.5
2958.128	172.5
2961.447	163.5
2964.765	168.5
2968.079	171.5
2971.39	166.5
2974.699	180.5
2978.005	176.5
2981.308	176.5
2984.609	185.5
2987.907	173.5
2991.202	179.5
2994.494	181.5
2997.784	174.5
3001.07	190.5
3004.355	190.5
3007.636	201.5
3010.915	197.5
3014.191	195.5
3017.464	195.5
3020.734	205.5
3024.002	197.5
3027.267	213.5
3030.53	215.5
3033.789	217.5
3037.046	222.5
3040.301	216.5
3043.552	234.5
3046.801	241.5
3050.048	250.5
3053.291	251.5
3056.532	262.5
3059.771	272.5
3063.006	281.5
3066.239	285.5
3069.469	300.5
3072.697	305.5
3075.922	321.5
3079.144	325.5
3082.364	336.5
3085.581	343.5
3088.795	334.5
3092.007	344.5
3095.216	366.5
3098.423	375.5
3101.627	382.5
3104.828	399.5
3108.026	396.5
3111.222	406.5
3114.416	400.5
3117.607	426.5
3120.795	419.5
3123.98	433.5
3127.163	447.5
3130.344	469.5
3133.521	461.5
3136.696	482.5
3139.869	491.5
3143.039	495.5
3146.206	498.5
3149.371	504.5
3152.533	526.5
3155.693	516.5
3158.85	534.5
3162.005	531.5
3165.157	519.5
3168.306	527.5
3171.453	523.5
3174.597	542.5
3177.739	535.5
3180.878	544.5
3184.014	562.5
3187.149	541.5
3190.28	547.5
3193.409	542.5
3196.536	549.5
3199.659	559.5
3202.781	565.5
3205.9	567.5
3209.016	555.5
3212.13	563.5
3215.241	547.5
3218.35	564.5
3221.456	548.5
3224.56	540.5
3227.661	529.5
3230.76	531.5
3233.856	521.5
3236.95	502.5
3240.041	511.5
3243.13	479.5
3246.216	494.5
3249.3	476.5
3252.382	477.5
3255.46	479.5
3258.537	476.5
3261.611	464.5
3264.682	456.5
3267.751	455.5
3270.818	456.5
3273.882	449.5
3276.943	443.5
3280.002	454.5
3283.059	431.5
3286.113	448.5
3289.165	435.5
3292.214	429.5
3295.261	430.5
3298.306	412.5
3301.348	402.5
3304.387	398.5
3307.425	400.5
3310.459	401.5
3313.492	387.5
3316.521	384.5
3319.549	380.5
3322.574	371.5
3325.597	381.5
3328.617	375.5
3331.635	377.5
3334.65	383.5
3337.663	369.5
3340.674	390.5
3343.682	384.5
3346.688	369.5
3349.691	383.5
3352.692	364.5
3355.691	370.5
3358.687	368.5
3361.681	361.5
3364.673	358.5
3367.662	347.5
3370.649	347.5
3373.633	332.5
3376.615	329.5
3379.595	330.5
3382.572	325.5
3385.547	321.5
3388.52	314.5
3391.49	318.5
3394.458	311.5
3397.424	295.5
3400.387	295.5
3403.348	286.5
3406.307	288.5
3409.263	281.5
3412.217	280.5
3415.168	282.5
3418.118	283.5
3421.065	255.5
3424.009	265.5
3426.951	271.5
3429.891	252.5
3432.829	254.5
3435.764	233.5
3438.697	229.5
3441.628	230.5
3444.557	223.5
3447.483	210.5
3450.407	199.5
3453.328	193.5
3456.247	186.5
3459.164	179.5
3462.079	168.5
3464.991	169.5
3467.902	154.5
3470.809	157.5
3473.715	142.5
3476.618	137.5
3479.519	141.5
3482.418	130.5
3485.315	130.5
3488.209	108.5
3491.101	108.5
3493.99	121.5
3496.878	103.5
3499.763	93.5
3502.646	89.5
3505.527	82.5
3508.405	83.5
3511.281	74.5
3514.155	64.5
3517.027	66.5
3519.897	50.5
3522.764	55.5
3525.629	47.5
3528.492	45.5
3531.352	30.5
3534.211	26.5
3537.067	24.5
3539.921	27.5
3542.773	19.5
3545.622	11.5
3548.469	5.5
3551.315	9.5
3554.157	2.5
3556.998	-5.5
3559.837	-7.5
3562.673	-6.5
3565.507	-9.5
3568.339	-20.5
3571.169	-22.5
3573.996	-23.5
3576.822	-26.5
3579.645	-25.5
3582.466	-25.5
3585.285	-36.5
3588.101	-29.5
3590.916	-41.5
3593.728	-42.5
3596.538	-46.5
3599.346	-43.5
3602.152	-50.5
3604.956	-49.5
3607.757	-46.5
3610.556	-54.5
3613.354	-44.5
3616.149	-64.5
3618.942	-61.5
3621.732	-60.5
3624.521	-56.5
3627.307	-62.5
3630.092	-63.5
3632.874	-65.5
3635.654	-71.5
3638.432	-60.5
3641.208	-72.5
3643.982	-72.5
3646.753	-75.5
3649.523	-77.5
3652.29	-76.5
3655.055	-78.5
3657.818	-75.5
3660.579	-73.5
3663.338	-78.5
3666.095	-80.5
3668.849	-87.5
3671.602	-84.5
3674.352	-88.5
3677.101	-94.5
3679.847	-88.5
3682.591	-89.5
3685.333	-85.5
3688.073	-82.5
3690.811	-90.5
3693.547	-99.5
3696.281	-92.5
3699.013	-99.5
3701.742	-96.5
3704.47	-94.5
3707.195	-90.5
3709.919	-95.5
3712.64	-98.5
3715.359	-102.5
3718.076	-101.5
3720.792	-96.5
3723.505	-103.5
3726.216	-94.5
3728.925	-98.5
3731.632	-96.5
3734.336	-106.5
3737.039	-102.5
3739.74	-105.5
3742.439	-117.5
3745.136	-103.5
3747.83	-112.5
3750.523	-102.5
3753.213	-106.5
3755.902	-100.5
3758.589	-106.5
3761.273	-99.5
3763.956	-98.5
3766.636	-102.5
3769.315	-95.5
3771.991	-99.5
3774.665	-108.5
3777.338	-100.5
3780.008	-106.5
3782.677	-108.5
3785.343	-105.5
3788.007	-107.5
3790.67	-106.5
3793.33	-98.5
3795.989	-104.5
3798.645	-104.5
3801.299	-108.5
3803.952	-116.5
3806.602	-107.5
3809.251	-110.5
3811.897	-110.5
3814.542	-110.5
3817.184	-99.5
3819.825	-100.5
3822.463	-107.5
3825.1	-106.5
3827.735	-110.5
3830.367	-109.5
3832.998	-114.5
3835.627	-108.5
3838.253	-105.5
3840.878	-108.5
3843.501	-107.5
3846.122	-111.5
3848.741	-110.5
3851.358	-109.5
3853.973	-113.5
3856.586	-102.5
3859.197	-118.5
3861.806	-107.5
3864.414	-113.5
3867.019	-110.5
3869.622	-109.5
3872.224	-100.5
3874.823	-98.5
3877.421	-86.5
3880.016	-71.5
3882.61	-61.5
3885.202	-56.5
3887.792	-74.5
3890.38	-85.5
3892.966	-103.5
3895.55	-102.5
3898.132	-107.5
3900.713	-108.5
3903.291	-112.5
3905.868	-113.5
3908.442	-107.5
3911.015	-108.5
3913.586	-106.5
3916.155	-111.5
3918.722	-112.5
3921.287	-108.5
3923.85	-112.5
3926.411	-114.5
3928.971	-111.5
3931.528	-111.5
3934.084	-108.5
3936.638	-100.5
3939.19	-115.5
3941.74	-113.5
3944.288	-108.5
3946.834	-108.5
3949.378	-109.5
3951.921	-110.5
3954.462	-114.5
3957	-110.5
3959.537	-111.5
3962.072	-113.5
3964.606	-105.5
3967.137	-111.5
3969.667	-115.5
3972.194	-113.5
3974.72	-109.5
3977.244	-110.5
3979.766	-109.5
3982.286	-103.5
3984.805	-108.5
3987.321	-110.5
3989.836	-106.5
3992.349	-110.5
3994.86	-109.5
3997.369	-113.5
3999.877	-108.5
4002.382	-102.5
4004.886	-112.5
4007.388	-112.5
4009.888	-105.5
4012.386	-109.5
4014.883	-108.5
4017.377	-108.5
4019.87	-106.5
4022.361	-110.5
4024.85	-114.5
4027.338	-111.5
4029.823	-104.5
4032.307	-107.5
4034.789	-110.5
4037.269	-108.5
4039.747	-109.5
4042.224	-108.5
4044.699	-111.5
4047.172	-105.5
4049.643	-105.5
4052.112	-106.5
4054.58	-109.5
4057.046	-108.5
4059.51	-108.5
4061.972	-110.5
4064.432	-110.5
4066.891	-109.5
4069.348	-103.5
4071.803	-111.5
4074.256	-110.5
4076.708	-109.5
4079.158	-109.5
4081.606	-104.5
4084.052	-116.5
4086.497	-110.5
4088.939	-102.5
4091.38	-108.5
4093.819	-108.5
4096.257	-112.5
4098.693	-113.5
4101.127	-116.5
4103.559	-108.5
4105.989	-4.5
4108.418	-6.5
4110.845	-5.5
4113.27	-6.5
4115.694	-14.5
4118.115	-9.5
4120.535	-111.5
4122.954	-111.5
4125.37	-108.5
4127.785	-110.5
4130.198	-109.5
4132.609	-105.5
4135.019	-110.5
4137.427	-115.5
4139.833	-114.5
4142.237	-115.5
