Data from 2018-2-8_conc=6_n=4_RamanShift_05.txt Node
Date: Mon Mar 12 16:34:58 IST 2018
User: aro
Spectrometer: QEPB0276
Trigger mode: 0
Integration Time (sec): 3.000000E1
Scans to average: 1
Electric dark correction enabled: true
Nonlinearity correction enabled: false
Boxcar width: 0
XAxis mode: Raman Shifts
Number of Pixels in Spectrum: 1044
>>>>>Begin Spectral Data<<<<<
160.701	15.9
166.742	41.9
172.777	142.9
178.805	438.9
184.826	1161.9
190.841	2542.9
196.849	4200.9
202.85	5545.9
208.845	6056.9
214.833	6067.9
220.815	5959.9
226.789	5931.9
232.758	5954.9
238.719	5925.9
244.674	5868.9
250.623	5796.9
256.565	5726.9
262.5	5624.9
268.429	5568.9
274.351	5489.9
280.267	5456.9
286.176	5419.9
292.079	5394.9
297.975	5370.9
303.865	5395.9
309.748	5344.9
315.625	5305.9
321.495	5327.9
327.359	5281.9
333.217	5289.9
339.068	5302.9
344.912	5300.9
350.751	5327.9
356.583	5308.9
362.408	5314.9
368.227	5337.9
374.04	5359.9
379.847	5354.9
385.647	5391.9
391.44	5420.9
397.228	5412.9
403.009	5477.9
408.784	5472.9
414.553	5528.9
420.315	5511.9
426.071	5533.9
431.821	5518.9
437.565	5514.9
443.302	5511.9
449.033	5477.9
454.758	5466.9
460.477	5441.9
466.189	5405.9
471.896	5382.9
477.596	5351.9
483.29	5359.9
488.978	5347.9
494.66	5316.9
500.335	5260.9
506.005	5126.9
511.668	4947.9
517.325	4835.9
522.977	4703.9
528.622	4659.9
534.261	4615.9
539.894	4550.9
545.521	4468.9
551.141	4494.9
556.756	4451.9
562.365	4399.9
567.968	4400.9
573.565	4366.9
579.155	4344.9
584.74	4338.9
590.319	4301.9
595.892	4334.9
601.459	4270.9
607.02	4261.9
612.575	4245.9
618.124	4210.9
623.667	4136.9
629.204	4147.9
634.735	4106.9
640.261	4070.9
645.781	4071.9
651.294	4054.9
656.802	4029.9
662.304	4023.9
667.8	4005.9
673.29	3999.9
678.775	4007.9
684.254	3981.9
689.726	3962.9
695.193	3936.9
700.655	3933.9
706.11	3887.9
711.56	3899.9
717.004	3843.9
722.442	3844.9
727.874	3833.9
733.301	3829.9
738.722	3796.9
744.137	3782.9
749.547	3790.9
754.951	3783.9
760.349	3798.9
765.741	3793.9
771.128	3802.9
776.509	3828.9
781.885	3844.9
787.254	3824.9
792.618	3815.9
797.977	3806.9
803.33	3789.9
808.677	3755.9
814.019	3740.9
819.355	3715.9
824.686	3674.9
830.011	3689.9
835.33	3679.9
840.644	3654.9
845.952	3655.9
851.255	3628.9
856.552	3643.9
861.844	3617.9
867.13	3596.9
872.41	3574.9
877.686	3571.9
882.955	3507.9
888.219	3508.9
893.478	3449.9
898.731	3409.9
903.979	3345.9
909.221	3351.9
914.458	3335.9
919.69	3315.9
924.916	3352.9
930.136	3334.9
935.351	3342.9
940.561	3334.9
945.766	3332.9
950.965	3312.9
956.158	3291.9
961.347	3264.9
966.529	3190.9
971.707	3175.9
976.879	3149.9
982.046	3090.9
987.208	3070.9
992.364	3093.9
997.515	3094.9
1002.66	3118.9
1007.801	3167.9
1012.936	3179.9
1018.066	3183.9
1023.19	3193.9
1028.309	3184.9
1033.423	3190.9
1038.532	3177.9
1043.636	3145.9
1048.734	3106.9
1053.827	3093.9
1058.915	3050.9
1063.998	3026.9
1069.075	2989.9
1074.147	2999.9
1079.214	2995.9
1084.276	3009.9
1089.333	3015.9
1094.385	3087.9
1099.431	3065.9
1104.472	3037.9
1109.509	3031.9
1114.54	2968.9
1119.565	2955.9
1124.586	2888.9
1129.602	2868.9
1134.613	2836.9
1139.618	2850.9
1144.619	2832.9
1149.614	2836.9
1154.604	2856.9
1159.589	2836.9
1164.57	2836.9
1169.545	2858.9
1174.515	2847.9
1179.48	2835.9
1184.44	2814.9
1189.395	2794.9
1194.345	2766.9
1199.29	2740.9
1204.23	2725.9
1209.165	2756.9
1214.095	2785.9
1219.021	2803.9
1223.941	2807.9
1228.856	2796.9
1233.766	2811.9
1238.672	2823.9
1243.572	2810.9
1248.467	2791.9
1253.358	2768.9
1258.244	2719.9
1263.124	2651.9
1268	2634.9
1272.871	2575.9
1277.737	2572.9
1282.599	2574.9
1287.455	2571.9
1292.306	2559.9
1297.153	2572.9
1301.995	2570.9
1306.832	2617.9
1311.664	2640.9
1316.491	2619.9
1321.314	2626.9
1326.132	2590.9
1330.945	2597.9
1335.753	2533.9
1340.556	2511.9
1345.354	2466.9
1350.148	2430.9
1354.937	2384.9
1359.722	2327.9
1364.501	2310.9
1369.276	2270.9
1374.046	2251.9
1378.811	2245.9
1383.572	2219.9
1388.327	2200.9
1393.079	2203.9
1397.825	2199.9
1402.567	2195.9
1407.304	2186.9
1412.036	2206.9
1416.764	2215.9
1421.487	2228.9
1426.205	2207.9
1430.919	2225.9
1435.628	2248.9
1440.333	2247.9
1445.032	2276.9
1449.727	2286.9
1454.418	2305.9
1459.104	2293.9
1463.785	2239.9
1468.462	2223.9
1473.134	2169.9
1477.802	2116.9
1482.465	2095.9
1487.123	2053.9
1491.777	2016.9
1496.426	2001.9
1501.071	1988.9
1505.711	1973.9
1510.347	1974.9
1514.978	1960.9
1519.604	1976.9
1524.226	1960.9
1528.844	1933.9
1533.457	1943.9
1538.065	1933.9
1542.669	1920.9
1547.269	1909.9
1551.864	1923.9
1556.454	1954.9
1561.041	1953.9
1565.622	1964.9
1570.199	1975.9
1574.772	1993.9
1579.34	2019.9
1583.904	2037.9
1588.464	2072.9
1593.019	2053.9
1597.569	2059.9
1602.115	2065.9
1606.657	2049.9
1611.195	2045.9
1615.728	2036.9
1620.256	2032.9
1624.78	2045.9
1629.3	2035.9
1633.816	2047.9
1638.327	2080.9
1642.834	2059.9
1647.336	2078.9
1651.834	2094.9
1656.328	2084.9
1660.817	2075.9
1665.302	2066.9
1669.783	2007.9
1674.259	1983.9
1678.732	1912.9
1683.199	1857.9
1687.663	1823.9
1692.122	1741.9
1696.577	1674.9
1701.028	1614.9
1705.474	1576.9
1709.917	1515.9
1714.355	1481.9
1718.788	1463.9
1723.218	1464.9
1727.643	1456.9
1732.064	1452.9
1736.481	1455.9
1740.893	1428.9
1745.301	1390.9
1749.705	1377.9
1754.105	1355.9
1758.501	1320.9
1762.893	1288.9
1767.28	1283.9
1771.663	1266.9
1776.042	1241.9
1780.417	1242.9
1784.787	1219.9
1789.154	1209.9
1793.516	1205.9
1797.874	1197.9
1802.228	1154.9
1806.578	1170.9
1810.924	1165.9
1815.266	1145.9
1819.603	1140.9
1823.937	1134.9
1828.266	1123.9
1832.591	1128.9
1836.913	1134.9
1841.23	1141.9
1845.543	1133.9
1849.852	1141.9
1854.156	1132.9
1858.457	1142.9
1862.754	1122.9
1867.047	1133.9
1871.335	1127.9
1875.62	1140.9
1879.9	1120.9
1884.177	1132.9
1888.449	1105.9
1892.718	1085.9
1896.982	1087.9
1901.243	1067.9
1905.499	1042.9
1909.752	1027.9
1914	1033.9
1918.245	1014.9
1922.485	997.9
1926.722	988.9
1930.954	982.9
1935.183	978.9
1939.408	973.9
1943.628	959.9
1947.845	961.9
1952.058	970.9
1956.267	940.9
1960.472	943.9
1964.673	925.9
1968.87	930.9
1973.063	923.9
1977.252	911.9
1981.438	921.9
1985.619	916.9
1989.797	917.9
1993.971	918.9
1998.14	915.9
2002.306	906.9
2006.469	927.9
2010.627	936.9
2014.781	927.9
2018.932	911.9
2023.078	931.9
2027.221	917.9
2031.36	898.9
2035.495	890.9
2039.627	891.9
2043.754	870.9
2047.878	871.9
2051.998	856.9
2056.114	842.9
2060.226	841.9
2064.334	838.9
2068.439	852.9
2072.54	838.9
2076.637	833.9
2080.73	833.9
2084.82	830.9
2088.906	819.9
2092.988	806.9
2097.066	815.9
2101.14	785.9
2105.211	791.9
2109.278	769.9
2113.342	766.9
2117.401	753.9
2121.457	745.9
2125.509	745.9
2129.558	752.9
2133.602	751.9
2137.643	750.9
2141.681	750.9
2145.714	741.9
2149.744	750.9
2153.77	743.9
2157.793	731.9
2161.812	725.9
2165.827	739.9
2169.838	714.9
2173.846	700.9
2177.851	678.9
2181.851	676.9
2185.848	676.9
2189.841	677.9
2193.831	667.9
2197.817	662.9
2201.799	653.9
2205.778	649.9
2209.753	648.9
2213.725	652.9
2217.693	649.9
2221.657	646.9
2225.618	653.9
2229.575	650.9
2233.529	632.9
2237.479	629.9
2241.425	622.9
2245.368	611.9
2249.307	610.9
2253.243	600.9
2257.175	585.9
2261.104	585.9
2265.029	566.9
2268.95	570.9
2272.868	549.9
2276.783	550.9
2280.694	544.9
2284.601	538.9
2288.505	540.9
2292.405	535.9
2296.302	519.9
2300.195	514.9
2304.085	505.9
2307.971	490.9
2311.854	491.9
2315.734	482.9
2319.609	476.9
2323.482	466.9
2327.351	469.9
2331.216	482.9
2335.078	493.9
2338.937	470.9
2342.792	463.9
2346.643	444.9
2350.492	451.9
2354.336	457.9
2358.178	451.9
2362.015	450.9
2365.85	456.9
2369.681	456.9
2373.508	464.9
2377.333	460.9
2381.153	459.9
2384.971	452.9
2388.785	451.9
2392.595	446.9
2396.402	445.9
2400.206	434.9
2404.007	438.9
2407.804	446.9
2411.597	421.9
2415.388	426.9
2419.174	429.9
2422.958	440.9
2426.738	424.9
2430.515	420.9
2434.289	414.9
2438.059	416.9
2441.825	408.9
2445.589	400.9
2449.349	397.9
2453.106	404.9
2456.859	391.9
2460.61	379.9
2464.356	378.9
2468.1	376.9
2471.84	370.9
2475.577	381.9
2479.311	359.9
2483.041	357.9
2486.768	365.9
2490.492	350.9
2494.213	359.9
2497.93	348.9
2501.644	361.9
2505.355	342.9
2509.062	341.9
2512.766	347.9
2516.467	333.9
2520.165	339.9
2523.859	331.9
2527.551	325.9
2531.239	316.9
2534.923	307.9
2538.605	309.9
2542.283	301.9
2545.958	302.9
2549.63	297.9
2553.299	293.9
2556.964	296.9
2560.626	293.9
2564.285	284.9
2567.941	283.9
2571.594	286.9
2575.243	269.9
2578.89	275.9
2582.533	268.9
2586.173	264.9
2589.809	250.9
2593.443	255.9
2597.073	266.9
2600.701	254.9
2604.325	252.9
2607.946	253.9
2611.564	251.9
2615.178	243.9
2618.79	242.9
2622.398	250.9
2626.004	238.9
2629.606	246.9
2633.205	242.9
2636.801	233.9
2640.394	230.9
2643.983	229.9
2647.57	230.9
2651.153	232.9
2654.734	216.9
2658.311	213.9
2661.885	210.9
2665.456	216.9
2669.025	212.9
2672.589	212.9
2676.151	215.9
2679.71	205.9
2683.266	197.9
2686.819	206.9
2690.368	204.9
2693.915	198.9
2697.458	188.9
2700.999	188.9
2704.536	189.9
2708.071	187.9
2711.602	169.9
2715.13	171.9
2718.656	171.9
2722.178	162.9
2725.697	167.9
2729.214	157.9
2732.727	163.9
2736.237	163.9
2739.744	158.9
2743.249	150.9
2746.75	163.9
2750.248	152.9
2753.743	145.9
2757.236	139.9
2760.725	143.9
2764.211	127.9
2767.695	127.9
2771.175	120.9
2774.652	121.9
2778.127	121.9
2781.598	122.9
2785.067	135.9
2788.532	134.9
2791.995	128.9
2795.455	134.9
2798.911	130.9
2802.365	141.9
2805.816	139.9
2809.264	126.9
2812.709	134.9
2816.151	136.9
2819.59	132.9
2823.026	131.9
2826.46	128.9
2829.89	132.9
2833.318	129.9
2836.742	134.9
2840.164	133.9
2843.583	132.9
2846.999	138.9
2850.412	146.9
2853.822	149.9
2857.229	137.9
2860.634	150.9
2864.035	152.9
2867.434	148.9
2870.83	162.9
2874.223	168.9
2877.613	170.9
2881	180.9
2884.385	185.9
2887.766	172.9
2891.145	179.9
2894.521	176.9
2897.894	185.9
2901.264	186.9
2904.631	183.9
2907.996	192.9
2911.358	192.9
2914.717	195.9
2918.073	196.9
2921.426	198.9
2924.777	211.9
2928.124	216.9
2931.469	208.9
2934.811	222.9
2938.15	226.9
2941.487	239.9
2944.821	243.9
2948.152	240.9
2951.48	235.9
2954.805	241.9
2958.128	237.9
2961.447	227.9
2964.765	235.9
2968.079	226.9
2971.39	229.9
2974.699	236.9
2978.005	237.9
2981.308	233.9
2984.609	239.9
2987.907	239.9
2991.202	248.9
2994.494	251.9
2997.784	242.9
3001.07	252.9
3004.355	259.9
3007.636	254.9
3010.915	269.9
3014.191	267.9
3017.464	269.9
3020.734	275.9
3024.002	278.9
3027.267	288.9
3030.53	291.9
3033.789	303.9
3037.046	311.9
3040.301	307.9
3043.552	326.9
3046.801	329.9
3050.048	336.9
3053.291	347.9
3056.532	369.9
3059.771	376.9
3063.006	394.9
3066.239	407.9
3069.469	412.9
3072.697	422.9
3075.922	443.9
3079.144	442.9
3082.364	467.9
3085.581	486.9
3088.795	477.9
3092.007	484.9
3095.216	502.9
3098.423	509.9
3101.627	538.9
3104.828	533.9
3108.026	535.9
3111.222	538.9
3114.416	557.9
3117.607	571.9
3120.795	594.9
3123.98	592.9
3127.163	624.9
3130.344	637.9
3133.521	649.9
3136.696	672.9
3139.869	663.9
3143.039	670.9
3146.206	684.9
3149.371	702.9
3152.533	713.9
3155.693	715.9
3158.85	723.9
3162.005	746.9
3165.157	739.9
3168.306	740.9
3171.453	736.9
3174.597	742.9
3177.739	756.9
3180.878	757.9
3184.014	751.9
3187.149	756.9
3190.28	771.9
3193.409	766.9
3196.536	766.9
3199.659	773.9
3202.781	774.9
3205.9	779.9
3209.016	783.9
3212.13	781.9
3215.241	773.9
3218.35	763.9
3221.456	754.9
3224.56	737.9
3227.661	724.9
3230.76	731.9
3233.856	724.9
3236.95	702.9
3240.041	698.9
3243.13	688.9
3246.216	674.9
3249.3	662.9
3252.382	659.9
3255.46	654.9
3258.537	643.9
3261.611	646.9
3264.682	639.9
3267.751	636.9
3270.818	638.9
3273.882	623.9
3276.943	614.9
3280.002	614.9
3283.059	620.9
3286.113	623.9
3289.165	612.9
3292.214	611.9
3295.261	586.9
3298.306	579.9
3301.348	571.9
3304.387	566.9
3307.425	571.9
3310.459	555.9
3313.492	551.9
3316.521	549.9
3319.549	545.9
3322.574	537.9
3325.597	528.9
3328.617	541.9
3331.635	530.9
3334.65	526.9
3337.663	520.9
3340.674	526.9
3343.682	516.9
3346.688	516.9
3349.691	520.9
3352.692	511.9
3355.691	510.9
3358.687	514.9
3361.681	503.9
3364.673	496.9
3367.662	495.9
3370.649	482.9
3373.633	484.9
3376.615	466.9
3379.595	455.9
3382.572	453.9
3385.547	443.9
3388.52	448.9
3391.49	422.9
3394.458	430.9
3397.424	413.9
3400.387	404.9
3403.348	408.9
3406.307	399.9
3409.263	398.9
3412.217	388.9
3415.168	392.9
3418.118	386.9
3421.065	377.9
3424.009	375.9
3426.951	360.9
3429.891	351.9
3432.829	340.9
3435.764	332.9
3438.697	316.9
3441.628	305.9
3444.557	311.9
3447.483	295.9
3450.407	274.9
3453.328	266.9
3456.247	263.9
3459.164	251.9
3462.079	239.9
3464.991	232.9
3467.902	236.9
3470.809	214.9
3473.715	196.9
3476.618	196.9
3479.519	189.9
3482.418	179.9
3485.315	166.9
3488.209	163.9
3491.101	150.9
3493.99	156.9
3496.878	140.9
3499.763	130.9
3502.646	122.9
3505.527	114.9
3508.405	111.9
3511.281	99.9
3514.155	98.9
3517.027	87.9
3519.897	73.9
3522.764	70.9
3525.629	58.9
3528.492	51.9
3531.352	47.9
3534.211	37.9
3537.067	27.9
3539.921	37.9
3542.773	21.9
3545.622	6.9
3548.469	3.9
3551.315	6.9
3554.157	-3.1
3556.998	-14.1
3559.837	-12.1
3562.673	-20.1
3565.507	-24.1
3568.339	-25.1
3571.169	-36.1
3573.996	-32.1
3576.822	-40.1
3579.645	-34.1
3582.466	-41.1
3585.285	-48.1
3588.101	-37.1
3590.916	-64.1
3593.728	-62.1
3596.538	-69.1
3599.346	-57.1
3602.152	-64.1
3604.956	-70.1
3607.757	-70.1
3610.556	-80.1
3613.354	-78.1
3616.149	-81.1
3618.942	-88.1
3621.732	-89.1
3624.521	-87.1
3627.307	-88.1
3630.092	-90.1
3632.874	-90.1
3635.654	-96.1
3638.432	-100.1
3641.208	-96.1
3643.982	-101.1
3646.753	-103.1
3649.523	-107.1
3652.29	-106.1
3655.055	-107.1
3657.818	-106.1
3660.579	-114.1
3663.338	-109.1
3666.095	-119.1
3668.849	-122.1
3671.602	-118.1
3674.352	-120.1
3677.101	-122.1
3679.847	-123.1
3682.591	-120.1
3685.333	-121.1
3688.073	-121.1
3690.811	-126.1
3693.547	-134.1
3696.281	-129.1
3699.013	-134.1
3701.742	-132.1
3704.47	-134.1
3707.195	-127.1
3709.919	-134.1
3712.64	-137.1
3715.359	-140.1
3718.076	-142.1
3720.792	-142.1
3723.505	-141.1
3726.216	-132.1
3728.925	-142.1
3731.632	-142.1
3734.336	-148.1
3737.039	-142.1
3739.74	-145.1
3742.439	-153.1
3745.136	-144.1
3747.83	-149.1
3750.523	-145.1
3753.213	-142.1
3755.902	-144.1
3758.589	-157.1
3761.273	-143.1
3763.956	-145.1
3766.636	-145.1
3769.315	-140.1
3771.991	-141.1
3774.665	-149.1
3777.338	-142.1
3780.008	-150.1
3782.677	-151.1
3785.343	-153.1
3788.007	-154.1
3790.67	-150.1
3793.33	-146.1
3795.989	-146.1
3798.645	-147.1
3801.299	-150.1
3803.952	-152.1
3806.602	-149.1
3809.251	-153.1
3811.897	-153.1
3814.542	-151.1
3817.184	-144.1
3819.825	-148.1
3822.463	-156.1
3825.1	-149.1
3827.735	-154.1
3830.367	-150.1
3832.998	-156.1
3835.627	-144.1
3838.253	-147.1
3840.878	-151.1
3843.501	-146.1
3846.122	-153.1
3848.741	-157.1
3851.358	-152.1
3853.973	-155.1
3856.586	-151.1
3859.197	-161.1
3861.806	-147.1
3864.414	-151.1
3867.019	-150.1
3869.622	-153.1
3872.224	-140.1
3874.823	-133.1
3877.421	-121.1
3880.016	-99.1
3882.61	-77.1
3885.202	-80.1
3887.792	-101.1
3890.38	-118.1
3892.966	-142.1
3895.55	-140.1
3898.132	-154.1
3900.713	-153.1
3903.291	-156.1
3905.868	-155.1
3908.442	-153.1
3911.015	-159.1
3913.586	-155.1
3916.155	-159.1
3918.722	-155.1
3921.287	-154.1
3923.85	-156.1
3926.411	-157.1
3928.971	-155.1
3931.528	-158.1
3934.084	-150.1
3936.638	-150.1
3939.19	-152.1
3941.74	-152.1
3944.288	-156.1
3946.834	-151.1
3949.378	-155.1
3951.921	-155.1
3954.462	-162.1
3957	-157.1
3959.537	-151.1
3962.072	-153.1
3964.606	-155.1
3967.137	-153.1
3969.667	-155.1
3972.194	-158.1
3974.72	-151.1
3977.244	-157.1
3979.766	-151.1
3982.286	-150.1
3984.805	-155.1
3987.321	-152.1
3989.836	-144.1
3992.349	-155.1
3994.86	-155.1
3997.369	-152.1
3999.877	-149.1
4002.382	-151.1
4004.886	-157.1
4007.388	-150.1
4009.888	-151.1
4012.386	-155.1
4014.883	-155.1
4017.377	-151.1
4019.87	-149.1
4022.361	-157.1
4024.85	-155.1
4027.338	-156.1
4029.823	-151.1
4032.307	-151.1
4034.789	-151.1
4037.269	-152.1
4039.747	-147.1
4042.224	-151.1
4044.699	-158.1
4047.172	-150.1
4049.643	-154.1
4052.112	-150.1
4054.58	-149.1
4057.046	-157.1
4059.51	-149.1
4061.972	-153.1
4064.432	-152.1
4066.891	-151.1
4069.348	-152.1
4071.803	-154.1
4074.256	-156.1
4076.708	-150.1
4079.158	-150.1
4081.606	-149.1
4084.052	-150.1
4086.497	-150.1
4088.939	-147.1
4091.38	-154.1
4093.819	-155.1
4096.257	-163.1
4098.693	-158.1
4101.127	-159.1
4103.559	-155.1
4105.989	2.9
4108.418	-11.1
4110.845	-12.1
4113.27	-10.1
4115.694	-16.1
4118.115	-18.1
4120.535	-152.1
4122.954	-155.1
4125.37	-148.1
4127.785	-152.1
4130.198	-151.1
4132.609	-150.1
4135.019	-161.1
4137.427	-161.1
4139.833	-156.1
4142.237	-161.1
