Data from 2018-2-8_conc=0_n=4_RamanShift_05.txt Node
Date: Mon Mar 12 13:31:29 IST 2018
User: aro
Spectrometer: QEPB0276
Trigger mode: 0
Integration Time (sec): 3.000000E1
Scans to average: 1
Electric dark correction enabled: true
Nonlinearity correction enabled: false
Boxcar width: 0
XAxis mode: Raman Shifts
Number of Pixels in Spectrum: 1044
>>>>>Begin Spectral Data<<<<<
160.701	17.5
166.742	49.5
172.777	122.5
178.805	377.5
184.826	1029.5
190.841	2285.5
196.849	3821.5
202.85	5002.5
208.845	5465.5
214.833	5474.5
220.815	5406.5
226.789	5373.5
232.758	5383.5
238.719	5372.5
244.674	5358.5
250.623	5289.5
256.565	5244.5
262.5	5166.5
268.429	5105.5
274.351	5060.5
280.267	5040.5
286.176	4985.5
292.079	4961.5
297.975	4946.5
303.865	4952.5
309.748	4916.5
315.625	4879.5
321.495	4901.5
327.359	4894.5
333.217	4903.5
339.068	4895.5
344.912	4922.5
350.751	4908.5
356.583	4931.5
362.408	4962.5
368.227	4929.5
374.04	4952.5
379.847	4982.5
385.647	4997.5
391.44	4999.5
397.228	5041.5
403.009	5051.5
408.784	5043.5
414.553	5097.5
420.315	5097.5
426.071	5128.5
431.821	5134.5
437.565	5073.5
443.302	5066.5
449.033	5062.5
454.758	5050.5
460.477	5011.5
466.189	5017.5
471.896	4991.5
477.596	4926.5
483.29	4921.5
488.978	4935.5
494.66	4912.5
500.335	4833.5
506.005	4723.5
511.668	4549.5
517.325	4445.5
522.977	4345.5
528.622	4244.5
534.261	4204.5
539.894	4148.5
545.521	4135.5
551.141	4104.5
556.756	4075.5
562.365	4042.5
567.968	4052.5
573.565	3989.5
579.155	3970.5
584.74	3974.5
590.319	3948.5
595.892	3939.5
601.459	3920.5
607.02	3912.5
612.575	3882.5
618.124	3858.5
623.667	3843.5
629.204	3812.5
634.735	3771.5
640.261	3718.5
645.781	3734.5
651.294	3697.5
656.802	3707.5
662.304	3670.5
667.8	3669.5
673.29	3696.5
678.775	3655.5
684.254	3658.5
689.726	3638.5
695.193	3631.5
700.655	3600.5
706.11	3602.5
711.56	3577.5
717.004	3562.5
722.442	3532.5
727.874	3524.5
733.301	3521.5
738.722	3492.5
744.137	3478.5
749.547	3475.5
754.951	3451.5
760.349	3464.5
765.741	3485.5
771.128	3512.5
776.509	3509.5
781.885	3548.5
787.254	3562.5
792.618	3546.5
797.977	3503.5
803.33	3488.5
808.677	3449.5
814.019	3443.5
819.355	3403.5
824.686	3392.5
830.011	3367.5
835.33	3360.5
840.644	3359.5
845.952	3359.5
851.255	3350.5
856.552	3343.5
861.844	3307.5
867.13	3314.5
872.41	3296.5
877.686	3292.5
882.955	3287.5
888.219	3254.5
893.478	3230.5
898.731	3126.5
903.979	3092.5
909.221	3070.5
914.458	3071.5
919.69	3052.5
924.916	3064.5
930.136	3082.5
935.351	3067.5
940.561	3060.5
945.766	3072.5
950.965	3042.5
956.158	3060.5
961.347	2990.5
966.529	2965.5
971.707	2938.5
976.879	2902.5
982.046	2851.5
987.208	2850.5
992.364	2845.5
997.515	2856.5
1002.66	2890.5
1007.801	2911.5
1012.936	2934.5
1018.066	2933.5
1023.19	2927.5
1028.309	2930.5
1033.423	2932.5
1038.532	2929.5
1043.636	2929.5
1048.734	2896.5
1053.827	2856.5
1058.915	2800.5
1063.998	2812.5
1069.075	2785.5
1074.147	2781.5
1079.214	2794.5
1084.276	2810.5
1089.333	2823.5
1094.385	2833.5
1099.431	2819.5
1104.472	2828.5
1109.509	2786.5
1114.54	2754.5
1119.565	2722.5
1124.586	2701.5
1129.602	2674.5
1134.613	2626.5
1139.618	2608.5
1144.619	2585.5
1149.614	2590.5
1154.604	2625.5
1159.589	2639.5
1164.57	2630.5
1169.545	2644.5
1174.515	2640.5
1179.48	2620.5
1184.44	2592.5
1189.395	2554.5
1194.345	2535.5
1199.29	2530.5
1204.23	2543.5
1209.165	2544.5
1214.095	2582.5
1219.021	2572.5
1223.941	2584.5
1228.856	2617.5
1233.766	2610.5
1238.672	2602.5
1243.572	2581.5
1248.467	2581.5
1253.358	2575.5
1258.244	2511.5
1263.124	2459.5
1268	2440.5
1272.871	2419.5
1277.737	2418.5
1282.599	2372.5
1287.455	2377.5
1292.306	2378.5
1297.153	2408.5
1301.995	2402.5
1306.832	2427.5
1311.664	2429.5
1316.491	2452.5
1321.314	2447.5
1326.132	2421.5
1330.945	2382.5
1335.753	2346.5
1340.556	2297.5
1345.354	2272.5
1350.148	2235.5
1354.937	2204.5
1359.722	2153.5
1364.501	2126.5
1369.276	2098.5
1374.046	2070.5
1378.811	2013.5
1383.572	2013.5
1388.327	2021.5
1393.079	2035.5
1397.825	2018.5
1402.567	2025.5
1407.304	2035.5
1412.036	2042.5
1416.764	2047.5
1421.487	2047.5
1426.205	2046.5
1430.919	2059.5
1435.628	2074.5
1440.333	2070.5
1445.032	2099.5
1449.727	2129.5
1454.418	2137.5
1459.104	2128.5
1463.785	2094.5
1468.462	2069.5
1473.134	2007.5
1477.802	1969.5
1482.465	1902.5
1487.123	1879.5
1491.777	1856.5
1496.426	1835.5
1501.071	1840.5
1505.711	1827.5
1510.347	1809.5
1514.978	1798.5
1519.604	1794.5
1524.226	1780.5
1528.844	1764.5
1533.457	1762.5
1538.065	1770.5
1542.669	1741.5
1547.269	1763.5
1551.864	1758.5
1556.454	1777.5
1561.041	1806.5
1565.622	1801.5
1570.199	1800.5
1574.772	1834.5
1579.34	1855.5
1583.904	1870.5
1588.464	1887.5
1593.019	1882.5
1597.569	1887.5
1602.115	1900.5
1606.657	1895.5
1611.195	1863.5
1615.728	1859.5
1620.256	1851.5
1624.78	1859.5
1629.3	1839.5
1633.816	1851.5
1638.327	1886.5
1642.834	1880.5
1647.336	1900.5
1651.834	1878.5
1656.328	1892.5
1660.817	1875.5
1665.302	1856.5
1669.783	1804.5
1674.259	1762.5
1678.732	1758.5
1683.199	1703.5
1687.663	1623.5
1692.122	1578.5
1696.577	1494.5
1701.028	1449.5
1705.474	1395.5
1709.917	1351.5
1714.355	1330.5
1718.788	1324.5
1723.218	1330.5
1727.643	1317.5
1732.064	1333.5
1736.481	1309.5
1740.893	1292.5
1745.301	1247.5
1749.705	1241.5
1754.105	1223.5
1758.501	1204.5
1762.893	1178.5
1767.28	1161.5
1771.663	1157.5
1776.042	1147.5
1780.417	1117.5
1784.787	1103.5
1789.154	1087.5
1793.516	1091.5
1797.874	1071.5
1802.228	1047.5
1806.578	1027.5
1810.924	1031.5
1815.266	1009.5
1819.603	1024.5
1823.937	1025.5
1828.266	1041.5
1832.591	1025.5
1836.913	1020.5
1841.23	1023.5
1845.543	1029.5
1849.852	1020.5
1854.156	1020.5
1858.457	1019.5
1862.754	1028.5
1867.047	1043.5
1871.335	1034.5
1875.62	1029.5
1879.9	1017.5
1884.177	1002.5
1888.449	991.5
1892.718	989.5
1896.982	976.5
1901.243	949.5
1905.499	964.5
1909.752	941.5
1914	928.5
1918.245	913.5
1922.485	891.5
1926.722	894.5
1930.954	899.5
1935.183	887.5
1939.408	876.5
1943.628	866.5
1947.845	855.5
1952.058	858.5
1956.267	833.5
1960.472	830.5
1964.673	832.5
1968.87	826.5
1973.063	826.5
1977.252	817.5
1981.438	817.5
1985.619	820.5
1989.797	814.5
1993.971	816.5
1998.14	821.5
2002.306	812.5
2006.469	826.5
2010.627	825.5
2014.781	834.5
2018.932	823.5
2023.078	822.5
2027.221	817.5
2031.36	815.5
2035.495	800.5
2039.627	778.5
2043.754	765.5
2047.878	762.5
2051.998	763.5
2056.114	760.5
2060.226	759.5
2064.334	749.5
2068.439	755.5
2072.54	751.5
2076.637	746.5
2080.73	736.5
2084.82	742.5
2088.906	740.5
2092.988	728.5
2097.066	708.5
2101.14	708.5
2105.211	703.5
2109.278	696.5
2113.342	675.5
2117.401	672.5
2121.457	668.5
2125.509	662.5
2129.558	652.5
2133.602	666.5
2137.643	680.5
2141.681	675.5
2145.714	653.5
2149.744	668.5
2153.77	657.5
2157.793	657.5
2161.812	662.5
2165.827	654.5
2169.838	645.5
2173.846	638.5
2177.851	627.5
2181.851	603.5
2185.848	612.5
2189.841	622.5
2193.831	609.5
2197.817	610.5
2201.799	592.5
2205.778	591.5
2209.753	587.5
2213.725	590.5
2217.693	595.5
2221.657	596.5
2225.618	587.5
2229.575	581.5
2233.529	589.5
2237.479	573.5
2241.425	569.5
2245.368	560.5
2249.307	558.5
2253.243	540.5
2257.175	529.5
2261.104	541.5
2265.029	524.5
2268.95	534.5
2272.868	504.5
2276.783	510.5
2280.694	498.5
2284.601	499.5
2288.505	494.5
2292.405	483.5
2296.302	496.5
2300.195	473.5
2304.085	484.5
2307.971	454.5
2311.854	459.5
2315.734	442.5
2319.609	443.5
2323.482	447.5
2327.351	450.5
2331.216	462.5
2335.078	473.5
2338.937	450.5
2342.792	441.5
2346.643	436.5
2350.492	440.5
2354.336	439.5
2358.178	436.5
2362.015	432.5
2365.85	438.5
2369.681	435.5
2373.508	446.5
2377.333	446.5
2381.153	437.5
2384.971	439.5
2388.785	425.5
2392.595	417.5
2396.402	428.5
2400.206	423.5
2404.007	412.5
2407.804	422.5
2411.597	425.5
2415.388	415.5
2419.174	407.5
2422.958	409.5
2426.738	404.5
2430.515	410.5
2434.289	412.5
2438.059	402.5
2441.825	397.5
2445.589	387.5
2449.349	379.5
2453.106	377.5
2456.859	380.5
2460.61	389.5
2464.356	358.5
2468.1	369.5
2471.84	361.5
2475.577	367.5
2479.311	351.5
2483.041	345.5
2486.768	357.5
2490.492	342.5
2494.213	362.5
2497.93	336.5
2501.644	347.5
2505.355	332.5
2509.062	331.5
2512.766	336.5
2516.467	327.5
2520.165	326.5
2523.859	323.5
2527.551	313.5
2531.239	306.5
2534.923	301.5
2538.605	310.5
2542.283	296.5
2545.958	292.5
2549.63	297.5
2553.299	290.5
2556.964	293.5
2560.626	289.5
2564.285	279.5
2567.941	277.5
2571.594	274.5
2575.243	272.5
2578.89	255.5
2582.533	261.5
2586.173	255.5
2589.809	257.5
2593.443	256.5
2597.073	255.5
2600.701	244.5
2604.325	240.5
2607.946	241.5
2611.564	243.5
2615.178	244.5
2618.79	238.5
2622.398	240.5
2626.004	237.5
2629.606	235.5
2633.205	234.5
2636.801	238.5
2640.394	228.5
2643.983	228.5
2647.57	227.5
2651.153	223.5
2654.734	225.5
2658.311	212.5
2661.885	212.5
2665.456	216.5
2669.025	222.5
2672.589	203.5
2676.151	204.5
2679.71	201.5
2683.266	203.5
2686.819	200.5
2690.368	207.5
2693.915	194.5
2697.458	184.5
2700.999	194.5
2704.536	183.5
2708.071	176.5
2711.602	173.5
2715.13	176.5
2718.656	168.5
2722.178	174.5
2725.697	162.5
2729.214	155.5
2732.727	168.5
2736.237	167.5
2739.744	153.5
2743.249	151.5
2746.75	161.5
2750.248	141.5
2753.743	146.5
2757.236	138.5
2760.725	134.5
2764.211	127.5
2767.695	121.5
2771.175	116.5
2774.652	118.5
2778.127	124.5
2781.598	123.5
2785.067	131.5
2788.532	132.5
2791.995	124.5
2795.455	130.5
2798.911	122.5
2802.365	126.5
2805.816	132.5
2809.264	130.5
2812.709	141.5
2816.151	140.5
2819.59	129.5
2823.026	127.5
2826.46	128.5
2829.89	122.5
2833.318	128.5
2836.742	138.5
2840.164	133.5
2843.583	145.5
2846.999	139.5
2850.412	140.5
2853.822	142.5
2857.229	128.5
2860.634	147.5
2864.035	158.5
2867.434	147.5
2870.83	160.5
2874.223	170.5
2877.613	166.5
2881	177.5
2884.385	180.5
2887.766	179.5
2891.145	172.5
2894.521	183.5
2897.894	184.5
2901.264	196.5
2904.631	182.5
2907.996	183.5
2911.358	180.5
2914.717	191.5
2918.073	187.5
2921.426	199.5
2924.777	207.5
2928.124	220.5
2931.469	215.5
2934.811	218.5
2938.15	219.5
2941.487	230.5
2944.821	232.5
2948.152	223.5
2951.48	227.5
2954.805	228.5
2958.128	214.5
2961.447	211.5
2964.765	209.5
2968.079	213.5
2971.39	209.5
2974.699	221.5
2978.005	215.5
2981.308	217.5
2984.609	217.5
2987.907	209.5
2991.202	218.5
2994.494	220.5
2997.784	220.5
3001.07	228.5
3004.355	224.5
3007.636	226.5
3010.915	225.5
3014.191	227.5
3017.464	232.5
3020.734	239.5
3024.002	226.5
3027.267	255.5
3030.53	251.5
3033.789	250.5
3037.046	267.5
3040.301	265.5
3043.552	275.5
3046.801	283.5
3050.048	283.5
3053.291	298.5
3056.532	307.5
3059.771	325.5
3063.006	321.5
3066.239	344.5
3069.469	362.5
3072.697	367.5
3075.922	387.5
3079.144	388.5
3082.364	391.5
3085.581	399.5
3088.795	405.5
3092.007	414.5
3095.216	425.5
3098.423	438.5
3101.627	449.5
3104.828	460.5
3108.026	476.5
3111.222	465.5
3114.416	481.5
3117.607	496.5
3120.795	505.5
3123.98	501.5
3127.163	531.5
3130.344	550.5
3133.521	549.5
3136.696	563.5
3139.869	576.5
3143.039	575.5
3146.206	576.5
3149.371	601.5
3152.533	608.5
3155.693	607.5
3158.85	612.5
3162.005	614.5
3165.157	621.5
3168.306	618.5
3171.453	622.5
3174.597	624.5
3177.739	626.5
3180.878	623.5
3184.014	637.5
3187.149	633.5
3190.28	643.5
3193.409	640.5
3196.536	649.5
3199.659	649.5
3202.781	661.5
3205.9	644.5
3209.016	658.5
3212.13	643.5
3215.241	647.5
3218.35	641.5
3221.456	629.5
3224.56	626.5
3227.661	613.5
3230.76	597.5
3233.856	582.5
3236.95	581.5
3240.041	582.5
3243.13	565.5
3246.216	558.5
3249.3	549.5
3252.382	542.5
3255.46	551.5
3258.537	537.5
3261.611	532.5
3264.682	516.5
3267.751	522.5
3270.818	527.5
3273.882	515.5
3276.943	508.5
3280.002	516.5
3283.059	502.5
3286.113	503.5
3289.165	507.5
3292.214	489.5
3295.261	483.5
3298.306	479.5
3301.348	461.5
3304.387	478.5
3307.425	454.5
3310.459	455.5
3313.492	461.5
3316.521	455.5
3319.549	453.5
3322.574	452.5
3325.597	446.5
3328.617	433.5
3331.635	445.5
3334.65	432.5
3337.663	416.5
3340.674	437.5
3343.682	439.5
3346.688	435.5
3349.691	436.5
3352.692	426.5
3355.691	420.5
3358.687	421.5
3361.681	425.5
3364.673	435.5
3367.662	411.5
3370.649	401.5
3373.633	379.5
3376.615	383.5
3379.595	377.5
3382.572	377.5
3385.547	370.5
3388.52	363.5
3391.49	349.5
3394.458	365.5
3397.424	352.5
3400.387	342.5
3403.348	340.5
3406.307	323.5
3409.263	326.5
3412.217	332.5
3415.168	314.5
3418.118	319.5
3421.065	305.5
3424.009	306.5
3426.951	301.5
3429.891	293.5
3432.829	276.5
3435.764	270.5
3438.697	267.5
3441.628	260.5
3444.557	251.5
3447.483	250.5
3450.407	231.5
3453.328	218.5
3456.247	212.5
3459.164	198.5
3462.079	199.5
3464.991	188.5
3467.902	177.5
3470.809	178.5
3473.715	167.5
3476.618	158.5
3479.519	148.5
3482.418	152.5
3485.315	131.5
3488.209	129.5
3491.101	123.5
3493.99	126.5
3496.878	110.5
3499.763	101.5
3502.646	93.5
3505.527	85.5
3508.405	89.5
3511.281	84.5
3514.155	70.5
3517.027	64.5
3519.897	60.5
3522.764	54.5
3525.629	41.5
3528.492	38.5
3531.352	26.5
3534.211	28.5
3537.067	27.5
3539.921	18.5
3542.773	17.5
3545.622	1.5
3548.469	-5.5
3551.315	-2.5
3554.157	-8.5
3556.998	-18.5
3559.837	-9.5
3562.673	-21.5
3565.507	-25.5
3568.339	-26.5
3571.169	-42.5
3573.996	-35.5
3576.822	-30.5
3579.645	-34.5
3582.466	-39.5
3585.285	-42.5
3588.101	-38.5
3590.916	-55.5
3593.728	-61.5
3596.538	-58.5
3599.346	-62.5
3602.152	-63.5
3604.956	-62.5
3607.757	-59.5
3610.556	-69.5
3613.354	-66.5
3616.149	-78.5
3618.942	-80.5
3621.732	-84.5
3624.521	-79.5
3627.307	-82.5
3630.092	-81.5
3632.874	-84.5
3635.654	-92.5
3638.432	-86.5
3641.208	-81.5
3643.982	-92.5
3646.753	-97.5
3649.523	-89.5
3652.29	-89.5
3655.055	-94.5
3657.818	-95.5
3660.579	-92.5
3663.338	-98.5
3666.095	-105.5
3668.849	-111.5
3671.602	-100.5
3674.352	-104.5
3677.101	-109.5
3679.847	-108.5
3682.591	-113.5
3685.333	-107.5
3688.073	-113.5
3690.811	-111.5
3693.547	-120.5
3696.281	-116.5
3699.013	-112.5
3701.742	-111.5
3704.47	-115.5
3707.195	-108.5
3709.919	-119.5
3712.64	-119.5
3715.359	-125.5
3718.076	-119.5
3720.792	-126.5
3723.505	-128.5
3726.216	-118.5
3728.925	-127.5
3731.632	-122.5
3734.336	-128.5
3737.039	-120.5
3739.74	-130.5
3742.439	-133.5
3745.136	-124.5
3747.83	-130.5
3750.523	-126.5
3753.213	-126.5
3755.902	-127.5
3758.589	-130.5
3761.273	-124.5
3763.956	-127.5
3766.636	-128.5
3769.315	-123.5
3771.991	-126.5
3774.665	-132.5
3777.338	-125.5
3780.008	-128.5
3782.677	-134.5
3785.343	-130.5
3788.007	-130.5
3790.67	-126.5
3793.33	-124.5
3795.989	-127.5
3798.645	-128.5
3801.299	-131.5
3803.952	-132.5
3806.602	-131.5
3809.251	-136.5
3811.897	-141.5
3814.542	-132.5
3817.184	-126.5
3819.825	-129.5
3822.463	-129.5
3825.1	-129.5
3827.735	-133.5
3830.367	-132.5
3832.998	-138.5
3835.627	-135.5
3838.253	-129.5
3840.878	-129.5
3843.501	-131.5
3846.122	-126.5
3848.741	-135.5
3851.358	-132.5
3853.973	-140.5
3856.586	-134.5
3859.197	-138.5
3861.806	-129.5
3864.414	-131.5
3867.019	-129.5
3869.622	-132.5
3872.224	-118.5
3874.823	-115.5
3877.421	-106.5
3880.016	-85.5
3882.61	-61.5
3885.202	-57.5
3887.792	-69.5
3890.38	-96.5
3892.966	-116.5
3895.55	-126.5
3898.132	-131.5
3900.713	-132.5
3903.291	-131.5
3905.868	-138.5
3908.442	-130.5
3911.015	-132.5
3913.586	-137.5
3916.155	-135.5
3918.722	-139.5
3921.287	-134.5
3923.85	-142.5
3926.411	-140.5
3928.971	-133.5
3931.528	-136.5
3934.084	-134.5
3936.638	-129.5
3939.19	-137.5
3941.74	-136.5
3944.288	-139.5
3946.834	-135.5
3949.378	-135.5
3951.921	-138.5
3954.462	-138.5
3957	-131.5
3959.537	-133.5
3962.072	-135.5
3964.606	-134.5
3967.137	-131.5
3969.667	-142.5
3972.194	-138.5
3974.72	-133.5
3977.244	-137.5
3979.766	-133.5
3982.286	-133.5
3984.805	-137.5
3987.321	-132.5
3989.836	-128.5
3992.349	-136.5
3994.86	-135.5
3997.369	-132.5
3999.877	-132.5
4002.382	-125.5
4004.886	-134.5
4007.388	-132.5
4009.888	-139.5
4012.386	-138.5
4014.883	-134.5
4017.377	-136.5
4019.87	-132.5
4022.361	-135.5
4024.85	-128.5
4027.338	-134.5
4029.823	-130.5
4032.307	-130.5
4034.789	-135.5
4037.269	-136.5
4039.747	-131.5
4042.224	-131.5
4044.699	-136.5
4047.172	-130.5
4049.643	-128.5
4052.112	-136.5
4054.58	-137.5
4057.046	-135.5
4059.51	-134.5
4061.972	-130.5
4064.432	-133.5
4066.891	-134.5
4069.348	-135.5
4071.803	-143.5
4074.256	-132.5
4076.708	-130.5
4079.158	-135.5
4081.606	-128.5
4084.052	-133.5
4086.497	-127.5
4088.939	-127.5
4091.38	-131.5
4093.819	-139.5
4096.257	-140.5
4098.693	-136.5
4101.127	-139.5
4103.559	-136.5
4105.989	7.5
4108.418	-2.5
4110.845	-4.5
4113.27	-1.5
4115.694	-6.5
4118.115	-5.5
4120.535	-140.5
4122.954	-135.5
4125.37	-130.5
4127.785	-134.5
4130.198	-130.5
4132.609	-135.5
4135.019	-140.5
4137.427	-142.5
4139.833	-141.5
4142.237	-142.5
