Data from 2018-2-8_conc=5_n=1_RamanShift_01.txt Node
Date: Mon Mar 12 15:50:28 IST 2018
User: aro
Spectrometer: QEPB0276
Trigger mode: 0
Integration Time (sec): 3.000000E1
Scans to average: 1
Electric dark correction enabled: true
Nonlinearity correction enabled: false
Boxcar width: 0
XAxis mode: Raman Shifts
Number of Pixels in Spectrum: 1044
>>>>>Begin Spectral Data<<<<<
160.701	17.2
166.742	42.2
172.777	116.2
178.805	335.2
184.826	880.2
190.841	1867.2
196.849	3070.2
202.85	3992.2
208.845	4349.2
214.833	4329.2
220.815	4267.2
226.789	4254.2
232.758	4245.2
238.719	4254.2
244.674	4234.2
250.623	4165.2
256.565	4099.2
262.5	4042.2
268.429	4003.2
274.351	3960.2
280.267	3932.2
286.176	3933.2
292.079	3900.2
297.975	3866.2
303.865	3883.2
309.748	3850.2
315.625	3855.2
321.495	3855.2
327.359	3850.2
333.217	3831.2
339.068	3812.2
344.912	3868.2
350.751	3877.2
356.583	3876.2
362.408	3894.2
368.227	3904.2
374.04	3918.2
379.847	3936.2
385.647	3952.2
391.44	3968.2
397.228	4018.2
403.009	4039.2
408.784	4014.2
414.553	4064.2
420.315	4032.2
426.071	4086.2
431.821	4065.2
437.565	4051.2
443.302	4049.2
449.033	4033.2
454.758	3999.2
460.477	4009.2
466.189	3967.2
471.896	3924.2
477.596	3930.2
483.29	3896.2
488.978	3888.2
494.66	3884.2
500.335	3805.2
506.005	3667.2
511.668	3565.2
517.325	3420.2
522.977	3322.2
528.622	3233.2
534.261	3172.2
539.894	3150.2
545.521	3086.2
551.141	3071.2
556.756	3051.2
562.365	3043.2
567.968	3028.2
573.565	3024.2
579.155	2990.2
584.74	2976.2
590.319	2950.2
595.892	2965.2
601.459	2940.2
607.02	2934.2
612.575	2930.2
618.124	2873.2
623.667	2841.2
629.204	2836.2
634.735	2803.2
640.261	2792.2
645.781	2771.2
651.294	2754.2
656.802	2756.2
662.304	2710.2
667.8	2734.2
673.29	2737.2
678.775	2712.2
684.254	2707.2
689.726	2701.2
695.193	2656.2
700.655	2662.2
706.11	2659.2
711.56	2647.2
717.004	2602.2
722.442	2607.2
727.874	2602.2
733.301	2596.2
738.722	2575.2
744.137	2564.2
749.547	2566.2
754.951	2567.2
760.349	2571.2
765.741	2595.2
771.128	2597.2
776.509	2618.2
781.885	2628.2
787.254	2646.2
792.618	2645.2
797.977	2656.2
803.33	2609.2
808.677	2576.2
814.019	2576.2
819.355	2554.2
824.686	2546.2
830.011	2531.2
835.33	2507.2
840.644	2517.2
845.952	2516.2
851.255	2499.2
856.552	2495.2
861.844	2470.2
867.13	2451.2
872.41	2451.2
877.686	2411.2
882.955	2377.2
888.219	2370.2
893.478	2362.2
898.731	2313.2
903.979	2290.2
909.221	2261.2
914.458	2249.2
919.69	2251.2
924.916	2258.2
930.136	2255.2
935.351	2258.2
940.561	2257.2
945.766	2255.2
950.965	2240.2
956.158	2224.2
961.347	2207.2
966.529	2167.2
971.707	2148.2
976.879	2103.2
982.046	2087.2
987.208	2072.2
992.364	2087.2
997.515	2103.2
1002.66	2104.2
1007.801	2133.2
1012.936	2148.2
1018.066	2162.2
1023.19	2176.2
1028.309	2159.2
1033.423	2156.2
1038.532	2164.2
1043.636	2133.2
1048.734	2108.2
1053.827	2092.2
1058.915	2065.2
1063.998	2056.2
1069.075	2065.2
1074.147	2021.2
1079.214	2041.2
1084.276	2061.2
1089.333	2058.2
1094.385	2065.2
1099.431	2065.2
1104.472	2070.2
1109.509	2040.2
1114.54	2024.2
1119.565	1987.2
1124.586	1946.2
1129.602	1951.2
1134.613	1930.2
1139.618	1913.2
1144.619	1913.2
1149.614	1906.2
1154.604	1929.2
1159.589	1932.2
1164.57	1942.2
1169.545	1918.2
1174.515	1924.2
1179.48	1928.2
1184.44	1921.2
1189.395	1913.2
1194.345	1885.2
1199.29	1853.2
1204.23	1883.2
1209.165	1870.2
1214.095	1892.2
1219.021	1887.2
1223.941	1897.2
1228.856	1900.2
1233.766	1937.2
1238.672	1938.2
1243.572	1913.2
1248.467	1908.2
1253.358	1900.2
1258.244	1840.2
1263.124	1825.2
1268	1775.2
1272.871	1772.2
1277.737	1764.2
1282.599	1743.2
1287.455	1760.2
1292.306	1747.2
1297.153	1756.2
1301.995	1766.2
1306.832	1787.2
1311.664	1798.2
1316.491	1807.2
1321.314	1781.2
1326.132	1767.2
1330.945	1773.2
1335.753	1736.2
1340.556	1701.2
1345.354	1703.2
1350.148	1668.2
1354.937	1640.2
1359.722	1608.2
1364.501	1593.2
1369.276	1582.2
1374.046	1537.2
1378.811	1517.2
1383.572	1530.2
1388.327	1507.2
1393.079	1522.2
1397.825	1511.2
1402.567	1507.2
1407.304	1505.2
1412.036	1512.2
1416.764	1518.2
1421.487	1509.2
1426.205	1520.2
1430.919	1534.2
1435.628	1519.2
1440.333	1534.2
1445.032	1551.2
1449.727	1557.2
1454.418	1566.2
1459.104	1564.2
1463.785	1537.2
1468.462	1533.2
1473.134	1506.2
1477.802	1470.2
1482.465	1443.2
1487.123	1419.2
1491.777	1403.2
1496.426	1397.2
1501.071	1388.2
1505.711	1373.2
1510.347	1369.2
1514.978	1372.2
1519.604	1382.2
1524.226	1387.2
1528.844	1367.2
1533.457	1344.2
1538.065	1364.2
1542.669	1344.2
1547.269	1348.2
1551.864	1342.2
1556.454	1354.2
1561.041	1378.2
1565.622	1367.2
1570.199	1385.2
1574.772	1395.2
1579.34	1406.2
1583.904	1413.2
1588.464	1450.2
1593.019	1433.2
1597.569	1440.2
1602.115	1425.2
1606.657	1430.2
1611.195	1427.2
1615.728	1416.2
1620.256	1420.2
1624.78	1431.2
1629.3	1419.2
1633.816	1444.2
1638.327	1436.2
1642.834	1448.2
1647.336	1466.2
1651.834	1453.2
1656.328	1469.2
1660.817	1460.2
1665.302	1450.2
1669.783	1415.2
1674.259	1393.2
1678.732	1357.2
1683.199	1326.2
1687.663	1287.2
1692.122	1251.2
1696.577	1207.2
1701.028	1154.2
1705.474	1105.2
1709.917	1087.2
1714.355	1071.2
1718.788	1043.2
1723.218	1048.2
1727.643	1045.2
1732.064	1029.2
1736.481	1033.2
1740.893	996.2
1745.301	981.2
1749.705	967.2
1754.105	933.2
1758.501	929.2
1762.893	901.2
1767.28	910.2
1771.663	898.2
1776.042	903.2
1780.417	896.2
1784.787	888.2
1789.154	879.2
1793.516	877.2
1797.874	857.2
1802.228	841.2
1806.578	840.2
1810.924	824.2
1815.266	806.2
1819.603	822.2
1823.937	825.2
1828.266	825.2
1832.591	811.2
1836.913	803.2
1841.23	811.2
1845.543	813.2
1849.852	803.2
1854.156	786.2
1858.457	793.2
1862.754	806.2
1867.047	808.2
1871.335	806.2
1875.62	802.2
1879.9	811.2
1884.177	804.2
1888.449	793.2
1892.718	771.2
1896.982	772.2
1901.243	771.2
1905.499	764.2
1909.752	744.2
1914	731.2
1918.245	737.2
1922.485	716.2
1926.722	720.2
1930.954	727.2
1935.183	717.2
1939.408	710.2
1943.628	720.2
1947.845	698.2
1952.058	701.2
1956.267	695.2
1960.472	699.2
1964.673	689.2
1968.87	676.2
1973.063	658.2
1977.252	659.2
1981.438	662.2
1985.619	654.2
1989.797	657.2
1993.971	666.2
1998.14	670.2
2002.306	663.2
2006.469	655.2
2010.627	665.2
2014.781	660.2
2018.932	662.2
2023.078	651.2
2027.221	657.2
2031.36	659.2
2035.495	638.2
2039.627	636.2
2043.754	623.2
2047.878	615.2
2051.998	638.2
2056.114	606.2
2060.226	614.2
2064.334	616.2
2068.439	598.2
2072.54	602.2
2076.637	614.2
2080.73	598.2
2084.82	595.2
2088.906	604.2
2092.988	593.2
2097.066	586.2
2101.14	576.2
2105.211	570.2
2109.278	557.2
2113.342	553.2
2117.401	553.2
2121.457	550.2
2125.509	540.2
2129.558	529.2
2133.602	540.2
2137.643	541.2
2141.681	538.2
2145.714	526.2
2149.744	533.2
2153.77	539.2
2157.793	529.2
2161.812	530.2
2165.827	508.2
2169.838	520.2
2173.846	508.2
2177.851	503.2
2181.851	486.2
2185.848	473.2
2189.841	489.2
2193.831	482.2
2197.817	467.2
2201.799	471.2
2205.778	468.2
2209.753	465.2
2213.725	465.2
2217.693	466.2
2221.657	462.2
2225.618	459.2
2229.575	467.2
2233.529	458.2
2237.479	450.2
2241.425	437.2
2245.368	430.2
2249.307	434.2
2253.243	409.2
2257.175	414.2
2261.104	415.2
2265.029	404.2
2268.95	398.2
2272.868	394.2
2276.783	396.2
2280.694	379.2
2284.601	383.2
2288.505	373.2
2292.405	368.2
2296.302	368.2
2300.195	361.2
2304.085	353.2
2307.971	338.2
2311.854	343.2
2315.734	336.2
2319.609	328.2
2323.482	329.2
2327.351	330.2
2331.216	341.2
2335.078	345.2
2338.937	334.2
2342.792	316.2
2346.643	315.2
2350.492	318.2
2354.336	307.2
2358.178	309.2
2362.015	318.2
2365.85	316.2
2369.681	310.2
2373.508	310.2
2377.333	310.2
2381.153	308.2
2384.971	311.2
2388.785	304.2
2392.595	303.2
2396.402	301.2
2400.206	294.2
2404.007	289.2
2407.804	295.2
2411.597	286.2
2415.388	286.2
2419.174	280.2
2422.958	274.2
2426.738	287.2
2430.515	291.2
2434.289	285.2
2438.059	271.2
2441.825	258.2
2445.589	264.2
2449.349	271.2
2453.106	260.2
2456.859	259.2
2460.61	266.2
2464.356	251.2
2468.1	249.2
2471.84	244.2
2475.577	249.2
2479.311	237.2
2483.041	236.2
2486.768	245.2
2490.492	234.2
2494.213	248.2
2497.93	242.2
2501.644	233.2
2505.355	231.2
2509.062	228.2
2512.766	227.2
2516.467	221.2
2520.165	221.2
2523.859	224.2
2527.551	216.2
2531.239	215.2
2534.923	204.2
2538.605	209.2
2542.283	205.2
2545.958	197.2
2549.63	207.2
2553.299	197.2
2556.964	204.2
2560.626	203.2
2564.285	188.2
2567.941	188.2
2571.594	179.2
2575.243	194.2
2578.89	181.2
2582.533	180.2
2586.173	176.2
2589.809	170.2
2593.443	169.2
2597.073	169.2
2600.701	165.2
2604.325	165.2
2607.946	166.2
2611.564	165.2
2615.178	163.2
2618.79	162.2
2622.398	163.2
2626.004	160.2
2629.606	163.2
2633.205	150.2
2636.801	151.2
2640.394	151.2
2643.983	150.2
2647.57	155.2
2651.153	146.2
2654.734	141.2
2658.311	140.2
2661.885	141.2
2665.456	146.2
2669.025	137.2
2672.589	134.2
2676.151	141.2
2679.71	132.2
2683.266	133.2
2686.819	133.2
2690.368	129.2
2693.915	116.2
2697.458	122.2
2700.999	120.2
2704.536	127.2
2708.071	113.2
2711.602	116.2
2715.13	117.2
2718.656	107.2
2722.178	118.2
2725.697	108.2
2729.214	100.2
2732.727	109.2
2736.237	108.2
2739.744	98.2
2743.249	103.2
2746.75	101.2
2750.248	99.2
2753.743	92.2
2757.236	92.2
2760.725	89.2
2764.211	82.2
2767.695	86.2
2771.175	85.2
2774.652	79.2
2778.127	93.2
2781.598	84.2
2785.067	91.2
2788.532	86.2
2791.995	84.2
2795.455	87.2
2798.911	84.2
2802.365	98.2
2805.816	96.2
2809.264	85.2
2812.709	90.2
2816.151	92.2
2819.59	85.2
2823.026	83.2
2826.46	81.2
2829.89	93.2
2833.318	82.2
2836.742	88.2
2840.164	85.2
2843.583	92.2
2846.999	91.2
2850.412	85.2
2853.822	96.2
2857.229	93.2
2860.634	96.2
2864.035	90.2
2867.434	97.2
2870.83	115.2
2874.223	118.2
2877.613	126.2
2881	137.2
2884.385	131.2
2887.766	116.2
2891.145	120.2
2894.521	119.2
2897.894	134.2
2901.264	126.2
2904.631	127.2
2907.996	128.2
2911.358	127.2
2914.717	127.2
2918.073	135.2
2921.426	143.2
2924.777	155.2
2928.124	152.2
2931.469	151.2
2934.811	163.2
2938.15	164.2
2941.487	169.2
2944.821	165.2
2948.152	160.2
2951.48	169.2
2954.805	177.2
2958.128	168.2
2961.447	158.2
2964.765	165.2
2968.079	157.2
2971.39	167.2
2974.699	167.2
2978.005	166.2
2981.308	170.2
2984.609	173.2
2987.907	172.2
2991.202	175.2
2994.494	170.2
2997.784	171.2
3001.07	181.2
3004.355	194.2
3007.636	192.2
3010.915	187.2
3014.191	188.2
3017.464	204.2
3020.734	190.2
3024.002	200.2
3027.267	204.2
3030.53	204.2
3033.789	218.2
3037.046	220.2
3040.301	214.2
3043.552	231.2
3046.801	233.2
3050.048	235.2
3053.291	248.2
3056.532	259.2
3059.771	266.2
3063.006	281.2
3066.239	280.2
3069.469	285.2
3072.697	309.2
3075.922	312.2
3079.144	322.2
3082.364	339.2
3085.581	338.2
3088.795	336.2
3092.007	339.2
3095.216	354.2
3098.423	368.2
3101.627	387.2
3104.828	387.2
3108.026	396.2
3111.222	402.2
3114.416	407.2
3117.607	421.2
3120.795	433.2
3123.98	442.2
3127.163	442.2
3130.344	468.2
3133.521	466.2
3136.696	480.2
3139.869	485.2
3143.039	496.2
3146.206	503.2
3149.371	513.2
3152.533	518.2
3155.693	528.2
3158.85	524.2
3162.005	519.2
3165.157	533.2
3168.306	526.2
3171.453	544.2
3174.597	547.2
3177.739	549.2
3180.878	556.2
3184.014	552.2
3187.149	543.2
3190.28	552.2
3193.409	552.2
3196.536	562.2
3199.659	571.2
3202.781	565.2
3205.9	562.2
3209.016	578.2
3212.13	581.2
3215.241	559.2
3218.35	551.2
3221.456	555.2
3224.56	543.2
3227.661	536.2
3230.76	542.2
3233.856	536.2
3236.95	509.2
3240.041	507.2
3243.13	493.2
3246.216	494.2
3249.3	500.2
3252.382	493.2
3255.46	480.2
3258.537	485.2
3261.611	467.2
3264.682	464.2
3267.751	452.2
3270.818	454.2
3273.882	470.2
3276.943	458.2
3280.002	454.2
3283.059	453.2
3286.113	446.2
3289.165	443.2
3292.214	440.2
3295.261	429.2
3298.306	421.2
3301.348	414.2
3304.387	415.2
3307.425	415.2
3310.459	400.2
3313.492	399.2
3316.521	392.2
3319.549	386.2
3322.574	380.2
3325.597	385.2
3328.617	386.2
3331.635	387.2
3334.65	366.2
3337.663	375.2
3340.674	382.2
3343.682	380.2
3346.688	362.2
3349.691	370.2
3352.692	374.2
3355.691	366.2
3358.687	358.2
3361.681	364.2
3364.673	347.2
3367.662	347.2
3370.649	343.2
3373.633	339.2
3376.615	325.2
3379.595	322.2
3382.572	331.2
3385.547	319.2
3388.52	310.2
3391.49	300.2
3394.458	309.2
3397.424	298.2
3400.387	287.2
3403.348	281.2
3406.307	279.2
3409.263	277.2
3412.217	277.2
3415.168	277.2
3418.118	272.2
3421.065	268.2
3424.009	256.2
3426.951	263.2
3429.891	247.2
3432.829	230.2
3435.764	234.2
3438.697	230.2
3441.628	225.2
3444.557	226.2
3447.483	207.2
3450.407	193.2
3453.328	185.2
3456.247	191.2
3459.164	170.2
3462.079	165.2
3464.991	163.2
3467.902	154.2
3470.809	157.2
3473.715	142.2
3476.618	137.2
3479.519	136.2
3482.418	132.2
3485.315	110.2
3488.209	112.2
3491.101	116.2
3493.99	112.2
3496.878	103.2
3499.763	94.2
3502.646	84.2
3505.527	78.2
3508.405	79.2
3511.281	63.2
3514.155	57.2
3517.027	60.2
3519.897	59.2
3522.764	50.2
3525.629	41.2
3528.492	33.2
3531.352	31.2
3534.211	20.2
3537.067	15.2
3539.921	19.2
3542.773	11.2
3545.622	2.2
3548.469	2.2
3551.315	-1.8
3554.157	-14.8
3556.998	-18.8
3559.837	-15.8
3562.673	-17.8
3565.507	-17.8
3568.339	-21.8
3571.169	-36.8
3573.996	-28.8
3576.822	-29.8
3579.645	-33.8
3582.466	-31.8
3585.285	-37.8
3588.101	-28.8
3590.916	-44.8
3593.728	-57.8
3596.538	-44.8
3599.346	-55.8
3602.152	-53.8
3604.956	-54.8
3607.757	-50.8
3610.556	-56.8
3613.354	-58.8
3616.149	-65.8
3618.942	-77.8
3621.732	-68.8
3624.521	-66.8
3627.307	-73.8
3630.092	-75.8
3632.874	-70.8
3635.654	-78.8
3638.432	-75.8
3641.208	-75.8
3643.982	-82.8
3646.753	-85.8
3649.523	-87.8
3652.29	-83.8
3655.055	-80.8
3657.818	-87.8
3660.579	-84.8
3663.338	-84.8
3666.095	-94.8
3668.849	-86.8
3671.602	-95.8
3674.352	-97.8
3677.101	-98.8
3679.847	-98.8
3682.591	-99.8
3685.333	-97.8
3688.073	-98.8
3690.811	-105.8
3693.547	-106.8
3696.281	-105.8
3699.013	-105.8
3701.742	-105.8
3704.47	-109.8
3707.195	-103.8
3709.919	-109.8
3712.64	-114.8
3715.359	-116.8
3718.076	-110.8
3720.792	-112.8
3723.505	-113.8
3726.216	-108.8
3728.925	-118.8
3731.632	-111.8
3734.336	-119.8
3737.039	-111.8
3739.74	-117.8
3742.439	-118.8
3745.136	-109.8
3747.83	-121.8
3750.523	-117.8
3753.213	-119.8
3755.902	-112.8
3758.589	-120.8
3761.273	-111.8
3763.956	-110.8
3766.636	-116.8
3769.315	-111.8
3771.991	-115.8
3774.665	-121.8
3777.338	-109.8
3780.008	-111.8
3782.677	-117.8
3785.343	-112.8
3788.007	-115.8
3790.67	-118.8
3793.33	-114.8
3795.989	-121.8
3798.645	-113.8
3801.299	-122.8
3803.952	-120.8
3806.602	-115.8
3809.251	-121.8
3811.897	-119.8
3814.542	-125.8
3817.184	-117.8
3819.825	-121.8
3822.463	-116.8
3825.1	-115.8
3827.735	-118.8
3830.367	-118.8
3832.998	-120.8
3835.627	-121.8
3838.253	-117.8
3840.878	-118.8
3843.501	-115.8
3846.122	-123.8
3848.741	-129.8
3851.358	-119.8
3853.973	-126.8
3856.586	-118.8
3859.197	-128.8
3861.806	-120.8
3864.414	-123.8
3867.019	-120.8
3869.622	-118.8
3872.224	-111.8
3874.823	-100.8
3877.421	-91.8
3880.016	-66.8
3882.61	-41.8
3885.202	-39.8
3887.792	-55.8
3890.38	-88.8
3892.966	-106.8
3895.55	-108.8
3898.132	-114.8
3900.713	-118.8
3903.291	-123.8
3905.868	-126.8
3908.442	-119.8
3911.015	-125.8
3913.586	-121.8
3916.155	-129.8
3918.722	-127.8
3921.287	-122.8
3923.85	-126.8
3926.411	-126.8
3928.971	-117.8
3931.528	-120.8
3934.084	-122.8
3936.638	-116.8
3939.19	-126.8
3941.74	-126.8
3944.288	-124.8
3946.834	-122.8
3949.378	-121.8
3951.921	-122.8
3954.462	-128.8
3957	-121.8
3959.537	-121.8
3962.072	-125.8
3964.606	-120.8
3967.137	-123.8
3969.667	-122.8
3972.194	-128.8
3974.72	-119.8
3977.244	-129.8
3979.766	-124.8
3982.286	-122.8
3984.805	-119.8
3987.321	-122.8
3989.836	-111.8
3992.349	-121.8
3994.86	-122.8
3997.369	-128.8
3999.877	-128.8
4002.382	-113.8
4004.886	-128.8
4007.388	-119.8
4009.888	-116.8
4012.386	-121.8
4014.883	-122.8
4017.377	-125.8
4019.87	-124.8
4022.361	-122.8
4024.85	-122.8
4027.338	-120.8
4029.823	-124.8
4032.307	-117.8
4034.789	-123.8
4037.269	-122.8
4039.747	-118.8
4042.224	-121.8
4044.699	-122.8
4047.172	-121.8
4049.643	-119.8
4052.112	-124.8
4054.58	-120.8
4057.046	-125.8
4059.51	-119.8
4061.972	-121.8
4064.432	-119.8
4066.891	-119.8
4069.348	-117.8
4071.803	-126.8
4074.256	-128.8
4076.708	-118.8
4079.158	-114.8
4081.606	-113.8
4084.052	-121.8
4086.497	-120.8
4088.939	-113.8
4091.38	-121.8
4093.819	-120.8
4096.257	-125.8
4098.693	-127.8
4101.127	-126.8
4103.559	-122.8
4105.989	24.2
4108.418	22.2
4110.845	11.2
4113.27	7.2
4115.694	-0.8
4118.115	-3.8
4120.535	-122.8
4122.954	-125.8
4125.37	-118.8
4127.785	-124.8
4130.198	-118.8
4132.609	-120.8
4135.019	-127.8
4137.427	-128.8
4139.833	-126.8
4142.237	-127.8
