Data from 2018-2-8_conc=0_n=2_RamanShift_04.txt Node
Date: Mon Mar 12 13:21:59 IST 2018
User: aro
Spectrometer: QEPB0276
Trigger mode: 0
Integration Time (sec): 3.000000E1
Scans to average: 1
Electric dark correction enabled: true
Nonlinearity correction enabled: false
Boxcar width: 0
XAxis mode: Raman Shifts
Number of Pixels in Spectrum: 1044
>>>>>Begin Spectral Data<<<<<
160.701	1.4
166.742	43.4
172.777	129.4
178.805	449.4
184.826	1226.4
190.841	2627.4
196.849	4330.4
202.85	5630.4
208.845	6118.4
214.833	6143.4
220.815	6078.4
226.789	6042.4
232.758	6050.4
238.719	6037.4
244.674	5987.4
250.623	5926.4
256.565	5845.4
262.5	5763.4
268.429	5666.4
274.351	5600.4
280.267	5566.4
286.176	5529.4
292.079	5497.4
297.975	5493.4
303.865	5491.4
309.748	5429.4
315.625	5421.4
321.495	5415.4
327.359	5411.4
333.217	5367.4
339.068	5374.4
344.912	5419.4
350.751	5396.4
356.583	5429.4
362.408	5403.4
368.227	5427.4
374.04	5404.4
379.847	5444.4
385.647	5446.4
391.44	5511.4
397.228	5533.4
403.009	5542.4
408.784	5577.4
414.553	5582.4
420.315	5625.4
426.071	5615.4
431.821	5614.4
437.565	5601.4
443.302	5589.4
449.033	5592.4
454.758	5580.4
460.477	5562.4
466.189	5521.4
471.896	5488.4
477.596	5447.4
483.29	5419.4
488.978	5430.4
494.66	5406.4
500.335	5314.4
506.005	5203.4
511.668	5101.4
517.325	4991.4
522.977	4866.4
528.622	4780.4
534.261	4741.4
539.894	4639.4
545.521	4636.4
551.141	4610.4
556.756	4594.4
562.365	4588.4
567.968	4551.4
573.565	4524.4
579.155	4493.4
584.74	4474.4
590.319	4487.4
595.892	4461.4
601.459	4436.4
607.02	4427.4
612.575	4409.4
618.124	4365.4
623.667	4304.4
629.204	4288.4
634.735	4255.4
640.261	4217.4
645.781	4218.4
651.294	4218.4
656.802	4198.4
662.304	4187.4
667.8	4162.4
673.29	4170.4
678.775	4130.4
684.254	4135.4
689.726	4140.4
695.193	4122.4
700.655	4081.4
706.11	4070.4
711.56	4042.4
717.004	3994.4
722.442	3966.4
727.874	3989.4
733.301	3962.4
738.722	3943.4
744.137	3944.4
749.547	3931.4
754.951	3928.4
760.349	3946.4
765.741	3939.4
771.128	3938.4
776.509	3948.4
781.885	4007.4
787.254	3991.4
792.618	3981.4
797.977	3956.4
803.33	3925.4
808.677	3913.4
814.019	3862.4
819.355	3841.4
824.686	3843.4
830.011	3811.4
835.33	3826.4
840.644	3792.4
845.952	3773.4
851.255	3806.4
856.552	3794.4
861.844	3761.4
867.13	3758.4
872.41	3749.4
877.686	3727.4
882.955	3700.4
888.219	3668.4
893.478	3640.4
898.731	3564.4
903.979	3520.4
909.221	3485.4
914.458	3484.4
919.69	3447.4
924.916	3492.4
930.136	3478.4
935.351	3462.4
940.561	3469.4
945.766	3484.4
950.965	3454.4
956.158	3416.4
961.347	3401.4
966.529	3358.4
971.707	3320.4
976.879	3265.4
982.046	3222.4
987.208	3211.4
992.364	3221.4
997.515	3223.4
1002.66	3274.4
1007.801	3294.4
1012.936	3294.4
1018.066	3312.4
1023.19	3324.4
1028.309	3346.4
1033.423	3319.4
1038.532	3301.4
1043.636	3284.4
1048.734	3253.4
1053.827	3218.4
1058.915	3165.4
1063.998	3145.4
1069.075	3126.4
1074.147	3140.4
1079.214	3152.4
1084.276	3133.4
1089.333	3175.4
1094.385	3203.4
1099.431	3166.4
1104.472	3173.4
1109.509	3165.4
1114.54	3126.4
1119.565	3078.4
1124.586	3040.4
1129.602	3010.4
1134.613	2971.4
1139.618	2944.4
1144.619	2947.4
1149.614	2937.4
1154.604	2953.4
1159.589	2971.4
1164.57	2956.4
1169.545	2950.4
1174.515	2985.4
1179.48	2921.4
1184.44	2930.4
1189.395	2899.4
1194.345	2898.4
1199.29	2871.4
1204.23	2858.4
1209.165	2844.4
1214.095	2882.4
1219.021	2913.4
1223.941	2896.4
1228.856	2912.4
1233.766	2936.4
1238.672	2926.4
1243.572	2911.4
1248.467	2916.4
1253.358	2881.4
1258.244	2856.4
1263.124	2770.4
1268	2749.4
1272.871	2715.4
1277.737	2693.4
1282.599	2692.4
1287.455	2679.4
1292.306	2676.4
1297.153	2669.4
1301.995	2702.4
1306.832	2709.4
1311.664	2753.4
1316.491	2729.4
1321.314	2741.4
1326.132	2698.4
1330.945	2687.4
1335.753	2651.4
1340.556	2591.4
1345.354	2541.4
1350.148	2503.4
1354.937	2468.4
1359.722	2422.4
1364.501	2397.4
1369.276	2340.4
1374.046	2306.4
1378.811	2292.4
1383.572	2296.4
1388.327	2291.4
1393.079	2281.4
1397.825	2288.4
1402.567	2287.4
1407.304	2286.4
1412.036	2308.4
1416.764	2298.4
1421.487	2295.4
1426.205	2283.4
1430.919	2304.4
1435.628	2319.4
1440.333	2350.4
1445.032	2335.4
1449.727	2356.4
1454.418	2384.4
1459.104	2388.4
1463.785	2359.4
1468.462	2319.4
1473.134	2259.4
1477.802	2190.4
1482.465	2173.4
1487.123	2109.4
1491.777	2078.4
1496.426	2042.4
1501.071	2038.4
1505.711	2007.4
1510.347	2018.4
1514.978	2002.4
1519.604	2010.4
1524.226	2007.4
1528.844	1985.4
1533.457	1980.4
1538.065	1963.4
1542.669	1979.4
1547.269	1982.4
1551.864	1986.4
1556.454	2006.4
1561.041	1998.4
1565.622	2033.4
1570.199	2028.4
1574.772	2051.4
1579.34	2107.4
1583.904	2102.4
1588.464	2115.4
1593.019	2130.4
1597.569	2134.4
1602.115	2123.4
1606.657	2105.4
1611.195	2091.4
1615.728	2104.4
1620.256	2083.4
1624.78	2075.4
1629.3	2092.4
1633.816	2082.4
1638.327	2128.4
1642.834	2126.4
1647.336	2126.4
1651.834	2130.4
1656.328	2123.4
1660.817	2115.4
1665.302	2082.4
1669.783	2040.4
1674.259	2007.4
1678.732	1952.4
1683.199	1885.4
1687.663	1827.4
1692.122	1762.4
1696.577	1701.4
1701.028	1609.4
1705.474	1584.4
1709.917	1514.4
1714.355	1483.4
1718.788	1475.4
1723.218	1477.4
1727.643	1486.4
1732.064	1463.4
1736.481	1461.4
1740.893	1430.4
1745.301	1396.4
1749.705	1389.4
1754.105	1358.4
1758.501	1323.4
1762.893	1303.4
1767.28	1286.4
1771.663	1271.4
1776.042	1266.4
1780.417	1250.4
1784.787	1217.4
1789.154	1224.4
1793.516	1217.4
1797.874	1181.4
1802.228	1164.4
1806.578	1172.4
1810.924	1150.4
1815.266	1160.4
1819.603	1141.4
1823.937	1143.4
1828.266	1152.4
1832.591	1142.4
1836.913	1144.4
1841.23	1147.4
1845.543	1149.4
1849.852	1142.4
1854.156	1136.4
1858.457	1139.4
1862.754	1138.4
1867.047	1137.4
1871.335	1132.4
1875.62	1137.4
1879.9	1119.4
1884.177	1132.4
1888.449	1115.4
1892.718	1092.4
1896.982	1072.4
1901.243	1052.4
1905.499	1051.4
1909.752	1027.4
1914	1008.4
1918.245	1008.4
1922.485	989.4
1926.722	1001.4
1930.954	983.4
1935.183	977.4
1939.408	965.4
1943.628	961.4
1947.845	957.4
1952.058	956.4
1956.267	945.4
1960.472	938.4
1964.673	920.4
1968.87	916.4
1973.063	901.4
1977.252	905.4
1981.438	910.4
1985.619	907.4
1989.797	920.4
1993.971	910.4
1998.14	914.4
2002.306	918.4
2006.469	931.4
2010.627	917.4
2014.781	926.4
2018.932	918.4
2023.078	931.4
2027.221	909.4
2031.36	921.4
2035.495	886.4
2039.627	883.4
2043.754	854.4
2047.878	853.4
2051.998	854.4
2056.114	861.4
2060.226	853.4
2064.334	840.4
2068.439	839.4
2072.54	818.4
2076.637	829.4
2080.73	822.4
2084.82	808.4
2088.906	822.4
2092.988	814.4
2097.066	812.4
2101.14	787.4
2105.211	776.4
2109.278	779.4
2113.342	761.4
2117.401	750.4
2121.457	753.4
2125.509	744.4
2129.558	744.4
2133.602	747.4
2137.643	752.4
2141.681	741.4
2145.714	735.4
2149.744	751.4
2153.77	749.4
2157.793	739.4
2161.812	731.4
2165.827	732.4
2169.838	720.4
2173.846	713.4
2177.851	696.4
2181.851	691.4
2185.848	678.4
2189.841	678.4
2193.831	670.4
2197.817	657.4
2201.799	666.4
2205.778	668.4
2209.753	654.4
2213.725	665.4
2217.693	656.4
2221.657	652.4
2225.618	656.4
2229.575	668.4
2233.529	660.4
2237.479	643.4
2241.425	627.4
2245.368	625.4
2249.307	614.4
2253.243	609.4
2257.175	598.4
2261.104	595.4
2265.029	575.4
2268.95	580.4
2272.868	572.4
2276.783	560.4
2280.694	538.4
2284.601	557.4
2288.505	542.4
2292.405	537.4
2296.302	542.4
2300.195	525.4
2304.085	521.4
2307.971	500.4
2311.854	503.4
2315.734	485.4
2319.609	492.4
2323.482	483.4
2327.351	492.4
2331.216	494.4
2335.078	507.4
2338.937	487.4
2342.792	478.4
2346.643	465.4
2350.492	470.4
2354.336	462.4
2358.178	464.4
2362.015	479.4
2365.85	466.4
2369.681	470.4
2373.508	487.4
2377.333	477.4
2381.153	467.4
2384.971	479.4
2388.785	477.4
2392.595	460.4
2396.402	456.4
2400.206	462.4
2404.007	458.4
2407.804	449.4
2411.597	442.4
2415.388	446.4
2419.174	445.4
2422.958	435.4
2426.738	449.4
2430.515	436.4
2434.289	435.4
2438.059	430.4
2441.825	415.4
2445.589	414.4
2449.349	409.4
2453.106	402.4
2456.859	404.4
2460.61	405.4
2464.356	392.4
2468.1	390.4
2471.84	389.4
2475.577	381.4
2479.311	371.4
2483.041	358.4
2486.768	373.4
2490.492	368.4
2494.213	363.4
2497.93	366.4
2501.644	363.4
2505.355	358.4
2509.062	356.4
2512.766	351.4
2516.467	334.4
2520.165	344.4
2523.859	347.4
2527.551	332.4
2531.239	322.4
2534.923	315.4
2538.605	309.4
2542.283	304.4
2545.958	316.4
2549.63	311.4
2553.299	301.4
2556.964	309.4
2560.626	298.4
2564.285	284.4
2567.941	295.4
2571.594	287.4
2575.243	279.4
2578.89	275.4
2582.533	271.4
2586.173	266.4
2589.809	263.4
2593.443	277.4
2597.073	262.4
2600.701	253.4
2604.325	250.4
2607.946	252.4
2611.564	257.4
2615.178	255.4
2618.79	258.4
2622.398	255.4
2626.004	249.4
2629.606	243.4
2633.205	242.4
2636.801	244.4
2640.394	246.4
2643.983	232.4
2647.57	237.4
2651.153	229.4
2654.734	233.4
2658.311	227.4
2661.885	214.4
2665.456	220.4
2669.025	219.4
2672.589	216.4
2676.151	216.4
2679.71	224.4
2683.266	214.4
2686.819	204.4
2690.368	207.4
2693.915	195.4
2697.458	193.4
2700.999	199.4
2704.536	189.4
2708.071	176.4
2711.602	185.4
2715.13	189.4
2718.656	180.4
2722.178	177.4
2725.697	169.4
2729.214	162.4
2732.727	168.4
2736.237	170.4
2739.744	160.4
2743.249	160.4
2746.75	156.4
2750.248	154.4
2753.743	155.4
2757.236	141.4
2760.725	140.4
2764.211	136.4
2767.695	128.4
2771.175	126.4
2774.652	134.4
2778.127	137.4
2781.598	132.4
2785.067	140.4
2788.532	140.4
2791.995	136.4
2795.455	130.4
2798.911	142.4
2802.365	136.4
2805.816	144.4
2809.264	144.4
2812.709	137.4
2816.151	139.4
2819.59	138.4
2823.026	137.4
2826.46	133.4
2829.89	134.4
2833.318	142.4
2836.742	138.4
2840.164	138.4
2843.583	144.4
2846.999	146.4
2850.412	134.4
2853.822	142.4
2857.229	147.4
2860.634	157.4
2864.035	163.4
2867.434	162.4
2870.83	168.4
2874.223	180.4
2877.613	184.4
2881	243.4
2884.385	229.4
2887.766	188.4
2891.145	194.4
2894.521	197.4
2897.894	209.4
2901.264	205.4
2904.631	202.4
2907.996	203.4
2911.358	199.4
2914.717	216.4
2918.073	204.4
2921.426	223.4
2924.777	233.4
2928.124	227.4
2931.469	238.4
2934.811	241.4
2938.15	253.4
2941.487	251.4
2944.821	265.4
2948.152	261.4
2951.48	253.4
2954.805	259.4
2958.128	243.4
2961.447	234.4
2964.765	244.4
2968.079	242.4
2971.39	242.4
2974.699	257.4
2978.005	245.4
2981.308	246.4
2984.609	252.4
2987.907	242.4
2991.202	254.4
2994.494	243.4
2997.784	256.4
3001.07	260.4
3004.355	266.4
3007.636	268.4
3010.915	266.4
3014.191	270.4
3017.464	276.4
3020.734	274.4
3024.002	277.4
3027.267	287.4
3030.53	293.4
3033.789	307.4
3037.046	313.4
3040.301	311.4
3043.552	335.4
3046.801	330.4
3050.048	346.4
3053.291	349.4
3056.532	369.4
3059.771	383.4
3063.006	385.4
3066.239	401.4
3069.469	413.4
3072.697	421.4
3075.922	441.4
3079.144	444.4
3082.364	463.4
3085.581	465.4
3088.795	474.4
3092.007	481.4
3095.216	498.4
3098.423	502.4
3101.627	518.4
3104.828	521.4
3108.026	538.4
3111.222	561.4
3114.416	546.4
3117.607	564.4
3120.795	585.4
3123.98	593.4
3127.163	608.4
3130.344	625.4
3133.521	636.4
3136.696	650.4
3139.869	656.4
3143.039	677.4
3146.206	666.4
3149.371	696.4
3152.533	702.4
3155.693	718.4
3158.85	711.4
3162.005	737.4
3165.157	712.4
3168.306	729.4
3171.453	739.4
3174.597	731.4
3177.739	733.4
3180.878	725.4
3184.014	744.4
3187.149	751.4
3190.28	747.4
3193.409	748.4
3196.536	747.4
3199.659	750.4
3202.781	752.4
3205.9	768.4
3209.016	767.4
3212.13	763.4
3215.241	755.4
3218.35	746.4
3221.456	736.4
3224.56	725.4
3227.661	727.4
3230.76	714.4
3233.856	709.4
3236.95	697.4
3240.041	681.4
3243.13	668.4
3246.216	658.4
3249.3	655.4
3252.382	646.4
3255.46	645.4
3258.537	636.4
3261.611	628.4
3264.682	616.4
3267.751	617.4
3270.818	608.4
3273.882	609.4
3276.943	605.4
3280.002	612.4
3283.059	607.4
3286.113	595.4
3289.165	588.4
3292.214	591.4
3295.261	572.4
3298.306	574.4
3301.348	565.4
3304.387	554.4
3307.425	553.4
3310.459	561.4
3313.492	541.4
3316.521	546.4
3319.549	535.4
3322.574	515.4
3325.597	522.4
3328.617	530.4
3331.635	526.4
3334.65	520.4
3337.663	511.4
3340.674	510.4
3343.682	523.4
3346.688	499.4
3349.691	525.4
3352.692	505.4
3355.691	513.4
3358.687	496.4
3361.681	489.4
3364.673	493.4
3367.662	490.4
3370.649	471.4
3373.633	462.4
3376.615	444.4
3379.595	459.4
3382.572	447.4
3385.547	435.4
3388.52	443.4
3391.49	435.4
3394.458	414.4
3397.424	402.4
3400.387	403.4
3403.348	395.4
3406.307	387.4
3409.263	387.4
3412.217	386.4
3415.168	377.4
3418.118	374.4
3421.065	368.4
3424.009	368.4
3426.951	365.4
3429.891	341.4
3432.829	342.4
3435.764	334.4
3438.697	318.4
3441.628	301.4
3444.557	299.4
3447.483	288.4
3450.407	279.4
3453.328	268.4
3456.247	259.4
3459.164	252.4
3462.079	222.4
3464.991	222.4
3467.902	217.4
3470.809	210.4
3473.715	193.4
3476.618	195.4
3479.519	188.4
3482.418	178.4
3485.315	161.4
3488.209	146.4
3491.101	154.4
3493.99	149.4
3496.878	138.4
3499.763	132.4
3502.646	123.4
3505.527	112.4
3508.405	109.4
3511.281	95.4
3514.155	94.4
3517.027	88.4
3519.897	76.4
3522.764	64.4
3525.629	60.4
3528.492	49.4
3531.352	46.4
3534.211	32.4
3537.067	33.4
3539.921	33.4
3542.773	14.4
3545.622	9.4
3548.469	1.4
3551.315	5.4
3554.157	-4.6
3556.998	-1.6
3559.837	-17.6
3562.673	-15.6
3565.507	-27.6
3568.339	-22.6
3571.169	-45.6
3573.996	-35.6
3576.822	-35.6
3579.645	-34.6
3582.466	-40.6
3585.285	-45.6
3588.101	-40.6
3590.916	-54.6
3593.728	-68.6
3596.538	-62.6
3599.346	-61.6
3602.152	-67.6
3604.956	-68.6
3607.757	-67.6
3610.556	-75.6
3613.354	-75.6
3616.149	-89.6
3618.942	-86.6
3621.732	-83.6
3624.521	-86.6
3627.307	-91.6
3630.092	-89.6
3632.874	-83.6
3635.654	-97.6
3638.432	-89.6
3641.208	-93.6
3643.982	-102.6
3646.753	-101.6
3649.523	-105.6
3652.29	-100.6
3655.055	-106.6
3657.818	-111.6
3660.579	-106.6
3663.338	-118.6
3666.095	-112.6
3668.849	-121.6
3671.602	-113.6
3674.352	-112.6
3677.101	-120.6
3679.847	-126.6
3682.591	-126.6
3685.333	-121.6
3688.073	-123.6
3690.811	-125.6
3693.547	-137.6
3696.281	-126.6
3699.013	-127.6
3701.742	-131.6
3704.47	-128.6
3707.195	-126.6
3709.919	-133.6
3712.64	-127.6
3715.359	-131.6
3718.076	-132.6
3720.792	-136.6
3723.505	-136.6
3726.216	-128.6
3728.925	-142.6
3731.632	-139.6
3734.336	-146.6
3737.039	-139.6
3739.74	-138.6
3742.439	-143.6
3745.136	-135.6
3747.83	-148.6
3750.523	-142.6
3753.213	-137.6
3755.902	-137.6
3758.589	-147.6
3761.273	-138.6
3763.956	-136.6
3766.636	-138.6
3769.315	-137.6
3771.991	-141.6
3774.665	-147.6
3777.338	-136.6
3780.008	-136.6
3782.677	-146.6
3785.343	-136.6
3788.007	-146.6
3790.67	-147.6
3793.33	-145.6
3795.989	-142.6
3798.645	-142.6
3801.299	-143.6
3803.952	-147.6
3806.602	-138.6
3809.251	-147.6
3811.897	-152.6
3814.542	-152.6
3817.184	-139.6
3819.825	-146.6
3822.463	-150.6
3825.1	-145.6
3827.735	-143.6
3830.367	-149.6
3832.998	-147.6
3835.627	-147.6
3838.253	-144.6
3840.878	-148.6
3843.501	-143.6
3846.122	-152.6
3848.741	-150.6
3851.358	-144.6
3853.973	-149.6
3856.586	-147.6
3859.197	-150.6
3861.806	-144.6
3864.414	-149.6
3867.019	-142.6
3869.622	-147.6
3872.224	-141.6
3874.823	-130.6
3877.421	-117.6
3880.016	-96.6
3882.61	-72.6
3885.202	-79.6
3887.792	-90.6
3890.38	-121.6
3892.966	-141.6
3895.55	-143.6
3898.132	-142.6
3900.713	-153.6
3903.291	-148.6
3905.868	-150.6
3908.442	-147.6
3911.015	-149.6
3913.586	-149.6
3916.155	-154.6
3918.722	-157.6
3921.287	-147.6
3923.85	-146.6
3926.411	-153.6
3928.971	-147.6
3931.528	-155.6
3934.084	-153.6
3936.638	-150.6
3939.19	-156.6
3941.74	-155.6
3944.288	-150.6
3946.834	-148.6
3949.378	-146.6
3951.921	-154.6
3954.462	-155.6
3957	-154.6
3959.537	-147.6
3962.072	-153.6
3964.606	-146.6
3967.137	-150.6
3969.667	-150.6
3972.194	-156.6
3974.72	-155.6
3977.244	-149.6
3979.766	-152.6
3982.286	-149.6
3984.805	-149.6
3987.321	-142.6
3989.836	-140.6
3992.349	-153.6
3994.86	-147.6
3997.369	-150.6
3999.877	-153.6
4002.382	-144.6
4004.886	-147.6
4007.388	-146.6
4009.888	-140.6
4012.386	-151.6
4014.883	-150.6
4017.377	-151.6
4019.87	-152.6
4022.361	-154.6
4024.85	-151.6
4027.338	-145.6
4029.823	-142.6
4032.307	-144.6
4034.789	-149.6
4037.269	-151.6
4039.747	-148.6
4042.224	-149.6
4044.699	-153.6
4047.172	-144.6
4049.643	-140.6
4052.112	-147.6
4054.58	-150.6
4057.046	-150.6
4059.51	-147.6
4061.972	-145.6
4064.432	-147.6
4066.891	-148.6
4069.348	-145.6
4071.803	-151.6
4074.256	-150.6
4076.708	-143.6
4079.158	-151.6
4081.606	-146.6
4084.052	-152.6
4086.497	-149.6
4088.939	-141.6
4091.38	-143.6
4093.819	-146.6
4096.257	-158.6
4098.693	-153.6
4101.127	-157.6
4103.559	-156.6
4105.989	-22.6
4108.418	-18.6
4110.845	-28.6
4113.27	-15.6
4115.694	-18.6
4118.115	-18.6
4120.535	-148.6
4122.954	-153.6
4125.37	-148.6
4127.785	-153.6
4130.198	-150.6
4132.609	-144.6
4135.019	-154.6
4137.427	-157.6
4139.833	-156.6
4142.237	-154.6
