Data from 2018-2-8_conc=5_n=9_RamanShift_05.txt Node
Date: Mon Mar 12 16:19:28 IST 2018
User: aro
Spectrometer: QEPB0276
Trigger mode: 0
Integration Time (sec): 3.000000E1
Scans to average: 1
Electric dark correction enabled: true
Nonlinearity correction enabled: false
Boxcar width: 0
XAxis mode: Raman Shifts
Number of Pixels in Spectrum: 1044
>>>>>Begin Spectral Data<<<<<
160.701	14.5
166.742	46.5
172.777	111.5
178.805	363.5
184.826	986.5
190.841	2125.5
196.849	3538.5
202.85	4647.5
208.845	5077.5
214.833	5099.5
220.815	5033.5
226.789	4997.5
232.758	5019.5
238.719	4983.5
244.674	4959.5
250.623	4926.5
256.565	4852.5
262.5	4785.5
268.429	4725.5
274.351	4682.5
280.267	4666.5
286.176	4616.5
292.079	4610.5
297.975	4573.5
303.865	4560.5
309.748	4569.5
315.625	4542.5
321.495	4558.5
327.359	4553.5
333.217	4547.5
339.068	4543.5
344.912	4578.5
350.751	4520.5
356.583	4552.5
362.408	4552.5
368.227	4554.5
374.04	4563.5
379.847	4620.5
385.647	4620.5
391.44	4635.5
397.228	4675.5
403.009	4687.5
408.784	4711.5
414.553	4708.5
420.315	4722.5
426.071	4737.5
431.821	4713.5
437.565	4738.5
443.302	4713.5
449.033	4694.5
454.758	4690.5
460.477	4636.5
466.189	4655.5
471.896	4606.5
477.596	4569.5
483.29	4568.5
488.978	4548.5
494.66	4547.5
500.335	4471.5
506.005	4358.5
511.668	4220.5
517.325	4088.5
522.977	3996.5
528.622	3900.5
534.261	3852.5
539.894	3818.5
545.521	3791.5
551.141	3743.5
556.756	3751.5
562.365	3698.5
567.968	3686.5
573.565	3640.5
579.155	3651.5
584.74	3632.5
590.319	3608.5
595.892	3605.5
601.459	3617.5
607.02	3578.5
612.575	3587.5
618.124	3546.5
623.667	3489.5
629.204	3474.5
634.735	3435.5
640.261	3406.5
645.781	3376.5
651.294	3372.5
656.802	3366.5
662.304	3375.5
667.8	3370.5
673.29	3355.5
678.775	3354.5
684.254	3335.5
689.726	3338.5
695.193	3288.5
700.655	3270.5
706.11	3293.5
711.56	3254.5
717.004	3215.5
722.442	3230.5
727.874	3217.5
733.301	3204.5
738.722	3182.5
744.137	3153.5
749.547	3164.5
754.951	3160.5
760.349	3192.5
765.741	3168.5
771.128	3177.5
776.509	3213.5
781.885	3211.5
787.254	3247.5
792.618	3207.5
797.977	3233.5
803.33	3199.5
808.677	3163.5
814.019	3148.5
819.355	3131.5
824.686	3123.5
830.011	3102.5
835.33	3084.5
840.644	3081.5
845.952	3072.5
851.255	3059.5
856.552	3047.5
861.844	3030.5
867.13	3032.5
872.41	3020.5
877.686	2982.5
882.955	2959.5
888.219	2920.5
893.478	2899.5
898.731	2855.5
903.979	2816.5
909.221	2816.5
914.458	2799.5
919.69	2791.5
924.916	2783.5
930.136	2813.5
935.351	2774.5
940.561	2828.5
945.766	2793.5
950.965	2774.5
956.158	2754.5
961.347	2724.5
966.529	2702.5
971.707	2660.5
976.879	2628.5
982.046	2584.5
987.208	2596.5
992.364	2602.5
997.515	2605.5
1002.66	2623.5
1007.801	2642.5
1012.936	2670.5
1018.066	2668.5
1023.19	2656.5
1028.309	2677.5
1033.423	2676.5
1038.532	2657.5
1043.636	2644.5
1048.734	2617.5
1053.827	2613.5
1058.915	2565.5
1063.998	2563.5
1069.075	2546.5
1074.147	2531.5
1079.214	2515.5
1084.276	2544.5
1089.333	2558.5
1094.385	2565.5
1099.431	2562.5
1104.472	2538.5
1109.509	2552.5
1114.54	2499.5
1119.565	2475.5
1124.586	2443.5
1129.602	2404.5
1134.613	2415.5
1139.618	2370.5
1144.619	2378.5
1149.614	2386.5
1154.604	2385.5
1159.589	2373.5
1164.57	2403.5
1169.545	2417.5
1174.515	2411.5
1179.48	2397.5
1184.44	2371.5
1189.395	2338.5
1194.345	2346.5
1199.29	2315.5
1204.23	2319.5
1209.165	2314.5
1214.095	2321.5
1219.021	2356.5
1223.941	2357.5
1228.856	2371.5
1233.766	2370.5
1238.672	2385.5
1243.572	2365.5
1248.467	2381.5
1253.358	2330.5
1258.244	2280.5
1263.124	2245.5
1268	2234.5
1272.871	2202.5
1277.737	2180.5
1282.599	2178.5
1287.455	2160.5
1292.306	2171.5
1297.153	2202.5
1301.995	2189.5
1306.832	2184.5
1311.664	2232.5
1316.491	2241.5
1321.314	2217.5
1326.132	2214.5
1330.945	2180.5
1335.753	2149.5
1340.556	2114.5
1345.354	2088.5
1350.148	2055.5
1354.937	2037.5
1359.722	2002.5
1364.501	1947.5
1369.276	1928.5
1374.046	1895.5
1378.811	1879.5
1383.572	1857.5
1388.327	1849.5
1393.079	1850.5
1397.825	1844.5
1402.567	1848.5
1407.304	1855.5
1412.036	1866.5
1416.764	1871.5
1421.487	1878.5
1426.205	1861.5
1430.919	1876.5
1435.628	1903.5
1440.333	1914.5
1445.032	1923.5
1449.727	1917.5
1454.418	1937.5
1459.104	1938.5
1463.785	1926.5
1468.462	1888.5
1473.134	1867.5
1477.802	1813.5
1482.465	1769.5
1487.123	1732.5
1491.777	1724.5
1496.426	1696.5
1501.071	1688.5
1505.711	1681.5
1510.347	1673.5
1514.978	1687.5
1519.604	1666.5
1524.226	1667.5
1528.844	1659.5
1533.457	1649.5
1538.065	1634.5
1542.669	1626.5
1547.269	1611.5
1551.864	1607.5
1556.454	1650.5
1561.041	1653.5
1565.622	1682.5
1570.199	1681.5
1574.772	1693.5
1579.34	1701.5
1583.904	1736.5
1588.464	1768.5
1593.019	1757.5
1597.569	1763.5
1602.115	1760.5
1606.657	1723.5
1611.195	1732.5
1615.728	1735.5
1620.256	1728.5
1624.78	1728.5
1629.3	1732.5
1633.816	1753.5
1638.327	1759.5
1642.834	1750.5
1647.336	1765.5
1651.834	1756.5
1656.328	1781.5
1660.817	1755.5
1665.302	1742.5
1669.783	1695.5
1674.259	1699.5
1678.732	1651.5
1683.199	1598.5
1687.663	1552.5
1692.122	1506.5
1696.577	1454.5
1701.028	1384.5
1705.474	1342.5
1709.917	1296.5
1714.355	1263.5
1718.788	1251.5
1723.218	1252.5
1727.643	1270.5
1732.064	1251.5
1736.481	1246.5
1740.893	1212.5
1745.301	1188.5
1749.705	1159.5
1754.105	1159.5
1758.501	1128.5
1762.893	1105.5
1767.28	1099.5
1771.663	1086.5
1776.042	1069.5
1780.417	1067.5
1784.787	1050.5
1789.154	1045.5
1793.516	1024.5
1797.874	1014.5
1802.228	1006.5
1806.578	1000.5
1810.924	993.5
1815.266	965.5
1819.603	967.5
1823.937	970.5
1828.266	972.5
1832.591	971.5
1836.913	963.5
1841.23	987.5
1845.543	962.5
1849.852	967.5
1854.156	967.5
1858.457	973.5
1862.754	973.5
1867.047	975.5
1871.335	967.5
1875.62	976.5
1879.9	971.5
1884.177	969.5
1888.449	961.5
1892.718	945.5
1896.982	928.5
1901.243	922.5
1905.499	913.5
1909.752	899.5
1914	899.5
1918.245	885.5
1922.485	863.5
1926.722	867.5
1930.954	860.5
1935.183	861.5
1939.408	857.5
1943.628	837.5
1947.845	835.5
1952.058	830.5
1956.267	830.5
1960.472	817.5
1964.673	807.5
1968.87	809.5
1973.063	800.5
1977.252	794.5
1981.438	791.5
1985.619	780.5
1989.797	792.5
1993.971	797.5
1998.14	803.5
2002.306	785.5
2006.469	799.5
2010.627	795.5
2014.781	791.5
2018.932	784.5
2023.078	805.5
2027.221	787.5
2031.36	784.5
2035.495	769.5
2039.627	764.5
2043.754	749.5
2047.878	741.5
2051.998	744.5
2056.114	740.5
2060.226	718.5
2064.334	727.5
2068.439	717.5
2072.54	728.5
2076.637	740.5
2080.73	713.5
2084.82	709.5
2088.906	711.5
2092.988	710.5
2097.066	699.5
2101.14	696.5
2105.211	687.5
2109.278	677.5
2113.342	659.5
2117.401	648.5
2121.457	648.5
2125.509	639.5
2129.558	643.5
2133.602	655.5
2137.643	654.5
2141.681	638.5
2145.714	640.5
2149.744	654.5
2153.77	642.5
2157.793	632.5
2161.812	631.5
2165.827	623.5
2169.838	619.5
2173.846	607.5
2177.851	611.5
2181.851	590.5
2185.848	581.5
2189.841	577.5
2193.831	575.5
2197.817	568.5
2201.799	568.5
2205.778	576.5
2209.753	570.5
2213.725	557.5
2217.693	565.5
2221.657	553.5
2225.618	565.5
2229.575	567.5
2233.529	567.5
2237.479	556.5
2241.425	541.5
2245.368	536.5
2249.307	518.5
2253.243	510.5
2257.175	516.5
2261.104	511.5
2265.029	500.5
2268.95	500.5
2272.868	483.5
2276.783	480.5
2280.694	468.5
2284.601	460.5
2288.505	467.5
2292.405	459.5
2296.302	455.5
2300.195	451.5
2304.085	428.5
2307.971	432.5
2311.854	436.5
2315.734	420.5
2319.609	417.5
2323.482	419.5
2327.351	415.5
2331.216	423.5
2335.078	426.5
2338.937	417.5
2342.792	407.5
2346.643	411.5
2350.492	399.5
2354.336	400.5
2358.178	404.5
2362.015	401.5
2365.85	404.5
2369.681	401.5
2373.508	399.5
2377.333	415.5
2381.153	398.5
2384.971	416.5
2388.785	396.5
2392.595	390.5
2396.402	394.5
2400.206	391.5
2404.007	397.5
2407.804	390.5
2411.597	391.5
2415.388	386.5
2419.174	388.5
2422.958	365.5
2426.738	379.5
2430.515	377.5
2434.289	378.5
2438.059	372.5
2441.825	361.5
2445.589	361.5
2449.349	343.5
2453.106	341.5
2456.859	346.5
2460.61	342.5
2464.356	336.5
2468.1	341.5
2471.84	325.5
2475.577	330.5
2479.311	315.5
2483.041	322.5
2486.768	326.5
2490.492	317.5
2494.213	319.5
2497.93	315.5
2501.644	322.5
2505.355	308.5
2509.062	311.5
2512.766	304.5
2516.467	303.5
2520.165	295.5
2523.859	305.5
2527.551	288.5
2531.239	284.5
2534.923	281.5
2538.605	270.5
2542.283	283.5
2545.958	274.5
2549.63	280.5
2553.299	270.5
2556.964	274.5
2560.626	260.5
2564.285	257.5
2567.941	255.5
2571.594	262.5
2575.243	260.5
2578.89	250.5
2582.533	250.5
2586.173	238.5
2589.809	238.5
2593.443	238.5
2597.073	231.5
2600.701	228.5
2604.325	222.5
2607.946	227.5
2611.564	227.5
2615.178	226.5
2618.79	223.5
2622.398	229.5
2626.004	215.5
2629.606	220.5
2633.205	222.5
2636.801	207.5
2640.394	208.5
2643.983	213.5
2647.57	208.5
2651.153	210.5
2654.734	210.5
2658.311	192.5
2661.885	195.5
2665.456	193.5
2669.025	195.5
2672.589	189.5
2676.151	189.5
2679.71	190.5
2683.266	190.5
2686.819	189.5
2690.368	179.5
2693.915	172.5
2697.458	173.5
2700.999	174.5
2704.536	173.5
2708.071	161.5
2711.602	155.5
2715.13	167.5
2718.656	160.5
2722.178	161.5
2725.697	146.5
2729.214	141.5
2732.727	155.5
2736.237	147.5
2739.744	145.5
2743.249	150.5
2746.75	137.5
2750.248	144.5
2753.743	132.5
2757.236	126.5
2760.725	137.5
2764.211	122.5
2767.695	134.5
2771.175	108.5
2774.652	114.5
2778.127	113.5
2781.598	118.5
2785.067	119.5
2788.532	119.5
2791.995	124.5
2795.455	118.5
2798.911	124.5
2802.365	127.5
2805.816	132.5
2809.264	119.5
2812.709	125.5
2816.151	127.5
2819.59	127.5
2823.026	129.5
2826.46	129.5
2829.89	128.5
2833.318	127.5
2836.742	129.5
2840.164	128.5
2843.583	126.5
2846.999	130.5
2850.412	131.5
2853.822	129.5
2857.229	126.5
2860.634	132.5
2864.035	139.5
2867.434	141.5
2870.83	142.5
2874.223	154.5
2877.613	152.5
2881	165.5
2884.385	167.5
2887.766	155.5
2891.145	154.5
2894.521	160.5
2897.894	168.5
2901.264	167.5
2904.631	165.5
2907.996	163.5
2911.358	176.5
2914.717	175.5
2918.073	178.5
2921.426	173.5
2924.777	185.5
2928.124	187.5
2931.469	185.5
2934.811	204.5
2938.15	203.5
2941.487	207.5
2944.821	204.5
2948.152	205.5
2951.48	194.5
2954.805	206.5
2958.128	203.5
2961.447	202.5
2964.765	208.5
2968.079	202.5
2971.39	200.5
2974.699	211.5
2978.005	194.5
2981.308	204.5
2984.609	207.5
2987.907	200.5
2991.202	215.5
2994.494	213.5
2997.784	208.5
3001.07	220.5
3004.355	228.5
3007.636	228.5
3010.915	223.5
3014.191	235.5
3017.464	232.5
3020.734	224.5
3024.002	230.5
3027.267	240.5
3030.53	247.5
3033.789	246.5
3037.046	253.5
3040.301	263.5
3043.552	275.5
3046.801	287.5
3050.048	286.5
3053.291	298.5
3056.532	309.5
3059.771	319.5
3063.006	321.5
3066.239	333.5
3069.469	342.5
3072.697	356.5
3075.922	355.5
3079.144	376.5
3082.364	387.5
3085.581	393.5
3088.795	386.5
3092.007	401.5
3095.216	406.5
3098.423	428.5
3101.627	435.5
3104.828	444.5
3108.026	441.5
3111.222	453.5
3114.416	474.5
3117.607	486.5
3120.795	497.5
3123.98	498.5
3127.163	525.5
3130.344	538.5
3133.521	529.5
3136.696	551.5
3139.869	561.5
3143.039	561.5
3146.206	565.5
3149.371	581.5
3152.533	596.5
3155.693	597.5
3158.85	594.5
3162.005	607.5
3165.157	601.5
3168.306	601.5
3171.453	612.5
3174.597	619.5
3177.739	619.5
3180.878	627.5
3184.014	618.5
3187.149	625.5
3190.28	629.5
3193.409	634.5
3196.536	626.5
3199.659	634.5
3202.781	654.5
3205.9	637.5
3209.016	646.5
3212.13	624.5
3215.241	628.5
3218.35	620.5
3221.456	622.5
3224.56	602.5
3227.661	612.5
3230.76	589.5
3233.856	584.5
3236.95	566.5
3240.041	587.5
3243.13	563.5
3246.216	558.5
3249.3	551.5
3252.382	535.5
3255.46	543.5
3258.537	533.5
3261.611	525.5
3264.682	515.5
3267.751	523.5
3270.818	516.5
3273.882	507.5
3276.943	504.5
3280.002	499.5
3283.059	504.5
3286.113	498.5
3289.165	493.5
3292.214	491.5
3295.261	480.5
3298.306	483.5
3301.348	470.5
3304.387	465.5
3307.425	453.5
3310.459	458.5
3313.492	443.5
3316.521	445.5
3319.549	442.5
3322.574	432.5
3325.597	426.5
3328.617	438.5
3331.635	435.5
3334.65	426.5
3337.663	411.5
3340.674	421.5
3343.682	431.5
3346.688	423.5
3349.691	422.5
3352.692	414.5
3355.691	418.5
3358.687	408.5
3361.681	416.5
3364.673	400.5
3367.662	395.5
3370.649	396.5
3373.633	393.5
3376.615	375.5
3379.595	381.5
3382.572	376.5
3385.547	371.5
3388.52	358.5
3391.49	363.5
3394.458	354.5
3397.424	340.5
3400.387	327.5
3403.348	328.5
3406.307	322.5
3409.263	321.5
3412.217	319.5
3415.168	324.5
3418.118	315.5
3421.065	311.5
3424.009	302.5
3426.951	301.5
3429.891	294.5
3432.829	283.5
3435.764	277.5
3438.697	263.5
3441.628	251.5
3444.557	252.5
3447.483	236.5
3450.407	225.5
3453.328	214.5
3456.247	217.5
3459.164	206.5
3462.079	194.5
3464.991	194.5
3467.902	180.5
3470.809	176.5
3473.715	164.5
3476.618	163.5
3479.519	151.5
3482.418	153.5
3485.315	140.5
3488.209	122.5
3491.101	130.5
3493.99	131.5
3496.878	110.5
3499.763	111.5
3502.646	98.5
3505.527	91.5
3508.405	94.5
3511.281	85.5
3514.155	82.5
3517.027	74.5
3519.897	68.5
3522.764	56.5
3525.629	52.5
3528.492	49.5
3531.352	41.5
3534.211	32.5
3537.067	27.5
3539.921	30.5
3542.773	19.5
3545.622	9.5
3548.469	7.5
3551.315	8.5
3554.157	-2.5
3556.998	-9.5
3559.837	-10.5
3562.673	-11.5
3565.507	-12.5
3568.339	-21.5
3571.169	-30.5
3573.996	-27.5
3576.822	-34.5
3579.645	-29.5
3582.466	-30.5
3585.285	-44.5
3588.101	-31.5
3590.916	-51.5
3593.728	-52.5
3596.538	-53.5
3599.346	-56.5
3602.152	-53.5
3604.956	-56.5
3607.757	-50.5
3610.556	-59.5
3613.354	-55.5
3616.149	-72.5
3618.942	-73.5
3621.732	-74.5
3624.521	-73.5
3627.307	-69.5
3630.092	-73.5
3632.874	-70.5
3635.654	-79.5
3638.432	-78.5
3641.208	-80.5
3643.982	-85.5
3646.753	-85.5
3649.523	-85.5
3652.29	-81.5
3655.055	-82.5
3657.818	-86.5
3660.579	-92.5
3663.338	-90.5
3666.095	-94.5
3668.849	-97.5
3671.602	-92.5
3674.352	-99.5
3677.101	-100.5
3679.847	-99.5
3682.591	-104.5
3685.333	-102.5
3688.073	-103.5
3690.811	-102.5
3693.547	-109.5
3696.281	-107.5
3699.013	-108.5
3701.742	-108.5
3704.47	-111.5
3707.195	-109.5
3709.919	-108.5
3712.64	-106.5
3715.359	-109.5
3718.076	-114.5
3720.792	-110.5
3723.505	-117.5
3726.216	-111.5
3728.925	-119.5
3731.632	-110.5
3734.336	-125.5
3737.039	-116.5
3739.74	-117.5
3742.439	-123.5
3745.136	-111.5
3747.83	-124.5
3750.523	-116.5
3753.213	-122.5
3755.902	-113.5
3758.589	-121.5
3761.273	-114.5
3763.956	-115.5
3766.636	-120.5
3769.315	-121.5
3771.991	-117.5
3774.665	-122.5
3777.338	-110.5
3780.008	-115.5
3782.677	-126.5
3785.343	-124.5
3788.007	-121.5
3790.67	-122.5
3793.33	-116.5
3795.989	-122.5
3798.645	-119.5
3801.299	-124.5
3803.952	-129.5
3806.602	-119.5
3809.251	-131.5
3811.897	-128.5
3814.542	-125.5
3817.184	-120.5
3819.825	-123.5
3822.463	-122.5
3825.1	-124.5
3827.735	-124.5
3830.367	-133.5
3832.998	-128.5
3835.627	-123.5
3838.253	-119.5
3840.878	-122.5
3843.501	-117.5
3846.122	-129.5
3848.741	-131.5
3851.358	-124.5
3853.973	-129.5
3856.586	-125.5
3859.197	-129.5
3861.806	-122.5
3864.414	-125.5
3867.019	-120.5
3869.622	-127.5
3872.224	-115.5
3874.823	-111.5
3877.421	-95.5
3880.016	-73.5
3882.61	-53.5
3885.202	-64.5
3887.792	-81.5
3890.38	-99.5
3892.966	-124.5
3895.55	-118.5
3898.132	-121.5
3900.713	-120.5
3903.291	-124.5
3905.868	-128.5
3908.442	-120.5
3911.015	-126.5
3913.586	-124.5
3916.155	-126.5
3918.722	-131.5
3921.287	-123.5
3923.85	-125.5
3926.411	-128.5
3928.971	-128.5
3931.528	-132.5
3934.084	-130.5
3936.638	-119.5
3939.19	-127.5
3941.74	-125.5
3944.288	-125.5
3946.834	-121.5
3949.378	-123.5
3951.921	-127.5
3954.462	-134.5
3957	-130.5
3959.537	-123.5
3962.072	-126.5
3964.606	-122.5
3967.137	-125.5
3969.667	-132.5
3972.194	-130.5
3974.72	-127.5
3977.244	-129.5
3979.766	-125.5
3982.286	-123.5
3984.805	-126.5
3987.321	-121.5
3989.836	-120.5
3992.349	-126.5
3994.86	-126.5
3997.369	-129.5
3999.877	-121.5
4002.382	-120.5
4004.886	-130.5
4007.388	-126.5
4009.888	-123.5
4012.386	-130.5
4014.883	-126.5
4017.377	-128.5
4019.87	-126.5
4022.361	-123.5
4024.85	-129.5
4027.338	-120.5
4029.823	-121.5
4032.307	-122.5
4034.789	-129.5
4037.269	-128.5
4039.747	-120.5
4042.224	-124.5
4044.699	-122.5
4047.172	-122.5
4049.643	-121.5
4052.112	-125.5
4054.58	-130.5
4057.046	-129.5
4059.51	-128.5
4061.972	-124.5
4064.432	-119.5
4066.891	-125.5
4069.348	-122.5
4071.803	-134.5
4074.256	-125.5
4076.708	-126.5
4079.158	-123.5
4081.606	-117.5
4084.052	-128.5
4086.497	-125.5
4088.939	-115.5
4091.38	-126.5
4093.819	-126.5
4096.257	-133.5
4098.693	-130.5
4101.127	-135.5
4103.559	-128.5
4105.989	9.5
4108.418	-0.5
4110.845	5.5
4113.27	-4.5
4115.694	-6.5
4118.115	-7.5
4120.535	-125.5
4122.954	-130.5
4125.37	-127.5
4127.785	-125.5
4130.198	-124.5
4132.609	-125.5
4135.019	-131.5
4137.427	-136.5
4139.833	-134.5
4142.237	-133.5
