Data from 2018-2-8_conc=0_n=4_RamanShift_01.txt Node
Date: Mon Mar 12 13:29:29 IST 2018
User: aro
Spectrometer: QEPB0276
Trigger mode: 0
Integration Time (sec): 3.000000E1
Scans to average: 1
Electric dark correction enabled: true
Nonlinearity correction enabled: false
Boxcar width: 0
XAxis mode: Raman Shifts
Number of Pixels in Spectrum: 1044
>>>>>Begin Spectral Data<<<<<
160.701	18.8
166.742	47.8
172.777	120.8
178.805	354.8
184.826	954.8
190.841	2031.8
196.849	3355.8
202.85	4369.8
208.845	4761.8
214.833	4755.8
220.815	4710.8
226.789	4707.8
232.758	4695.8
238.719	4701.8
244.674	4691.8
250.623	4654.8
256.565	4575.8
262.5	4525.8
268.429	4496.8
274.351	4461.8
280.267	4418.8
286.176	4396.8
292.079	4403.8
297.975	4373.8
303.865	4352.8
309.748	4373.8
315.625	4356.8
321.495	4367.8
327.359	4327.8
333.217	4359.8
339.068	4365.8
344.912	4382.8
350.751	4363.8
356.583	4388.8
362.408	4405.8
368.227	4410.8
374.04	4426.8
379.847	4433.8
385.647	4469.8
391.44	4466.8
397.228	4507.8
403.009	4525.8
408.784	4537.8
414.553	4540.8
420.315	4563.8
426.071	4557.8
431.821	4563.8
437.565	4577.8
443.302	4582.8
449.033	4554.8
454.758	4510.8
460.477	4495.8
466.189	4476.8
471.896	4458.8
477.596	4413.8
483.29	4393.8
488.978	4408.8
494.66	4379.8
500.335	4327.8
506.005	4188.8
511.668	4077.8
517.325	3918.8
522.977	3801.8
528.622	3709.8
534.261	3643.8
539.894	3623.8
545.521	3582.8
551.141	3575.8
556.756	3534.8
562.365	3509.8
567.968	3504.8
573.565	3463.8
579.155	3444.8
584.74	3422.8
590.319	3415.8
595.892	3435.8
601.459	3390.8
607.02	3386.8
612.575	3387.8
618.124	3364.8
623.667	3307.8
629.204	3293.8
634.735	3259.8
640.261	3230.8
645.781	3211.8
651.294	3189.8
656.802	3190.8
662.304	3201.8
667.8	3148.8
673.29	3157.8
678.775	3155.8
684.254	3174.8
689.726	3125.8
695.193	3127.8
700.655	3115.8
706.11	3090.8
711.56	3053.8
717.004	3073.8
722.442	3037.8
727.874	3030.8
733.301	3021.8
738.722	2990.8
744.137	2983.8
749.547	2995.8
754.951	2990.8
760.349	3014.8
765.741	2980.8
771.128	3011.8
776.509	3031.8
781.885	3045.8
787.254	3066.8
792.618	3056.8
797.977	3053.8
803.33	3046.8
808.677	3020.8
814.019	3012.8
819.355	2972.8
824.686	2946.8
830.011	2920.8
835.33	2927.8
840.644	2911.8
845.952	2914.8
851.255	2899.8
856.552	2907.8
861.844	2869.8
867.13	2858.8
872.41	2840.8
877.686	2818.8
882.955	2811.8
888.219	2796.8
893.478	2761.8
898.731	2713.8
903.979	2684.8
909.221	2617.8
914.458	2638.8
919.69	2635.8
924.916	2608.8
930.136	2639.8
935.351	2634.8
940.561	2626.8
945.766	2638.8
950.965	2660.8
956.158	2601.8
961.347	2588.8
966.529	2544.8
971.707	2504.8
976.879	2471.8
982.046	2440.8
987.208	2443.8
992.364	2440.8
997.515	2457.8
1002.66	2484.8
1007.801	2478.8
1012.936	2520.8
1018.066	2510.8
1023.19	2522.8
1028.309	2543.8
1033.423	2511.8
1038.532	2506.8
1043.636	2497.8
1048.734	2483.8
1053.827	2450.8
1058.915	2423.8
1063.998	2407.8
1069.075	2387.8
1074.147	2391.8
1079.214	2397.8
1084.276	2378.8
1089.333	2403.8
1094.385	2450.8
1099.431	2416.8
1104.472	2419.8
1109.509	2399.8
1114.54	2378.8
1119.565	2337.8
1124.586	2315.8
1129.602	2284.8
1134.613	2282.8
1139.618	2253.8
1144.619	2243.8
1149.614	2223.8
1154.604	2258.8
1159.589	2253.8
1164.57	2248.8
1169.545	2256.8
1174.515	2267.8
1179.48	2241.8
1184.44	2228.8
1189.395	2213.8
1194.345	2185.8
1199.29	2162.8
1204.23	2183.8
1209.165	2194.8
1214.095	2199.8
1219.021	2224.8
1223.941	2215.8
1228.856	2226.8
1233.766	2218.8
1238.672	2250.8
1243.572	2221.8
1248.467	2211.8
1253.358	2193.8
1258.244	2166.8
1263.124	2118.8
1268	2091.8
1272.871	2066.8
1277.737	2047.8
1282.599	2031.8
1287.455	2028.8
1292.306	2042.8
1297.153	2033.8
1301.995	2057.8
1306.832	2073.8
1311.664	2089.8
1316.491	2073.8
1321.314	2071.8
1326.132	2078.8
1330.945	2045.8
1335.753	1996.8
1340.556	1967.8
1345.354	1973.8
1350.148	1935.8
1354.937	1874.8
1359.722	1865.8
1364.501	1839.8
1369.276	1799.8
1374.046	1773.8
1378.811	1754.8
1383.572	1730.8
1388.327	1728.8
1393.079	1736.8
1397.825	1737.8
1402.567	1746.8
1407.304	1750.8
1412.036	1754.8
1416.764	1768.8
1421.487	1769.8
1426.205	1763.8
1430.919	1760.8
1435.628	1769.8
1440.333	1786.8
1445.032	1794.8
1449.727	1824.8
1454.418	1811.8
1459.104	1815.8
1463.785	1796.8
1468.462	1766.8
1473.134	1721.8
1477.802	1685.8
1482.465	1634.8
1487.123	1633.8
1491.777	1603.8
1496.426	1583.8
1501.071	1572.8
1505.711	1577.8
1510.347	1552.8
1514.978	1546.8
1519.604	1547.8
1524.226	1547.8
1528.844	1541.8
1533.457	1506.8
1538.065	1521.8
1542.669	1516.8
1547.269	1534.8
1551.864	1518.8
1556.454	1540.8
1561.041	1550.8
1565.622	1535.8
1570.199	1556.8
1574.772	1559.8
1579.34	1592.8
1583.904	1608.8
1588.464	1632.8
1593.019	1593.8
1597.569	1630.8
1602.115	1612.8
1606.657	1604.8
1611.195	1607.8
1615.728	1599.8
1620.256	1600.8
1624.78	1595.8
1629.3	1598.8
1633.816	1590.8
1638.327	1610.8
1642.834	1618.8
1647.336	1619.8
1651.834	1636.8
1656.328	1621.8
1660.817	1620.8
1665.302	1597.8
1669.783	1571.8
1674.259	1539.8
1678.732	1486.8
1683.199	1451.8
1687.663	1434.8
1692.122	1385.8
1696.577	1316.8
1701.028	1257.8
1705.474	1222.8
1709.917	1169.8
1714.355	1146.8
1718.788	1151.8
1723.218	1161.8
1727.643	1164.8
1732.064	1144.8
1736.481	1140.8
1740.893	1118.8
1745.301	1106.8
1749.705	1059.8
1754.105	1048.8
1758.501	1032.8
1762.893	1015.8
1767.28	997.8
1771.663	1002.8
1776.042	991.8
1780.417	986.8
1784.787	975.8
1789.154	959.8
1793.516	945.8
1797.874	934.8
1802.228	922.8
1806.578	917.8
1810.924	896.8
1815.266	880.8
1819.603	895.8
1823.937	893.8
1828.266	882.8
1832.591	891.8
1836.913	880.8
1841.23	894.8
1845.543	890.8
1849.852	893.8
1854.156	885.8
1858.457	890.8
1862.754	883.8
1867.047	890.8
1871.335	900.8
1875.62	902.8
1879.9	883.8
1884.177	879.8
1888.449	860.8
1892.718	857.8
1896.982	844.8
1901.243	830.8
1905.499	830.8
1909.752	812.8
1914	814.8
1918.245	795.8
1922.485	787.8
1926.722	778.8
1930.954	778.8
1935.183	771.8
1939.408	759.8
1943.628	761.8
1947.845	757.8
1952.058	747.8
1956.267	754.8
1960.472	737.8
1964.673	727.8
1968.87	708.8
1973.063	710.8
1977.252	701.8
1981.438	717.8
1985.619	709.8
1989.797	720.8
1993.971	714.8
1998.14	733.8
2002.306	714.8
2006.469	730.8
2010.627	712.8
2014.781	722.8
2018.932	728.8
2023.078	723.8
2027.221	718.8
2031.36	704.8
2035.495	702.8
2039.627	686.8
2043.754	680.8
2047.878	665.8
2051.998	668.8
2056.114	672.8
2060.226	660.8
2064.334	650.8
2068.439	658.8
2072.54	646.8
2076.637	657.8
2080.73	639.8
2084.82	640.8
2088.906	648.8
2092.988	635.8
2097.066	626.8
2101.14	612.8
2105.211	609.8
2109.278	603.8
2113.342	606.8
2117.401	584.8
2121.457	582.8
2125.509	573.8
2129.558	581.8
2133.602	581.8
2137.643	581.8
2141.681	585.8
2145.714	574.8
2149.744	581.8
2153.77	571.8
2157.793	575.8
2161.812	582.8
2165.827	565.8
2169.838	561.8
2173.846	548.8
2177.851	543.8
2181.851	535.8
2185.848	531.8
2189.841	527.8
2193.831	525.8
2197.817	518.8
2201.799	514.8
2205.778	516.8
2209.753	521.8
2213.725	507.8
2217.693	513.8
2221.657	502.8
2225.618	506.8
2229.575	506.8
2233.529	497.8
2237.479	495.8
2241.425	486.8
2245.368	478.8
2249.307	483.8
2253.243	467.8
2257.175	460.8
2261.104	461.8
2265.029	441.8
2268.95	443.8
2272.868	444.8
2276.783	437.8
2280.694	432.8
2284.601	434.8
2288.505	433.8
2292.405	411.8
2296.302	410.8
2300.195	413.8
2304.085	400.8
2307.971	388.8
2311.854	406.8
2315.734	373.8
2319.609	378.8
2323.482	374.8
2327.351	382.8
2331.216	383.8
2335.078	401.8
2338.937	380.8
2342.792	355.8
2346.643	354.8
2350.492	357.8
2354.336	370.8
2358.178	371.8
2362.015	359.8
2365.85	373.8
2369.681	366.8
2373.508	372.8
2377.333	371.8
2381.153	364.8
2384.971	373.8
2388.785	368.8
2392.595	361.8
2396.402	354.8
2400.206	351.8
2404.007	349.8
2407.804	355.8
2411.597	347.8
2415.388	350.8
2419.174	341.8
2422.958	342.8
2426.738	348.8
2430.515	339.8
2434.289	331.8
2438.059	335.8
2441.825	334.8
2445.589	327.8
2449.349	312.8
2453.106	305.8
2456.859	317.8
2460.61	312.8
2464.356	308.8
2468.1	295.8
2471.84	296.8
2475.577	296.8
2479.311	286.8
2483.041	293.8
2486.768	286.8
2490.492	287.8
2494.213	291.8
2497.93	272.8
2501.644	278.8
2505.355	273.8
2509.062	270.8
2512.766	274.8
2516.467	275.8
2520.165	273.8
2523.859	262.8
2527.551	257.8
2531.239	246.8
2534.923	253.8
2538.605	251.8
2542.283	248.8
2545.958	243.8
2549.63	248.8
2553.299	237.8
2556.964	231.8
2560.626	222.8
2564.285	224.8
2567.941	222.8
2571.594	221.8
2575.243	232.8
2578.89	218.8
2582.533	219.8
2586.173	208.8
2589.809	206.8
2593.443	210.8
2597.073	200.8
2600.701	202.8
2604.325	197.8
2607.946	201.8
2611.564	198.8
2615.178	207.8
2618.79	195.8
2622.398	198.8
2626.004	188.8
2629.606	188.8
2633.205	178.8
2636.801	186.8
2640.394	184.8
2643.983	191.8
2647.57	184.8
2651.153	180.8
2654.734	170.8
2658.311	170.8
2661.885	166.8
2665.456	168.8
2669.025	173.8
2672.589	167.8
2676.151	176.8
2679.71	165.8
2683.266	162.8
2686.819	164.8
2690.368	151.8
2693.915	149.8
2697.458	149.8
2700.999	157.8
2704.536	152.8
2708.071	142.8
2711.602	143.8
2715.13	132.8
2718.656	131.8
2722.178	135.8
2725.697	126.8
2729.214	125.8
2732.727	133.8
2736.237	130.8
2739.744	118.8
2743.249	119.8
2746.75	127.8
2750.248	112.8
2753.743	119.8
2757.236	112.8
2760.725	109.8
2764.211	112.8
2767.695	107.8
2771.175	100.8
2774.652	98.8
2778.127	101.8
2781.598	92.8
2785.067	99.8
2788.532	102.8
2791.995	101.8
2795.455	102.8
2798.911	100.8
2802.365	102.8
2805.816	106.8
2809.264	104.8
2812.709	101.8
2816.151	105.8
2819.59	107.8
2823.026	100.8
2826.46	110.8
2829.89	103.8
2833.318	98.8
2836.742	112.8
2840.164	100.8
2843.583	103.8
2846.999	118.8
2850.412	111.8
2853.822	106.8
2857.229	108.8
2860.634	121.8
2864.035	116.8
2867.434	120.8
2870.83	122.8
2874.223	136.8
2877.613	141.8
2881	144.8
2884.385	149.8
2887.766	144.8
2891.145	139.8
2894.521	143.8
2897.894	156.8
2901.264	152.8
2904.631	149.8
2907.996	149.8
2911.358	150.8
2914.717	154.8
2918.073	157.8
2921.426	160.8
2924.777	167.8
2928.124	169.8
2931.469	171.8
2934.811	182.8
2938.15	193.8
2941.487	190.8
2944.821	177.8
2948.152	190.8
2951.48	190.8
2954.805	186.8
2958.128	174.8
2961.447	168.8
2964.765	179.8
2968.079	179.8
2971.39	177.8
2974.699	179.8
2978.005	168.8
2981.308	173.8
2984.609	185.8
2987.907	177.8
2991.202	176.8
2994.494	174.8
2997.784	177.8
3001.07	182.8
3004.355	192.8
3007.636	181.8
3010.915	185.8
3014.191	185.8
3017.464	200.8
3020.734	199.8
3024.002	195.8
3027.267	211.8
3030.53	219.8
3033.789	204.8
3037.046	219.8
3040.301	220.8
3043.552	238.8
3046.801	232.8
3050.048	245.8
3053.291	246.8
3056.532	263.8
3059.771	276.8
3063.006	275.8
3066.239	286.8
3069.469	304.8
3072.697	309.8
3075.922	323.8
3079.144	315.8
3082.364	340.8
3085.581	344.8
3088.795	340.8
3092.007	343.8
3095.216	354.8
3098.423	361.8
3101.627	376.8
3104.828	380.8
3108.026	382.8
3111.222	395.8
3114.416	396.8
3117.607	415.8
3120.795	432.8
3123.98	424.8
3127.163	446.8
3130.344	460.8
3133.521	460.8
3136.696	472.8
3139.869	482.8
3143.039	496.8
3146.206	483.8
3149.371	502.8
3152.533	512.8
3155.693	519.8
3158.85	527.8
3162.005	522.8
3165.157	520.8
3168.306	528.8
3171.453	525.8
3174.597	533.8
3177.739	535.8
3180.878	550.8
3184.014	548.8
3187.149	539.8
3190.28	538.8
3193.409	546.8
3196.536	546.8
3199.659	548.8
3202.781	556.8
3205.9	560.8
3209.016	557.8
3212.13	553.8
3215.241	556.8
3218.35	530.8
3221.456	543.8
3224.56	530.8
3227.661	530.8
3230.76	518.8
3233.856	514.8
3236.95	499.8
3240.041	488.8
3243.13	483.8
3246.216	471.8
3249.3	460.8
3252.382	469.8
3255.46	462.8
3258.537	456.8
3261.611	459.8
3264.682	441.8
3267.751	434.8
3270.818	437.8
3273.882	439.8
3276.943	430.8
3280.002	441.8
3283.059	432.8
3286.113	424.8
3289.165	429.8
3292.214	414.8
3295.261	398.8
3298.306	416.8
3301.348	399.8
3304.387	401.8
3307.425	394.8
3310.459	389.8
3313.492	389.8
3316.521	377.8
3319.549	370.8
3322.574	363.8
3325.597	375.8
3328.617	377.8
3331.635	372.8
3334.65	367.8
3337.663	362.8
3340.674	365.8
3343.682	372.8
3346.688	358.8
3349.691	379.8
3352.692	362.8
3355.691	356.8
3358.687	349.8
3361.681	351.8
3364.673	347.8
3367.662	343.8
3370.649	329.8
3373.633	324.8
3376.615	319.8
3379.595	321.8
3382.572	316.8
3385.547	309.8
3388.52	297.8
3391.49	299.8
3394.458	295.8
3397.424	293.8
3400.387	277.8
3403.348	279.8
3406.307	267.8
3409.263	274.8
3412.217	273.8
3415.168	266.8
3418.118	262.8
3421.065	242.8
3424.009	251.8
3426.951	256.8
3429.891	238.8
3432.829	231.8
3435.764	221.8
3438.697	213.8
3441.628	216.8
3444.557	210.8
3447.483	205.8
3450.407	187.8
3453.328	174.8
3456.247	176.8
3459.164	160.8
3462.079	160.8
3464.991	153.8
3467.902	145.8
3470.809	145.8
3473.715	137.8
3476.618	123.8
3479.519	116.8
3482.418	105.8
3485.315	102.8
3488.209	99.8
3491.101	104.8
3493.99	98.8
3496.878	92.8
3499.763	72.8
3502.646	72.8
3505.527	73.8
3508.405	69.8
3511.281	59.8
3514.155	47.8
3517.027	46.8
3519.897	39.8
3522.764	37.8
3525.629	23.8
3528.492	19.8
3531.352	15.8
3534.211	6.8
3537.067	5.8
3539.921	4.8
3542.773	-0.2
3545.622	-10.2
3548.469	-15.2
3551.315	-10.2
3554.157	-17.2
3556.998	-28.2
3559.837	-26.2
3562.673	-31.2
3565.507	-27.2
3568.339	-27.2
3571.169	-41.2
3573.996	-40.2
3576.822	-45.2
3579.645	-46.2
3582.466	-44.2
3585.285	-55.2
3588.101	-43.2
3590.916	-51.2
3593.728	-65.2
3596.538	-60.2
3599.346	-70.2
3602.152	-64.2
3604.956	-65.2
3607.757	-62.2
3610.556	-75.2
3613.354	-71.2
3616.149	-81.2
3618.942	-83.2
3621.732	-80.2
3624.521	-78.2
3627.307	-80.2
3630.092	-80.2
3632.874	-79.2
3635.654	-86.2
3638.432	-87.2
3641.208	-86.2
3643.982	-88.2
3646.753	-96.2
3649.523	-94.2
3652.29	-92.2
3655.055	-92.2
3657.818	-93.2
3660.579	-95.2
3663.338	-96.2
3666.095	-99.2
3668.849	-101.2
3671.602	-104.2
3674.352	-103.2
3677.101	-107.2
3679.847	-114.2
3682.591	-110.2
3685.333	-102.2
3688.073	-103.2
3690.811	-110.2
3693.547	-116.2
3696.281	-117.2
3699.013	-115.2
3701.742	-117.2
3704.47	-116.2
3707.195	-113.2
3709.919	-118.2
3712.64	-112.2
3715.359	-122.2
3718.076	-119.2
3720.792	-120.2
3723.505	-120.2
3726.216	-115.2
3728.925	-125.2
3731.632	-123.2
3734.336	-128.2
3737.039	-122.2
3739.74	-122.2
3742.439	-129.2
3745.136	-118.2
3747.83	-127.2
3750.523	-127.2
3753.213	-119.2
3755.902	-126.2
3758.589	-125.2
3761.273	-118.2
3763.956	-118.2
3766.636	-123.2
3769.315	-121.2
3771.991	-128.2
3774.665	-127.2
3777.338	-120.2
3780.008	-125.2
3782.677	-125.2
3785.343	-122.2
3788.007	-124.2
3790.67	-125.2
3793.33	-127.2
3795.989	-132.2
3798.645	-128.2
3801.299	-121.2
3803.952	-129.2
3806.602	-120.2
3809.251	-128.2
3811.897	-132.2
3814.542	-129.2
3817.184	-126.2
3819.825	-125.2
3822.463	-126.2
3825.1	-128.2
3827.735	-126.2
3830.367	-129.2
3832.998	-131.2
3835.627	-127.2
3838.253	-128.2
3840.878	-127.2
3843.501	-127.2
3846.122	-131.2
3848.741	-132.2
3851.358	-124.2
3853.973	-130.2
3856.586	-123.2
3859.197	-133.2
3861.806	-126.2
3864.414	-128.2
3867.019	-125.2
3869.622	-127.2
3872.224	-114.2
3874.823	-98.2
3877.421	-88.2
3880.016	-62.2
3882.61	-38.2
3885.202	-29.2
3887.792	-59.2
3890.38	-87.2
3892.966	-118.2
3895.55	-121.2
3898.132	-122.2
3900.713	-126.2
3903.291	-131.2
3905.868	-134.2
3908.442	-123.2
3911.015	-136.2
3913.586	-131.2
3916.155	-135.2
3918.722	-134.2
3921.287	-125.2
3923.85	-128.2
3926.411	-126.2
3928.971	-129.2
3931.528	-131.2
3934.084	-132.2
3936.638	-123.2
3939.19	-134.2
3941.74	-135.2
3944.288	-130.2
3946.834	-128.2
3949.378	-127.2
3951.921	-128.2
3954.462	-138.2
3957	-132.2
3959.537	-132.2
3962.072	-131.2
3964.606	-123.2
3967.137	-129.2
3969.667	-125.2
3972.194	-131.2
3974.72	-126.2
3977.244	-130.2
3979.766	-134.2
3982.286	-125.2
3984.805	-133.2
3987.321	-129.2
3989.836	-120.2
3992.349	-128.2
3994.86	-130.2
3997.369	-129.2
3999.877	-132.2
4002.382	-130.2
4004.886	-130.2
4007.388	-126.2
4009.888	-128.2
4012.386	-130.2
4014.883	-129.2
4017.377	-132.2
4019.87	-129.2
4022.361	-130.2
4024.85	-132.2
4027.338	-125.2
4029.823	-126.2
4032.307	-125.2
4034.789	-129.2
4037.269	-131.2
4039.747	-129.2
4042.224	-129.2
4044.699	-129.2
4047.172	-127.2
4049.643	-124.2
4052.112	-124.2
4054.58	-124.2
4057.046	-126.2
4059.51	-131.2
4061.972	-127.2
4064.432	-128.2
4066.891	-130.2
4069.348	-128.2
4071.803	-131.2
4074.256	-128.2
4076.708	-126.2
4079.158	-125.2
4081.606	-125.2
4084.052	-137.2
4086.497	-125.2
4088.939	-126.2
4091.38	-126.2
4093.819	-125.2
4096.257	-138.2
4098.693	-135.2
4101.127	-136.2
4103.559	-132.2
4105.989	20.8
4108.418	17.8
4110.845	6.8
4113.27	3.8
4115.694	2.8
4118.115	-4.2
4120.535	-131.2
4122.954	-134.2
4125.37	-126.2
4127.785	-129.2
4130.198	-129.2
4132.609	-129.2
4135.019	-130.2
4137.427	-138.2
4139.833	-136.2
4142.237	-137.2
