Data from 2018-2-8_conc=5_n=7_RamanShift_01.txt Node
Date: Mon Mar 12 16:10:28 IST 2018
User: aro
Spectrometer: QEPB0276
Trigger mode: 0
Integration Time (sec): 3.000000E1
Scans to average: 1
Electric dark correction enabled: true
Nonlinearity correction enabled: false
Boxcar width: 0
XAxis mode: Raman Shifts
Number of Pixels in Spectrum: 1044
>>>>>Begin Spectral Data<<<<<
160.701	22.2
166.742	41.2
172.777	109.2
178.805	299.2
184.826	812.2
190.841	1702.2
196.849	2838.2
202.85	3709.2
208.845	4028.2
214.833	4019.2
220.815	3987.2
226.789	3997.2
232.758	3978.2
238.719	3986.2
244.674	4008.2
250.623	3942.2
256.565	3882.2
262.5	3831.2
268.429	3810.2
274.351	3784.2
280.267	3749.2
286.176	3728.2
292.079	3745.2
297.975	3752.2
303.865	3718.2
309.748	3730.2
315.625	3696.2
321.495	3707.2
327.359	3710.2
333.217	3731.2
339.068	3718.2
344.912	3749.2
350.751	3731.2
356.583	3752.2
362.408	3777.2
368.227	3761.2
374.04	3804.2
379.847	3838.2
385.647	3831.2
391.44	3865.2
397.228	3868.2
403.009	3882.2
408.784	3915.2
414.553	3914.2
420.315	3946.2
426.071	3928.2
431.821	3941.2
437.565	3950.2
443.302	3918.2
449.033	3889.2
454.758	3907.2
460.477	3874.2
466.189	3839.2
471.896	3793.2
477.596	3791.2
483.29	3748.2
488.978	3759.2
494.66	3748.2
500.335	3695.2
506.005	3562.2
511.668	3436.2
517.325	3306.2
522.977	3184.2
528.622	3143.2
534.261	3061.2
539.894	3022.2
545.521	2979.2
551.141	2952.2
556.756	2922.2
562.365	2925.2
567.968	2898.2
573.565	2901.2
579.155	2853.2
584.74	2836.2
590.319	2847.2
595.892	2814.2
601.459	2838.2
607.02	2812.2
612.575	2797.2
618.124	2770.2
623.667	2742.2
629.204	2695.2
634.735	2667.2
640.261	2654.2
645.781	2628.2
651.294	2660.2
656.802	2639.2
662.304	2611.2
667.8	2616.2
673.29	2586.2
678.775	2604.2
684.254	2595.2
689.726	2587.2
695.193	2579.2
700.655	2528.2
706.11	2545.2
711.56	2525.2
717.004	2516.2
722.442	2492.2
727.874	2484.2
733.301	2470.2
738.722	2474.2
744.137	2481.2
749.547	2460.2
754.951	2455.2
760.349	2458.2
765.741	2468.2
771.128	2470.2
776.509	2509.2
781.885	2513.2
787.254	2507.2
792.618	2533.2
797.977	2530.2
803.33	2507.2
808.677	2485.2
814.019	2458.2
819.355	2460.2
824.686	2442.2
830.011	2401.2
835.33	2419.2
840.644	2396.2
845.952	2406.2
851.255	2365.2
856.552	2381.2
861.844	2360.2
867.13	2345.2
872.41	2349.2
877.686	2297.2
882.955	2285.2
888.219	2276.2
893.478	2234.2
898.731	2199.2
903.979	2180.2
909.221	2166.2
914.458	2161.2
919.69	2138.2
924.916	2153.2
930.136	2173.2
935.351	2142.2
940.561	2171.2
945.766	2150.2
950.965	2129.2
956.158	2128.2
961.347	2101.2
966.529	2075.2
971.707	2032.2
976.879	2013.2
982.046	2003.2
987.208	2005.2
992.364	2009.2
997.515	2005.2
1002.66	2017.2
1007.801	2055.2
1012.936	2052.2
1018.066	2078.2
1023.19	2057.2
1028.309	2078.2
1033.423	2060.2
1038.532	2073.2
1043.636	2045.2
1048.734	2028.2
1053.827	2001.2
1058.915	1977.2
1063.998	1972.2
1069.075	1970.2
1074.147	1966.2
1079.214	1959.2
1084.276	1974.2
1089.333	1973.2
1094.385	1983.2
1099.431	1975.2
1104.472	1951.2
1109.509	1955.2
1114.54	1946.2
1119.565	1895.2
1124.586	1881.2
1129.602	1875.2
1134.613	1830.2
1139.618	1821.2
1144.619	1836.2
1149.614	1821.2
1154.604	1851.2
1159.589	1837.2
1164.57	1848.2
1169.545	1852.2
1174.515	1847.2
1179.48	1842.2
1184.44	1827.2
1189.395	1819.2
1194.345	1796.2
1199.29	1791.2
1204.23	1798.2
1209.165	1796.2
1214.095	1800.2
1219.021	1798.2
1223.941	1831.2
1228.856	1839.2
1233.766	1840.2
1238.672	1840.2
1243.572	1824.2
1248.467	1827.2
1253.358	1787.2
1258.244	1764.2
1263.124	1745.2
1268	1707.2
1272.871	1675.2
1277.737	1672.2
1282.599	1664.2
1287.455	1652.2
1292.306	1676.2
1297.153	1672.2
1301.995	1706.2
1306.832	1679.2
1311.664	1743.2
1316.491	1708.2
1321.314	1704.2
1326.132	1705.2
1330.945	1700.2
1335.753	1658.2
1340.556	1638.2
1345.354	1619.2
1350.148	1587.2
1354.937	1543.2
1359.722	1551.2
1364.501	1516.2
1369.276	1506.2
1374.046	1475.2
1378.811	1441.2
1383.572	1437.2
1388.327	1445.2
1393.079	1432.2
1397.825	1421.2
1402.567	1440.2
1407.304	1435.2
1412.036	1439.2
1416.764	1439.2
1421.487	1436.2
1426.205	1438.2
1430.919	1448.2
1435.628	1460.2
1440.333	1463.2
1445.032	1475.2
1449.727	1499.2
1454.418	1493.2
1459.104	1508.2
1463.785	1477.2
1468.462	1463.2
1473.134	1442.2
1477.802	1411.2
1482.465	1371.2
1487.123	1360.2
1491.777	1335.2
1496.426	1323.2
1501.071	1315.2
1505.711	1303.2
1510.347	1321.2
1514.978	1301.2
1519.604	1316.2
1524.226	1306.2
1528.844	1300.2
1533.457	1283.2
1538.065	1286.2
1542.669	1280.2
1547.269	1270.2
1551.864	1284.2
1556.454	1297.2
1561.041	1308.2
1565.622	1297.2
1570.199	1299.2
1574.772	1310.2
1579.34	1332.2
1583.904	1346.2
1588.464	1358.2
1593.019	1365.2
1597.569	1364.2
1602.115	1352.2
1606.657	1350.2
1611.195	1338.2
1615.728	1343.2
1620.256	1345.2
1624.78	1325.2
1629.3	1366.2
1633.816	1339.2
1638.327	1339.2
1642.834	1353.2
1647.336	1368.2
1651.834	1377.2
1656.328	1377.2
1660.817	1381.2
1665.302	1355.2
1669.783	1334.2
1674.259	1306.2
1678.732	1279.2
1683.199	1250.2
1687.663	1218.2
1692.122	1187.2
1696.577	1131.2
1701.028	1096.2
1705.474	1058.2
1709.917	1041.2
1714.355	1006.2
1718.788	1001.2
1723.218	1006.2
1727.643	996.2
1732.064	979.2
1736.481	977.2
1740.893	951.2
1745.301	933.2
1749.705	929.2
1754.105	901.2
1758.501	877.2
1762.893	856.2
1767.28	876.2
1771.663	854.2
1776.042	861.2
1780.417	847.2
1784.787	830.2
1789.154	826.2
1793.516	830.2
1797.874	808.2
1802.228	816.2
1806.578	788.2
1810.924	799.2
1815.266	774.2
1819.603	785.2
1823.937	773.2
1828.266	772.2
1832.591	768.2
1836.913	763.2
1841.23	762.2
1845.543	774.2
1849.852	771.2
1854.156	769.2
1858.457	774.2
1862.754	778.2
1867.047	771.2
1871.335	773.2
1875.62	778.2
1879.9	782.2
1884.177	771.2
1888.449	750.2
1892.718	751.2
1896.982	748.2
1901.243	732.2
1905.499	737.2
1909.752	715.2
1914	717.2
1918.245	709.2
1922.485	691.2
1926.722	698.2
1930.954	693.2
1935.183	678.2
1939.408	683.2
1943.628	677.2
1947.845	666.2
1952.058	670.2
1956.267	666.2
1960.472	677.2
1964.673	651.2
1968.87	636.2
1973.063	641.2
1977.252	630.2
1981.438	645.2
1985.619	622.2
1989.797	630.2
1993.971	638.2
1998.14	637.2
2002.306	618.2
2006.469	635.2
2010.627	626.2
2014.781	629.2
2018.932	629.2
2023.078	631.2
2027.221	637.2
2031.36	619.2
2035.495	619.2
2039.627	601.2
2043.754	582.2
2047.878	583.2
2051.998	584.2
2056.114	590.2
2060.226	591.2
2064.334	596.2
2068.439	585.2
2072.54	583.2
2076.637	572.2
2080.73	568.2
2084.82	578.2
2088.906	573.2
2092.988	562.2
2097.066	570.2
2101.14	551.2
2105.211	542.2
2109.278	538.2
2113.342	527.2
2117.401	525.2
2121.457	522.2
2125.509	514.2
2129.558	526.2
2133.602	521.2
2137.643	518.2
2141.681	507.2
2145.714	508.2
2149.744	513.2
2153.77	515.2
2157.793	512.2
2161.812	490.2
2165.827	499.2
2169.838	489.2
2173.846	483.2
2177.851	474.2
2181.851	456.2
2185.848	457.2
2189.841	453.2
2193.831	458.2
2197.817	450.2
2201.799	440.2
2205.778	452.2
2209.753	435.2
2213.725	445.2
2217.693	437.2
2221.657	446.2
2225.618	439.2
2229.575	436.2
2233.529	437.2
2237.479	426.2
2241.425	422.2
2245.368	416.2
2249.307	404.2
2253.243	402.2
2257.175	407.2
2261.104	409.2
2265.029	392.2
2268.95	391.2
2272.868	373.2
2276.783	375.2
2280.694	373.2
2284.601	374.2
2288.505	363.2
2292.405	357.2
2296.302	356.2
2300.195	340.2
2304.085	335.2
2307.971	334.2
2311.854	334.2
2315.734	322.2
2319.609	322.2
2323.482	316.2
2327.351	322.2
2331.216	322.2
2335.078	346.2
2338.937	327.2
2342.792	297.2
2346.643	302.2
2350.492	302.2
2354.336	298.2
2358.178	300.2
2362.015	307.2
2365.85	309.2
2369.681	303.2
2373.508	307.2
2377.333	310.2
2381.153	294.2
2384.971	301.2
2388.785	301.2
2392.595	291.2
2396.402	280.2
2400.206	283.2
2404.007	295.2
2407.804	301.2
2411.597	287.2
2415.388	285.2
2419.174	279.2
2422.958	277.2
2426.738	284.2
2430.515	274.2
2434.289	268.2
2438.059	274.2
2441.825	271.2
2445.589	284.2
2449.349	259.2
2453.106	260.2
2456.859	243.2
2460.61	258.2
2464.356	247.2
2468.1	252.2
2471.84	243.2
2475.577	254.2
2479.311	236.2
2483.041	235.2
2486.768	244.2
2490.492	239.2
2494.213	237.2
2497.93	240.2
2501.644	233.2
2505.355	233.2
2509.062	226.2
2512.766	230.2
2516.467	222.2
2520.165	213.2
2523.859	227.2
2527.551	217.2
2531.239	218.2
2534.923	210.2
2538.605	209.2
2542.283	208.2
2545.958	197.2
2549.63	204.2
2553.299	197.2
2556.964	209.2
2560.626	194.2
2564.285	195.2
2567.941	197.2
2571.594	186.2
2575.243	193.2
2578.89	174.2
2582.533	175.2
2586.173	183.2
2589.809	162.2
2593.443	175.2
2597.073	174.2
2600.701	173.2
2604.325	162.2
2607.946	164.2
2611.564	161.2
2615.178	171.2
2618.79	168.2
2622.398	162.2
2626.004	154.2
2629.606	156.2
2633.205	155.2
2636.801	148.2
2640.394	161.2
2643.983	153.2
2647.57	152.2
2651.153	146.2
2654.734	143.2
2658.311	144.2
2661.885	137.2
2665.456	146.2
2669.025	150.2
2672.589	134.2
2676.151	140.2
2679.71	139.2
2683.266	130.2
2686.819	127.2
2690.368	127.2
2693.915	127.2
2697.458	126.2
2700.999	125.2
2704.536	123.2
2708.071	117.2
2711.602	110.2
2715.13	120.2
2718.656	106.2
2722.178	109.2
2725.697	107.2
2729.214	100.2
2732.727	111.2
2736.237	111.2
2739.744	105.2
2743.249	103.2
2746.75	100.2
2750.248	99.2
2753.743	104.2
2757.236	90.2
2760.725	94.2
2764.211	84.2
2767.695	83.2
2771.175	75.2
2774.652	79.2
2778.127	87.2
2781.598	85.2
2785.067	93.2
2788.532	94.2
2791.995	81.2
2795.455	85.2
2798.911	78.2
2802.365	85.2
2805.816	95.2
2809.264	87.2
2812.709	91.2
2816.151	90.2
2819.59	87.2
2823.026	86.2
2826.46	72.2
2829.89	84.2
2833.318	84.2
2836.742	91.2
2840.164	92.2
2843.583	90.2
2846.999	88.2
2850.412	83.2
2853.822	85.2
2857.229	91.2
2860.634	95.2
2864.035	98.2
2867.434	98.2
2870.83	98.2
2874.223	113.2
2877.613	105.2
2881	126.2
2884.385	119.2
2887.766	116.2
2891.145	111.2
2894.521	113.2
2897.894	114.2
2901.264	123.2
2904.631	116.2
2907.996	128.2
2911.358	115.2
2914.717	123.2
2918.073	126.2
2921.426	129.2
2924.777	129.2
2928.124	134.2
2931.469	134.2
2934.811	140.2
2938.15	136.2
2941.487	148.2
2944.821	149.2
2948.152	143.2
2951.48	148.2
2954.805	149.2
2958.128	150.2
2961.447	139.2
2964.765	149.2
2968.079	142.2
2971.39	140.2
2974.699	153.2
2978.005	147.2
2981.308	146.2
2984.609	145.2
2987.907	141.2
2991.202	152.2
2994.494	149.2
2997.784	157.2
3001.07	155.2
3004.355	164.2
3007.636	157.2
3010.915	163.2
3014.191	173.2
3017.464	172.2
3020.734	168.2
3024.002	172.2
3027.267	176.2
3030.53	177.2
3033.789	179.2
3037.046	180.2
3040.301	182.2
3043.552	207.2
3046.801	204.2
3050.048	205.2
3053.291	206.2
3056.532	209.2
3059.771	235.2
3063.006	238.2
3066.239	244.2
3069.469	256.2
3072.697	256.2
3075.922	271.2
3079.144	262.2
3082.364	285.2
3085.581	295.2
3088.795	288.2
3092.007	296.2
3095.216	309.2
3098.423	318.2
3101.627	325.2
3104.828	337.2
3108.026	326.2
3111.222	342.2
3114.416	361.2
3117.607	359.2
3120.795	365.2
3123.98	374.2
3127.163	385.2
3130.344	398.2
3133.521	394.2
3136.696	414.2
3139.869	408.2
3143.039	419.2
3146.206	436.2
3149.371	432.2
3152.533	448.2
3155.693	445.2
3158.85	444.2
3162.005	447.2
3165.157	462.2
3168.306	450.2
3171.453	449.2
3174.597	464.2
3177.739	473.2
3180.878	465.2
3184.014	480.2
3187.149	468.2
3190.28	470.2
3193.409	464.2
3196.536	472.2
3199.659	487.2
3202.781	483.2
3205.9	485.2
3209.016	486.2
3212.13	482.2
3215.241	469.2
3218.35	461.2
3221.456	471.2
3224.56	461.2
3227.661	457.2
3230.76	448.2
3233.856	448.2
3236.95	430.2
3240.041	426.2
3243.13	418.2
3246.216	416.2
3249.3	417.2
3252.382	418.2
3255.46	413.2
3258.537	400.2
3261.611	404.2
3264.682	391.2
3267.751	397.2
3270.818	386.2
3273.882	380.2
3276.943	379.2
3280.002	385.2
3283.059	379.2
3286.113	372.2
3289.165	369.2
3292.214	365.2
3295.261	363.2
3298.306	349.2
3301.348	349.2
3304.387	346.2
3307.425	342.2
3310.459	338.2
3313.492	334.2
3316.521	330.2
3319.549	329.2
3322.574	328.2
3325.597	327.2
3328.617	324.2
3331.635	311.2
3334.65	309.2
3337.663	304.2
3340.674	322.2
3343.682	312.2
3346.688	298.2
3349.691	321.2
3352.692	310.2
3355.691	304.2
3358.687	297.2
3361.681	307.2
3364.673	297.2
3367.662	294.2
3370.649	293.2
3373.633	282.2
3376.615	277.2
3379.595	268.2
3382.572	273.2
3385.547	282.2
3388.52	264.2
3391.49	263.2
3394.458	267.2
3397.424	246.2
3400.387	249.2
3403.348	243.2
3406.307	230.2
3409.263	237.2
3412.217	227.2
3415.168	236.2
3418.118	227.2
3421.065	219.2
3424.009	215.2
3426.951	216.2
3429.891	214.2
3432.829	204.2
3435.764	198.2
3438.697	191.2
3441.628	192.2
3444.557	179.2
3447.483	185.2
3450.407	161.2
3453.328	151.2
3456.247	151.2
3459.164	139.2
3462.079	137.2
3464.991	138.2
3467.902	131.2
3470.809	132.2
3473.715	112.2
3476.618	107.2
3479.519	107.2
3482.418	96.2
3485.315	93.2
3488.209	84.2
3491.101	81.2
3493.99	91.2
3496.878	74.2
3499.763	70.2
3502.646	64.2
3505.527	59.2
3508.405	58.2
3511.281	51.2
3514.155	50.2
3517.027	41.2
3519.897	34.2
3522.764	30.2
3525.629	23.2
3528.492	20.2
3531.352	21.2
3534.211	8.2
3537.067	6.2
3539.921	8.2
3542.773	2.2
3545.622	-6.8
3548.469	-17.8
3551.315	-11.8
3554.157	-19.8
3556.998	-19.8
3559.837	-15.8
3562.673	-23.8
3565.507	-23.8
3568.339	-32.8
3571.169	-44.8
3573.996	-32.8
3576.822	-33.8
3579.645	-32.8
3582.466	-36.8
3585.285	-44.8
3588.101	-40.8
3590.916	-48.8
3593.728	-57.8
3596.538	-56.8
3599.346	-54.8
3602.152	-50.8
3604.956	-58.8
3607.757	-54.8
3610.556	-60.8
3613.354	-57.8
3616.149	-69.8
3618.942	-71.8
3621.732	-68.8
3624.521	-66.8
3627.307	-66.8
3630.092	-71.8
3632.874	-65.8
3635.654	-77.8
3638.432	-77.8
3641.208	-78.8
3643.982	-81.8
3646.753	-81.8
3649.523	-73.8
3652.29	-81.8
3655.055	-80.8
3657.818	-83.8
3660.579	-81.8
3663.338	-81.8
3666.095	-92.8
3668.849	-87.8
3671.602	-87.8
3674.352	-88.8
3677.101	-92.8
3679.847	-95.8
3682.591	-97.8
3685.333	-95.8
3688.073	-93.8
3690.811	-94.8
3693.547	-99.8
3696.281	-96.8
3699.013	-99.8
3701.742	-105.8
3704.47	-102.8
3707.195	-96.8
3709.919	-105.8
3712.64	-102.8
3715.359	-101.8
3718.076	-99.8
3720.792	-101.8
3723.505	-108.8
3726.216	-106.8
3728.925	-111.8
3731.632	-107.8
3734.336	-114.8
3737.039	-102.8
3739.74	-106.8
3742.439	-117.8
3745.136	-103.8
3747.83	-117.8
3750.523	-112.8
3753.213	-107.8
3755.902	-105.8
3758.589	-107.8
3761.273	-104.8
3763.956	-106.8
3766.636	-109.8
3769.315	-100.8
3771.991	-109.8
3774.665	-116.8
3777.338	-108.8
3780.008	-110.8
3782.677	-105.8
3785.343	-105.8
3788.007	-109.8
3790.67	-110.8
3793.33	-108.8
3795.989	-111.8
3798.645	-103.8
3801.299	-108.8
3803.952	-110.8
3806.602	-103.8
3809.251	-113.8
3811.897	-122.8
3814.542	-115.8
3817.184	-108.8
3819.825	-108.8
3822.463	-113.8
3825.1	-109.8
3827.735	-113.8
3830.367	-115.8
3832.998	-115.8
3835.627	-112.8
3838.253	-109.8
3840.878	-110.8
3843.501	-107.8
3846.122	-113.8
3848.741	-113.8
3851.358	-110.8
3853.973	-117.8
3856.586	-112.8
3859.197	-117.8
3861.806	-109.8
3864.414	-113.8
3867.019	-105.8
3869.622	-114.8
3872.224	-104.8
3874.823	-91.8
3877.421	-81.8
3880.016	-55.8
3882.61	-35.8
3885.202	-36.8
3887.792	-54.8
3890.38	-77.8
3892.966	-101.8
3895.55	-103.8
3898.132	-110.8
3900.713	-110.8
3903.291	-112.8
3905.868	-113.8
3908.442	-105.8
3911.015	-116.8
3913.586	-110.8
3916.155	-115.8
3918.722	-113.8
3921.287	-113.8
3923.85	-115.8
3926.411	-115.8
3928.971	-117.8
3931.528	-112.8
3934.084	-110.8
3936.638	-110.8
3939.19	-117.8
3941.74	-119.8
3944.288	-111.8
3946.834	-105.8
3949.378	-109.8
3951.921	-110.8
3954.462	-124.8
3957	-116.8
3959.537	-112.8
3962.072	-117.8
3964.606	-107.8
3967.137	-116.8
3969.667	-112.8
3972.194	-116.8
3974.72	-116.8
3977.244	-116.8
3979.766	-109.8
3982.286	-106.8
3984.805	-110.8
3987.321	-109.8
3989.836	-104.8
3992.349	-114.8
3994.86	-116.8
3997.369	-122.8
3999.877	-110.8
4002.382	-108.8
4004.886	-114.8
4007.388	-114.8
4009.888	-110.8
4012.386	-113.8
4014.883	-113.8
4017.377	-113.8
4019.87	-113.8
4022.361	-114.8
4024.85	-113.8
4027.338	-108.8
4029.823	-105.8
4032.307	-107.8
4034.789	-116.8
4037.269	-110.8
4039.747	-111.8
4042.224	-104.8
4044.699	-112.8
4047.172	-107.8
4049.643	-106.8
4052.112	-109.8
4054.58	-112.8
4057.046	-113.8
4059.51	-110.8
4061.972	-107.8
4064.432	-110.8
4066.891	-113.8
4069.348	-106.8
4071.803	-119.8
4074.256	-116.8
4076.708	-107.8
4079.158	-108.8
4081.606	-105.8
4084.052	-119.8
4086.497	-111.8
4088.939	-108.8
4091.38	-115.8
4093.819	-115.8
4096.257	-117.8
4098.693	-114.8
4101.127	-116.8
4103.559	-114.8
4105.989	26.2
4108.418	14.2
4110.845	18.2
4113.27	12.2
4115.694	4.2
4118.115	-0.8
4120.535	-115.8
4122.954	-111.8
4125.37	-109.8
4127.785	-114.8
4130.198	-112.8
4132.609	-113.8
4135.019	-118.8
4137.427	-116.8
4139.833	-118.8
4142.237	-117.8
