Data from 2018-2-8_conc=2_n=6_RamanShift_02.txt Node
Date: Mon Mar 12 14:13:28 IST 2018
User: aro
Spectrometer: QEPB0276
Trigger mode: 0
Integration Time (sec): 3.000000E1
Scans to average: 1
Electric dark correction enabled: true
Nonlinearity correction enabled: false
Boxcar width: 0
XAxis mode: Raman Shifts
Number of Pixels in Spectrum: 1044
>>>>>Begin Spectral Data<<<<<
160.701	25.4
166.742	48.4
172.777	131.4
178.805	379.4
184.826	1076.4
190.841	2285.4
196.849	3789.4
202.85	4976.4
208.845	5469.4
214.833	5437.4
220.815	5392.4
226.789	5338.4
232.758	5350.4
238.719	5378.4
244.674	5330.4
250.623	5246.4
256.565	5170.4
262.5	5105.4
268.429	5055.4
274.351	4990.4
280.267	4963.4
286.176	4929.4
292.079	4896.4
297.975	4879.4
303.865	4889.4
309.748	4851.4
315.625	4838.4
321.495	4850.4
327.359	4844.4
333.217	4824.4
339.068	4855.4
344.912	4862.4
350.751	4813.4
356.583	4865.4
362.408	4854.4
368.227	4862.4
374.04	4863.4
379.847	4926.4
385.647	4927.4
391.44	4931.4
397.228	4951.4
403.009	5015.4
408.784	5032.4
414.553	5053.4
420.315	5048.4
426.071	5062.4
431.821	5053.4
437.565	5033.4
443.302	5053.4
449.033	5044.4
454.758	4962.4
460.477	4971.4
466.189	4950.4
471.896	4897.4
477.596	4891.4
483.29	4862.4
488.978	4874.4
494.66	4872.4
500.335	4795.4
506.005	4654.4
511.668	4520.4
517.325	4374.4
522.977	4259.4
528.622	4195.4
534.261	4129.4
539.894	4096.4
545.521	4059.4
551.141	4038.4
556.756	3989.4
562.365	3969.4
567.968	3969.4
573.565	3941.4
579.155	3921.4
584.74	3883.4
590.319	3864.4
595.892	3857.4
601.459	3856.4
607.02	3840.4
612.575	3829.4
618.124	3794.4
623.667	3735.4
629.204	3698.4
634.735	3706.4
640.261	3661.4
645.781	3630.4
651.294	3654.4
656.802	3634.4
662.304	3605.4
667.8	3630.4
673.29	3593.4
678.775	3579.4
684.254	3575.4
689.726	3560.4
695.193	3543.4
700.655	3520.4
706.11	3524.4
711.56	3470.4
717.004	3491.4
722.442	3474.4
727.874	3447.4
733.301	3415.4
738.722	3410.4
744.137	3401.4
749.547	3360.4
754.951	3402.4
760.349	3375.4
765.741	3407.4
771.128	3422.4
776.509	3404.4
781.885	3431.4
787.254	3431.4
792.618	3449.4
797.977	3409.4
803.33	3403.4
808.677	3389.4
814.019	3364.4
819.355	3331.4
824.686	3290.4
830.011	3311.4
835.33	3294.4
840.644	3285.4
845.952	3261.4
851.255	3280.4
856.552	3271.4
861.844	3220.4
867.13	3202.4
872.41	3191.4
877.686	3170.4
882.955	3145.4
888.219	3135.4
893.478	3094.4
898.731	3025.4
903.979	3019.4
909.221	3001.4
914.458	2970.4
919.69	2967.4
924.916	2960.4
930.136	2976.4
935.351	2966.4
940.561	2988.4
945.766	2968.4
950.965	2966.4
956.158	2948.4
961.347	2933.4
966.529	2877.4
971.707	2868.4
976.879	2788.4
982.046	2774.4
987.208	2772.4
992.364	2748.4
997.515	2754.4
1002.66	2798.4
1007.801	2808.4
1012.936	2806.4
1018.066	2838.4
1023.19	2859.4
1028.309	2845.4
1033.423	2864.4
1038.532	2831.4
1043.636	2795.4
1048.734	2776.4
1053.827	2766.4
1058.915	2715.4
1063.998	2676.4
1069.075	2683.4
1074.147	2685.4
1079.214	2701.4
1084.276	2686.4
1089.333	2712.4
1094.385	2698.4
1099.431	2715.4
1104.472	2724.4
1109.509	2708.4
1114.54	2662.4
1119.565	2639.4
1124.586	2606.4
1129.602	2563.4
1134.613	2549.4
1139.618	2528.4
1144.619	2523.4
1149.614	2529.4
1154.604	2509.4
1159.589	2533.4
1164.57	2546.4
1169.545	2554.4
1174.515	2557.4
1179.48	2532.4
1184.44	2515.4
1189.395	2492.4
1194.345	2483.4
1199.29	2470.4
1204.23	2457.4
1209.165	2477.4
1214.095	2465.4
1219.021	2484.4
1223.941	2492.4
1228.856	2517.4
1233.766	2518.4
1238.672	2517.4
1243.572	2508.4
1248.467	2477.4
1253.358	2449.4
1258.244	2418.4
1263.124	2377.4
1268	2364.4
1272.871	2324.4
1277.737	2308.4
1282.599	2289.4
1287.455	2301.4
1292.306	2288.4
1297.153	2306.4
1301.995	2322.4
1306.832	2337.4
1311.664	2347.4
1316.491	2356.4
1321.314	2329.4
1326.132	2330.4
1330.945	2306.4
1335.753	2257.4
1340.556	2246.4
1345.354	2195.4
1350.148	2160.4
1354.937	2121.4
1359.722	2095.4
1364.501	2053.4
1369.276	2023.4
1374.046	1993.4
1378.811	1966.4
1383.572	1978.4
1388.327	1957.4
1393.079	1966.4
1397.825	1962.4
1402.567	1964.4
1407.304	1952.4
1412.036	1958.4
1416.764	1978.4
1421.487	1987.4
1426.205	1969.4
1430.919	1976.4
1435.628	1979.4
1440.333	2004.4
1445.032	2025.4
1449.727	2040.4
1454.418	2052.4
1459.104	2038.4
1463.785	2016.4
1468.462	1963.4
1473.134	1941.4
1477.802	1891.4
1482.465	1828.4
1487.123	1809.4
1491.777	1769.4
1496.426	1782.4
1501.071	1745.4
1505.711	1736.4
1510.347	1755.4
1514.978	1744.4
1519.604	1747.4
1524.226	1730.4
1528.844	1738.4
1533.457	1706.4
1538.065	1708.4
1542.669	1689.4
1547.269	1712.4
1551.864	1706.4
1556.454	1718.4
1561.041	1735.4
1565.622	1756.4
1570.199	1738.4
1574.772	1774.4
1579.34	1806.4
1583.904	1813.4
1588.464	1816.4
1593.019	1821.4
1597.569	1837.4
1602.115	1819.4
1606.657	1823.4
1611.195	1812.4
1615.728	1807.4
1620.256	1814.4
1624.78	1808.4
1629.3	1819.4
1633.816	1825.4
1638.327	1831.4
1642.834	1836.4
1647.336	1850.4
1651.834	1857.4
1656.328	1822.4
1660.817	1834.4
1665.302	1820.4
1669.783	1780.4
1674.259	1754.4
1678.732	1695.4
1683.199	1646.4
1687.663	1606.4
1692.122	1547.4
1696.577	1475.4
1701.028	1419.4
1705.474	1369.4
1709.917	1334.4
1714.355	1286.4
1718.788	1293.4
1723.218	1271.4
1727.643	1275.4
1732.064	1296.4
1736.481	1263.4
1740.893	1246.4
1745.301	1216.4
1749.705	1189.4
1754.105	1175.4
1758.501	1143.4
1762.893	1140.4
1767.28	1120.4
1771.663	1117.4
1776.042	1103.4
1780.417	1083.4
1784.787	1080.4
1789.154	1071.4
1793.516	1071.4
1797.874	1028.4
1802.228	1032.4
1806.578	1015.4
1810.924	1025.4
1815.266	1005.4
1819.603	996.4
1823.937	993.4
1828.266	1002.4
1832.591	989.4
1836.913	984.4
1841.23	1003.4
1845.543	973.4
1849.852	983.4
1854.156	986.4
1858.457	1001.4
1862.754	982.4
1867.047	980.4
1871.335	996.4
1875.62	1003.4
1879.9	994.4
1884.177	977.4
1888.449	966.4
1892.718	950.4
1896.982	932.4
1901.243	927.4
1905.499	922.4
1909.752	905.4
1914	895.4
1918.245	899.4
1922.485	876.4
1926.722	867.4
1930.954	877.4
1935.183	859.4
1939.408	853.4
1943.628	852.4
1947.845	838.4
1952.058	835.4
1956.267	831.4
1960.472	815.4
1964.673	813.4
1968.87	811.4
1973.063	807.4
1977.252	794.4
1981.438	795.4
1985.619	817.4
1989.797	796.4
1993.971	802.4
1998.14	801.4
2002.306	788.4
2006.469	808.4
2010.627	813.4
2014.781	808.4
2018.932	796.4
2023.078	805.4
2027.221	789.4
2031.36	793.4
2035.495	775.4
2039.627	775.4
2043.754	751.4
2047.878	755.4
2051.998	737.4
2056.114	758.4
2060.226	735.4
2064.334	748.4
2068.439	733.4
2072.54	736.4
2076.637	732.4
2080.73	726.4
2084.82	716.4
2088.906	719.4
2092.988	715.4
2097.066	695.4
2101.14	689.4
2105.211	687.4
2109.278	678.4
2113.342	660.4
2117.401	668.4
2121.457	664.4
2125.509	647.4
2129.558	647.4
2133.602	655.4
2137.643	644.4
2141.681	641.4
2145.714	642.4
2149.744	647.4
2153.77	646.4
2157.793	640.4
2161.812	633.4
2165.827	629.4
2169.838	624.4
2173.846	607.4
2177.851	610.4
2181.851	597.4
2185.848	586.4
2189.841	593.4
2193.831	574.4
2197.817	571.4
2201.799	569.4
2205.778	566.4
2209.753	572.4
2213.725	570.4
2217.693	568.4
2221.657	580.4
2225.618	573.4
2229.575	561.4
2233.529	557.4
2237.479	542.4
2241.425	538.4
2245.368	527.4
2249.307	535.4
2253.243	522.4
2257.175	506.4
2261.104	501.4
2265.029	497.4
2268.95	502.4
2272.868	494.4
2276.783	481.4
2280.694	473.4
2284.601	478.4
2288.505	456.4
2292.405	450.4
2296.302	452.4
2300.195	448.4
2304.085	438.4
2307.971	433.4
2311.854	424.4
2315.734	416.4
2319.609	414.4
2323.482	418.4
2327.351	412.4
2331.216	427.4
2335.078	444.4
2338.937	419.4
2342.792	407.4
2346.643	405.4
2350.492	397.4
2354.336	398.4
2358.178	391.4
2362.015	388.4
2365.85	400.4
2369.681	417.4
2373.508	397.4
2377.333	402.4
2381.153	399.4
2384.971	403.4
2388.785	398.4
2392.595	388.4
2396.402	383.4
2400.206	380.4
2404.007	383.4
2407.804	372.4
2411.597	368.4
2415.388	364.4
2419.174	375.4
2422.958	368.4
2426.738	372.4
2430.515	369.4
2434.289	368.4
2438.059	364.4
2441.825	351.4
2445.589	350.4
2449.349	337.4
2453.106	344.4
2456.859	336.4
2460.61	342.4
2464.356	327.4
2468.1	321.4
2471.84	316.4
2475.577	319.4
2479.311	311.4
2483.041	306.4
2486.768	310.4
2490.492	307.4
2494.213	318.4
2497.93	319.4
2501.644	305.4
2505.355	295.4
2509.062	296.4
2512.766	286.4
2516.467	286.4
2520.165	283.4
2523.859	280.4
2527.551	281.4
2531.239	275.4
2534.923	261.4
2538.605	266.4
2542.283	269.4
2545.958	263.4
2549.63	264.4
2553.299	250.4
2556.964	257.4
2560.626	247.4
2564.285	237.4
2567.941	246.4
2571.594	239.4
2575.243	239.4
2578.89	236.4
2582.533	229.4
2586.173	225.4
2589.809	216.4
2593.443	228.4
2597.073	226.4
2600.701	217.4
2604.325	213.4
2607.946	213.4
2611.564	210.4
2615.178	215.4
2618.79	206.4
2622.398	214.4
2626.004	211.4
2629.606	204.4
2633.205	200.4
2636.801	199.4
2640.394	193.4
2643.983	194.4
2647.57	196.4
2651.153	190.4
2654.734	193.4
2658.311	187.4
2661.885	179.4
2665.456	186.4
2669.025	185.4
2672.589	179.4
2676.151	184.4
2679.71	186.4
2683.266	172.4
2686.819	174.4
2690.368	161.4
2693.915	154.4
2697.458	163.4
2700.999	162.4
2704.536	156.4
2708.071	152.4
2711.602	152.4
2715.13	143.4
2718.656	143.4
2722.178	139.4
2725.697	131.4
2729.214	133.4
2732.727	146.4
2736.237	137.4
2739.744	137.4
2743.249	127.4
2746.75	120.4
2750.248	122.4
2753.743	124.4
2757.236	121.4
2760.725	115.4
2764.211	111.4
2767.695	117.4
2771.175	100.4
2774.652	104.4
2778.127	103.4
2781.598	110.4
2785.067	108.4
2788.532	116.4
2791.995	113.4
2795.455	115.4
2798.911	112.4
2802.365	107.4
2805.816	117.4
2809.264	111.4
2812.709	117.4
2816.151	118.4
2819.59	122.4
2823.026	114.4
2826.46	110.4
2829.89	110.4
2833.318	106.4
2836.742	116.4
2840.164	109.4
2843.583	118.4
2846.999	120.4
2850.412	116.4
2853.822	112.4
2857.229	118.4
2860.634	121.4
2864.035	131.4
2867.434	135.4
2870.83	142.4
2874.223	144.4
2877.613	153.4
2881	164.4
2884.385	159.4
2887.766	156.4
2891.145	149.4
2894.521	153.4
2897.894	167.4
2901.264	167.4
2904.631	160.4
2907.996	150.4
2911.358	165.4
2914.717	168.4
2918.073	170.4
2921.426	183.4
2924.777	184.4
2928.124	183.4
2931.469	183.4
2934.811	197.4
2938.15	197.4
2941.487	206.4
2944.821	206.4
2948.152	212.4
2951.48	205.4
2954.805	216.4
2958.128	210.4
2961.447	195.4
2964.765	200.4
2968.079	198.4
2971.39	202.4
2974.699	199.4
2978.005	209.4
2981.308	208.4
2984.609	209.4
2987.907	208.4
2991.202	208.4
2994.494	208.4
2997.784	213.4
3001.07	223.4
3004.355	233.4
3007.636	229.4
3010.915	221.4
3014.191	223.4
3017.464	236.4
3020.734	232.4
3024.002	232.4
3027.267	254.4
3030.53	249.4
3033.789	252.4
3037.046	264.4
3040.301	265.4
3043.552	277.4
3046.801	287.4
3050.048	298.4
3053.291	304.4
3056.532	321.4
3059.771	329.4
3063.006	339.4
3066.239	344.4
3069.469	345.4
3072.697	373.4
3075.922	381.4
3079.144	393.4
3082.364	404.4
3085.581	410.4
3088.795	408.4
3092.007	423.4
3095.216	432.4
3098.423	438.4
3101.627	448.4
3104.828	457.4
3108.026	465.4
3111.222	487.4
3114.416	498.4
3117.607	502.4
3120.795	510.4
3123.98	518.4
3127.163	532.4
3130.344	547.4
3133.521	568.4
3136.696	583.4
3139.869	578.4
3143.039	605.4
3146.206	595.4
3149.371	606.4
3152.533	627.4
3155.693	636.4
3158.85	633.4
3162.005	636.4
3165.157	644.4
3168.306	636.4
3171.453	645.4
3174.597	656.4
3177.739	653.4
3180.878	659.4
3184.014	665.4
3187.149	655.4
3190.28	667.4
3193.409	671.4
3196.536	663.4
3199.659	669.4
3202.781	673.4
3205.9	671.4
3209.016	673.4
3212.13	671.4
3215.241	670.4
3218.35	671.4
3221.456	667.4
3224.56	660.4
3227.661	645.4
3230.76	630.4
3233.856	632.4
3236.95	610.4
3240.041	608.4
3243.13	590.4
3246.216	593.4
3249.3	596.4
3252.382	577.4
3255.46	573.4
3258.537	566.4
3261.611	561.4
3264.682	543.4
3267.751	553.4
3270.818	555.4
3273.882	542.4
3276.943	549.4
3280.002	540.4
3283.059	539.4
3286.113	537.4
3289.165	523.4
3292.214	521.4
3295.261	504.4
3298.306	518.4
3301.348	501.4
3304.387	494.4
3307.425	490.4
3310.459	476.4
3313.492	483.4
3316.521	475.4
3319.549	468.4
3322.574	467.4
3325.597	461.4
3328.617	483.4
3331.635	462.4
3334.65	457.4
3337.663	443.4
3340.674	459.4
3343.682	461.4
3346.688	449.4
3349.691	462.4
3352.692	449.4
3355.691	435.4
3358.687	448.4
3361.681	444.4
3364.673	443.4
3367.662	417.4
3370.649	428.4
3373.633	410.4
3376.615	408.4
3379.595	390.4
3382.572	398.4
3385.547	394.4
3388.52	380.4
3391.49	370.4
3394.458	378.4
3397.424	371.4
3400.387	353.4
3403.348	355.4
3406.307	350.4
3409.263	348.4
3412.217	346.4
3415.168	345.4
3418.118	336.4
3421.065	324.4
3424.009	318.4
3426.951	319.4
3429.891	311.4
3432.829	294.4
3435.764	295.4
3438.697	291.4
3441.628	281.4
3444.557	271.4
3447.483	257.4
3450.407	238.4
3453.328	224.4
3456.247	232.4
3459.164	215.4
3462.079	211.4
3464.991	209.4
3467.902	195.4
3470.809	196.4
3473.715	167.4
3476.618	177.4
3479.519	164.4
3482.418	150.4
3485.315	143.4
3488.209	132.4
3491.101	128.4
3493.99	129.4
3496.878	124.4
3499.763	110.4
3502.646	115.4
3505.527	95.4
3508.405	100.4
3511.281	85.4
3514.155	85.4
3517.027	74.4
3519.897	58.4
3522.764	51.4
3525.629	48.4
3528.492	45.4
3531.352	39.4
3534.211	39.4
3537.067	17.4
3539.921	27.4
3542.773	17.4
3545.622	5.4
3548.469	-4.6
3551.315	2.4
3554.157	-4.6
3556.998	-14.6
3559.837	-13.6
3562.673	-21.6
3565.507	-19.6
3568.339	-32.6
3571.169	-41.6
3573.996	-29.6
3576.822	-28.6
3579.645	-35.6
3582.466	-41.6
3585.285	-43.6
3588.101	-41.6
3590.916	-57.6
3593.728	-60.6
3596.538	-61.6
3599.346	-58.6
3602.152	-62.6
3604.956	-64.6
3607.757	-63.6
3610.556	-71.6
3613.354	-77.6
3616.149	-79.6
3618.942	-83.6
3621.732	-80.6
3624.521	-80.6
3627.307	-78.6
3630.092	-87.6
3632.874	-84.6
3635.654	-93.6
3638.432	-93.6
3641.208	-88.6
3643.982	-93.6
3646.753	-96.6
3649.523	-99.6
3652.29	-92.6
3655.055	-94.6
3657.818	-105.6
3660.579	-100.6
3663.338	-100.6
3666.095	-105.6
3668.849	-112.6
3671.602	-107.6
3674.352	-104.6
3677.101	-108.6
3679.847	-110.6
3682.591	-110.6
3685.333	-118.6
3688.073	-112.6
3690.811	-114.6
3693.547	-124.6
3696.281	-122.6
3699.013	-116.6
3701.742	-120.6
3704.47	-122.6
3707.195	-117.6
3709.919	-124.6
3712.64	-121.6
3715.359	-125.6
3718.076	-124.6
3720.792	-123.6
3723.505	-127.6
3726.216	-126.6
3728.925	-133.6
3731.632	-127.6
3734.336	-133.6
3737.039	-131.6
3739.74	-129.6
3742.439	-136.6
3745.136	-126.6
3747.83	-132.6
3750.523	-134.6
3753.213	-139.6
3755.902	-129.6
3758.589	-134.6
3761.273	-130.6
3763.956	-131.6
3766.636	-134.6
3769.315	-127.6
3771.991	-134.6
3774.665	-138.6
3777.338	-131.6
3780.008	-133.6
3782.677	-134.6
3785.343	-131.6
3788.007	-134.6
3790.67	-141.6
3793.33	-132.6
3795.989	-138.6
3798.645	-135.6
3801.299	-136.6
3803.952	-137.6
3806.602	-134.6
3809.251	-144.6
3811.897	-138.6
3814.542	-143.6
3817.184	-138.6
3819.825	-129.6
3822.463	-139.6
3825.1	-135.6
3827.735	-136.6
3830.367	-136.6
3832.998	-138.6
3835.627	-138.6
3838.253	-137.6
3840.878	-137.6
3843.501	-134.6
3846.122	-135.6
3848.741	-137.6
3851.358	-134.6
3853.973	-142.6
3856.586	-134.6
3859.197	-151.6
3861.806	-139.6
3864.414	-141.6
3867.019	-132.6
3869.622	-129.6
3872.224	-124.6
3874.823	-114.6
3877.421	-103.6
3880.016	-76.6
3882.61	-55.6
3885.202	-52.6
3887.792	-66.6
3890.38	-99.6
3892.966	-121.6
3895.55	-128.6
3898.132	-131.6
3900.713	-136.6
3903.291	-141.6
3905.868	-139.6
3908.442	-133.6
3911.015	-138.6
3913.586	-135.6
3916.155	-142.6
3918.722	-137.6
3921.287	-139.6
3923.85	-136.6
3926.411	-143.6
3928.971	-142.6
3931.528	-143.6
3934.084	-137.6
3936.638	-132.6
3939.19	-139.6
3941.74	-143.6
3944.288	-141.6
3946.834	-142.6
3949.378	-138.6
3951.921	-139.6
3954.462	-144.6
3957	-138.6
3959.537	-138.6
3962.072	-142.6
3964.606	-136.6
3967.137	-139.6
3969.667	-138.6
3972.194	-141.6
3974.72	-137.6
3977.244	-133.6
3979.766	-139.6
3982.286	-141.6
3984.805	-140.6
3987.321	-138.6
3989.836	-128.6
3992.349	-138.6
3994.86	-138.6
3997.369	-137.6
3999.877	-137.6
4002.382	-134.6
4004.886	-143.6
4007.388	-137.6
4009.888	-135.6
4012.386	-136.6
4014.883	-137.6
4017.377	-138.6
4019.87	-136.6
4022.361	-138.6
4024.85	-143.6
4027.338	-135.6
4029.823	-135.6
4032.307	-132.6
4034.789	-141.6
4037.269	-138.6
4039.747	-133.6
4042.224	-136.6
4044.699	-143.6
4047.172	-135.6
4049.643	-136.6
4052.112	-139.6
4054.58	-138.6
4057.046	-137.6
4059.51	-139.6
4061.972	-135.6
4064.432	-140.6
4066.891	-138.6
4069.348	-135.6
4071.803	-140.6
4074.256	-137.6
4076.708	-137.6
4079.158	-136.6
4081.606	-131.6
4084.052	-143.6
4086.497	-140.6
4088.939	-131.6
4091.38	-132.6
4093.819	-135.6
4096.257	-142.6
4098.693	-142.6
4101.127	-144.6
4103.559	-142.6
4105.989	3.4
4108.418	1.4
4110.845	3.4
4113.27	5.4
4115.694	0.4
4118.115	0.4
4120.535	-139.6
4122.954	-143.6
4125.37	-137.6
4127.785	-138.6
4130.198	-139.6
4132.609	-136.6
4135.019	-144.6
4137.427	-143.6
4139.833	-147.6
4142.237	-148.6
