Data from 2018-2-8_conc=4_n=1_RamanShift_05.txt Node
Date: Mon Mar 12 15:10:28 IST 2018
User: aro
Spectrometer: QEPB0276
Trigger mode: 0
Integration Time (sec): 3.000000E1
Scans to average: 1
Electric dark correction enabled: true
Nonlinearity correction enabled: false
Boxcar width: 0
XAxis mode: Raman Shifts
Number of Pixels in Spectrum: 1044
>>>>>Begin Spectral Data<<<<<
160.701	17.6
166.742	47.6
172.777	133.6
178.805	419.6
184.826	1151.6
190.841	2443.6
196.849	4042.6
202.85	5317.6
208.845	5798.6
214.833	5808.6
220.815	5756.6
226.789	5685.6
232.758	5720.6
238.719	5688.6
244.674	5681.6
250.623	5606.6
256.565	5533.6
262.5	5452.6
268.429	5344.6
274.351	5297.6
280.267	5264.6
286.176	5234.6
292.079	5191.6
297.975	5165.6
303.865	5187.6
309.748	5160.6
315.625	5109.6
321.495	5106.6
327.359	5134.6
333.217	5114.6
339.068	5114.6
344.912	5112.6
350.751	5121.6
356.583	5161.6
362.408	5162.6
368.227	5127.6
374.04	5153.6
379.847	5164.6
385.647	5194.6
391.44	5210.6
397.228	5243.6
403.009	5283.6
408.784	5299.6
414.553	5330.6
420.315	5333.6
426.071	5317.6
431.821	5332.6
437.565	5332.6
443.302	5299.6
449.033	5287.6
454.758	5280.6
460.477	5237.6
466.189	5241.6
471.896	5194.6
477.596	5149.6
483.29	5131.6
488.978	5164.6
494.66	5114.6
500.335	5060.6
506.005	4944.6
511.668	4783.6
517.325	4692.6
522.977	4551.6
528.622	4496.6
534.261	4411.6
539.894	4398.6
545.521	4369.6
551.141	4325.6
556.756	4282.6
562.365	4247.6
567.968	4239.6
573.565	4238.6
579.155	4193.6
584.74	4183.6
590.319	4169.6
595.892	4148.6
601.459	4139.6
607.02	4114.6
612.575	4100.6
618.124	4079.6
623.667	4015.6
629.204	4004.6
634.735	3955.6
640.261	3913.6
645.781	3925.6
651.294	3933.6
656.802	3901.6
662.304	3899.6
667.8	3892.6
673.29	3880.6
678.775	3854.6
684.254	3830.6
689.726	3833.6
695.193	3811.6
700.655	3826.6
706.11	3769.6
711.56	3735.6
717.004	3733.6
722.442	3729.6
727.874	3703.6
733.301	3673.6
738.722	3682.6
744.137	3637.6
749.547	3622.6
754.951	3667.6
760.349	3656.6
765.741	3666.6
771.128	3671.6
776.509	3675.6
781.885	3718.6
787.254	3712.6
792.618	3698.6
797.977	3697.6
803.33	3671.6
808.677	3646.6
814.019	3605.6
819.355	3593.6
824.686	3559.6
830.011	3555.6
835.33	3558.6
840.644	3547.6
845.952	3525.6
851.255	3535.6
856.552	3533.6
861.844	3517.6
867.13	3479.6
872.41	3477.6
877.686	3447.6
882.955	3410.6
888.219	3398.6
893.478	3349.6
898.731	3286.6
903.979	3254.6
909.221	3227.6
914.458	3213.6
919.69	3237.6
924.916	3205.6
930.136	3237.6
935.351	3224.6
940.561	3254.6
945.766	3234.6
950.965	3213.6
956.158	3204.6
961.347	3166.6
966.529	3088.6
971.707	3075.6
976.879	3052.6
982.046	2991.6
987.208	3022.6
992.364	2999.6
997.515	3025.6
1002.66	3019.6
1007.801	3066.6
1012.936	3091.6
1018.066	3085.6
1023.19	3067.6
1028.309	3082.6
1033.423	3087.6
1038.532	3063.6
1043.636	3021.6
1048.734	3009.6
1053.827	2995.6
1058.915	2964.6
1063.998	2898.6
1069.075	2919.6
1074.147	2914.6
1079.214	2918.6
1084.276	2933.6
1089.333	2955.6
1094.385	2964.6
1099.431	2965.6
1104.472	2964.6
1109.509	2925.6
1114.54	2901.6
1119.565	2857.6
1124.586	2829.6
1129.602	2787.6
1134.613	2765.6
1139.618	2755.6
1144.619	2730.6
1149.614	2727.6
1154.604	2750.6
1159.589	2768.6
1164.57	2752.6
1169.545	2765.6
1174.515	2760.6
1179.48	2758.6
1184.44	2722.6
1189.395	2700.6
1194.345	2680.6
1199.29	2672.6
1204.23	2673.6
1209.165	2660.6
1214.095	2684.6
1219.021	2713.6
1223.941	2715.6
1228.856	2711.6
1233.766	2727.6
1238.672	2743.6
1243.572	2729.6
1248.467	2711.6
1253.358	2698.6
1258.244	2625.6
1263.124	2589.6
1268	2546.6
1272.871	2523.6
1277.737	2528.6
1282.599	2491.6
1287.455	2481.6
1292.306	2502.6
1297.153	2504.6
1301.995	2515.6
1306.832	2515.6
1311.664	2560.6
1316.491	2553.6
1321.314	2538.6
1326.132	2530.6
1330.945	2502.6
1335.753	2461.6
1340.556	2416.6
1345.354	2385.6
1350.148	2343.6
1354.937	2326.6
1359.722	2271.6
1364.501	2252.6
1369.276	2207.6
1374.046	2177.6
1378.811	2166.6
1383.572	2164.6
1388.327	2154.6
1393.079	2135.6
1397.825	2156.6
1402.567	2154.6
1407.304	2133.6
1412.036	2138.6
1416.764	2156.6
1421.487	2171.6
1426.205	2143.6
1430.919	2161.6
1435.628	2164.6
1440.333	2196.6
1445.032	2189.6
1449.727	2240.6
1454.418	2231.6
1459.104	2226.6
1463.785	2192.6
1468.462	2176.6
1473.134	2106.6
1477.802	2078.6
1482.465	2040.6
1487.123	1992.6
1491.777	1972.6
1496.426	1969.6
1501.071	1938.6
1505.711	1916.6
1510.347	1917.6
1514.978	1919.6
1519.604	1915.6
1524.226	1897.6
1528.844	1885.6
1533.457	1889.6
1538.065	1893.6
1542.669	1902.6
1547.269	1866.6
1551.864	1880.6
1556.454	1915.6
1561.041	1912.6
1565.622	1924.6
1570.199	1941.6
1574.772	1962.6
1579.34	1972.6
1583.904	1972.6
1588.464	2014.6
1593.019	1996.6
1597.569	2024.6
1602.115	2027.6
1606.657	2013.6
1611.195	2003.6
1615.728	1972.6
1620.256	1987.6
1624.78	1978.6
1629.3	2012.6
1633.816	2022.6
1638.327	1996.6
1642.834	2019.6
1647.336	2026.6
1651.834	2003.6
1656.328	2041.6
1660.817	2029.6
1665.302	1997.6
1669.783	1958.6
1674.259	1935.6
1678.732	1860.6
1683.199	1831.6
1687.663	1748.6
1692.122	1698.6
1696.577	1632.6
1701.028	1583.6
1705.474	1527.6
1709.917	1481.6
1714.355	1459.6
1718.788	1429.6
1723.218	1434.6
1727.643	1442.6
1732.064	1419.6
1736.481	1415.6
1740.893	1389.6
1745.301	1368.6
1749.705	1339.6
1754.105	1319.6
1758.501	1299.6
1762.893	1272.6
1767.28	1262.6
1771.663	1255.6
1776.042	1244.6
1780.417	1210.6
1784.787	1203.6
1789.154	1201.6
1793.516	1184.6
1797.874	1154.6
1802.228	1157.6
1806.578	1148.6
1810.924	1139.6
1815.266	1123.6
1819.603	1128.6
1823.937	1124.6
1828.266	1114.6
1832.591	1117.6
1836.913	1121.6
1841.23	1107.6
1845.543	1119.6
1849.852	1114.6
1854.156	1118.6
1858.457	1104.6
1862.754	1107.6
1867.047	1114.6
1871.335	1117.6
1875.62	1116.6
1879.9	1103.6
1884.177	1110.6
1888.449	1083.6
1892.718	1068.6
1896.982	1059.6
1901.243	1052.6
1905.499	1031.6
1909.752	1028.6
1914	1020.6
1918.245	998.6
1922.485	968.6
1926.722	981.6
1930.954	971.6
1935.183	974.6
1939.408	977.6
1943.628	964.6
1947.845	950.6
1952.058	947.6
1956.267	941.6
1960.472	930.6
1964.673	925.6
1968.87	903.6
1973.063	920.6
1977.252	902.6
1981.438	901.6
1985.619	896.6
1989.797	906.6
1993.971	895.6
1998.14	909.6
2002.306	906.6
2006.469	920.6
2010.627	912.6
2014.781	923.6
2018.932	903.6
2023.078	911.6
2027.221	899.6
2031.36	895.6
2035.495	875.6
2039.627	873.6
2043.754	851.6
2047.878	850.6
2051.998	849.6
2056.114	843.6
2060.226	834.6
2064.334	834.6
2068.439	830.6
2072.54	832.6
2076.637	824.6
2080.73	812.6
2084.82	808.6
2088.906	806.6
2092.988	808.6
2097.066	810.6
2101.14	779.6
2105.211	775.6
2109.278	772.6
2113.342	760.6
2117.401	774.6
2121.457	743.6
2125.509	747.6
2129.558	740.6
2133.602	739.6
2137.643	734.6
2141.681	737.6
2145.714	732.6
2149.744	730.6
2153.77	732.6
2157.793	742.6
2161.812	712.6
2165.827	718.6
2169.838	697.6
2173.846	691.6
2177.851	700.6
2181.851	664.6
2185.848	675.6
2189.841	671.6
2193.831	663.6
2197.817	650.6
2201.799	640.6
2205.778	640.6
2209.753	649.6
2213.725	645.6
2217.693	643.6
2221.657	649.6
2225.618	640.6
2229.575	636.6
2233.529	637.6
2237.479	632.6
2241.425	617.6
2245.368	617.6
2249.307	600.6
2253.243	585.6
2257.175	583.6
2261.104	574.6
2265.029	569.6
2268.95	563.6
2272.868	560.6
2276.783	550.6
2280.694	544.6
2284.601	533.6
2288.505	538.6
2292.405	518.6
2296.302	515.6
2300.195	519.6
2304.085	503.6
2307.971	489.6
2311.854	499.6
2315.734	481.6
2319.609	482.6
2323.482	468.6
2327.351	481.6
2331.216	470.6
2335.078	490.6
2338.937	480.6
2342.792	459.6
2346.643	452.6
2350.492	454.6
2354.336	449.6
2358.178	450.6
2362.015	458.6
2365.85	457.6
2369.681	453.6
2373.508	462.6
2377.333	459.6
2381.153	443.6
2384.971	455.6
2388.785	445.6
2392.595	445.6
2396.402	440.6
2400.206	445.6
2404.007	431.6
2407.804	430.6
2411.597	417.6
2415.388	426.6
2419.174	436.6
2422.958	421.6
2426.738	413.6
2430.515	419.6
2434.289	410.6
2438.059	404.6
2441.825	404.6
2445.589	399.6
2449.349	396.6
2453.106	386.6
2456.859	397.6
2460.61	384.6
2464.356	371.6
2468.1	367.6
2471.84	372.6
2475.577	369.6
2479.311	358.6
2483.041	357.6
2486.768	360.6
2490.492	348.6
2494.213	349.6
2497.93	352.6
2501.644	361.6
2505.355	348.6
2509.062	333.6
2512.766	334.6
2516.467	323.6
2520.165	326.6
2523.859	329.6
2527.551	327.6
2531.239	314.6
2534.923	305.6
2538.605	301.6
2542.283	310.6
2545.958	300.6
2549.63	303.6
2553.299	294.6
2556.964	296.6
2560.626	291.6
2564.285	291.6
2567.941	283.6
2571.594	285.6
2575.243	275.6
2578.89	267.6
2582.533	260.6
2586.173	262.6
2589.809	265.6
2593.443	261.6
2597.073	249.6
2600.701	249.6
2604.325	254.6
2607.946	248.6
2611.564	247.6
2615.178	261.6
2618.79	248.6
2622.398	248.6
2626.004	248.6
2629.606	243.6
2633.205	236.6
2636.801	234.6
2640.394	231.6
2643.983	236.6
2647.57	231.6
2651.153	227.6
2654.734	230.6
2658.311	217.6
2661.885	219.6
2665.456	212.6
2669.025	219.6
2672.589	208.6
2676.151	207.6
2679.71	208.6
2683.266	202.6
2686.819	197.6
2690.368	197.6
2693.915	192.6
2697.458	190.6
2700.999	184.6
2704.536	179.6
2708.071	174.6
2711.602	179.6
2715.13	189.6
2718.656	170.6
2722.178	165.6
2725.697	157.6
2729.214	159.6
2732.727	164.6
2736.237	167.6
2739.744	156.6
2743.249	159.6
2746.75	155.6
2750.248	153.6
2753.743	146.6
2757.236	142.6
2760.725	147.6
2764.211	134.6
2767.695	129.6
2771.175	130.6
2774.652	122.6
2778.127	130.6
2781.598	122.6
2785.067	135.6
2788.532	134.6
2791.995	125.6
2795.455	142.6
2798.911	140.6
2802.365	142.6
2805.816	141.6
2809.264	139.6
2812.709	132.6
2816.151	137.6
2819.59	132.6
2823.026	138.6
2826.46	135.6
2829.89	134.6
2833.318	133.6
2836.742	140.6
2840.164	140.6
2843.583	143.6
2846.999	129.6
2850.412	136.6
2853.822	147.6
2857.229	145.6
2860.634	142.6
2864.035	149.6
2867.434	163.6
2870.83	163.6
2874.223	187.6
2877.613	176.6
2881	187.6
2884.385	188.6
2887.766	173.6
2891.145	179.6
2894.521	176.6
2897.894	185.6
2901.264	185.6
2904.631	194.6
2907.996	198.6
2911.358	192.6
2914.717	195.6
2918.073	199.6
2921.426	203.6
2924.777	211.6
2928.124	217.6
2931.469	218.6
2934.811	229.6
2938.15	232.6
2941.487	233.6
2944.821	235.6
2948.152	231.6
2951.48	229.6
2954.805	238.6
2958.128	235.6
2961.447	231.6
2964.765	230.6
2968.079	229.6
2971.39	225.6
2974.699	231.6
2978.005	225.6
2981.308	236.6
2984.609	237.6
2987.907	237.6
2991.202	240.6
2994.494	236.6
2997.784	244.6
3001.07	250.6
3004.355	267.6
3007.636	256.6
3010.915	253.6
3014.191	264.6
3017.464	276.6
3020.734	267.6
3024.002	271.6
3027.267	277.6
3030.53	284.6
3033.789	296.6
3037.046	291.6
3040.301	306.6
3043.552	314.6
3046.801	325.6
3050.048	327.6
3053.291	337.6
3056.532	343.6
3059.771	379.6
3063.006	372.6
3066.239	386.6
3069.469	403.6
3072.697	422.6
3075.922	420.6
3079.144	436.6
3082.364	439.6
3085.581	463.6
3088.795	464.6
3092.007	483.6
3095.216	483.6
3098.423	498.6
3101.627	505.6
3104.828	517.6
3108.026	530.6
3111.222	529.6
3114.416	540.6
3117.607	559.6
3120.795	574.6
3123.98	563.6
3127.163	584.6
3130.344	602.6
3133.521	614.6
3136.696	632.6
3139.869	647.6
3143.039	652.6
3146.206	671.6
3149.371	683.6
3152.533	678.6
3155.693	697.6
3158.85	689.6
3162.005	695.6
3165.157	706.6
3168.306	708.6
3171.453	704.6
3174.597	724.6
3177.739	712.6
3180.878	719.6
3184.014	733.6
3187.149	722.6
3190.28	733.6
3193.409	741.6
3196.536	742.6
3199.659	742.6
3202.781	754.6
3205.9	766.6
3209.016	748.6
3212.13	749.6
3215.241	730.6
3218.35	732.6
3221.456	727.6
3224.56	724.6
3227.661	711.6
3230.76	698.6
3233.856	692.6
3236.95	686.6
3240.041	690.6
3243.13	663.6
3246.216	645.6
3249.3	641.6
3252.382	645.6
3255.46	630.6
3258.537	630.6
3261.611	615.6
3264.682	612.6
3267.751	611.6
3270.818	606.6
3273.882	605.6
3276.943	593.6
3280.002	602.6
3283.059	606.6
3286.113	585.6
3289.165	590.6
3292.214	586.6
3295.261	558.6
3298.306	553.6
3301.348	541.6
3304.387	542.6
3307.425	554.6
3310.459	543.6
3313.492	530.6
3316.521	524.6
3319.549	510.6
3322.574	516.6
3325.597	518.6
3328.617	512.6
3331.635	517.6
3334.65	508.6
3337.663	501.6
3340.674	504.6
3343.682	493.6
3346.688	493.6
3349.691	497.6
3352.692	499.6
3355.691	492.6
3358.687	487.6
3361.681	488.6
3364.673	477.6
3367.662	469.6
3370.649	465.6
3373.633	453.6
3376.615	445.6
3379.595	441.6
3382.572	435.6
3385.547	429.6
3388.52	420.6
3391.49	415.6
3394.458	406.6
3397.424	405.6
3400.387	398.6
3403.348	387.6
3406.307	383.6
3409.263	380.6
3412.217	369.6
3415.168	375.6
3418.118	363.6
3421.065	365.6
3424.009	343.6
3426.951	358.6
3429.891	342.6
3432.829	332.6
3435.764	328.6
3438.697	315.6
3441.628	299.6
3444.557	302.6
3447.483	272.6
3450.407	272.6
3453.328	262.6
3456.247	256.6
3459.164	229.6
3462.079	225.6
3464.991	221.6
3467.902	209.6
3470.809	204.6
3473.715	193.6
3476.618	192.6
3479.519	188.6
3482.418	176.6
3485.315	170.6
3488.209	162.6
3491.101	156.6
3493.99	150.6
3496.878	143.6
3499.763	129.6
3502.646	123.6
3505.527	110.6
3508.405	117.6
3511.281	105.6
3514.155	95.6
3517.027	89.6
3519.897	81.6
3522.764	73.6
3525.629	56.6
3528.492	48.6
3531.352	44.6
3534.211	42.6
3537.067	37.6
3539.921	36.6
3542.773	26.6
3545.622	10.6
3548.469	11.6
3551.315	10.6
3554.157	-1.4
3556.998	-10.4
3559.837	-1.4
3562.673	-15.4
3565.507	-20.4
3568.339	-20.4
3571.169	-31.4
3573.996	-30.4
3576.822	-31.4
3579.645	-33.4
3582.466	-30.4
3585.285	-37.4
3588.101	-33.4
3590.916	-49.4
3593.728	-61.4
3596.538	-58.4
3599.346	-60.4
3602.152	-53.4
3604.956	-60.4
3607.757	-62.4
3610.556	-65.4
3613.354	-70.4
3616.149	-73.4
3618.942	-79.4
3621.732	-82.4
3624.521	-74.4
3627.307	-71.4
3630.092	-83.4
3632.874	-79.4
3635.654	-85.4
3638.432	-91.4
3641.208	-96.4
3643.982	-92.4
3646.753	-96.4
3649.523	-99.4
3652.29	-93.4
3655.055	-96.4
3657.818	-101.4
3660.579	-97.4
3663.338	-105.4
3666.095	-109.4
3668.849	-109.4
3671.602	-107.4
3674.352	-111.4
3677.101	-111.4
3679.847	-112.4
3682.591	-118.4
3685.333	-121.4
3688.073	-116.4
3690.811	-116.4
3693.547	-124.4
3696.281	-123.4
3699.013	-121.4
3701.742	-125.4
3704.47	-123.4
3707.195	-123.4
3709.919	-129.4
3712.64	-133.4
3715.359	-126.4
3718.076	-122.4
3720.792	-128.4
3723.505	-135.4
3726.216	-123.4
3728.925	-135.4
3731.632	-132.4
3734.336	-139.4
3737.039	-136.4
3739.74	-137.4
3742.439	-144.4
3745.136	-133.4
3747.83	-141.4
3750.523	-138.4
3753.213	-139.4
3755.902	-138.4
3758.589	-142.4
3761.273	-135.4
3763.956	-129.4
3766.636	-137.4
3769.315	-138.4
3771.991	-135.4
3774.665	-140.4
3777.338	-135.4
3780.008	-143.4
3782.677	-139.4
3785.343	-133.4
3788.007	-144.4
3790.67	-141.4
3793.33	-140.4
3795.989	-134.4
3798.645	-138.4
3801.299	-138.4
3803.952	-145.4
3806.602	-138.4
3809.251	-145.4
3811.897	-146.4
3814.542	-139.4
3817.184	-135.4
3819.825	-142.4
3822.463	-144.4
3825.1	-143.4
3827.735	-148.4
3830.367	-136.4
3832.998	-144.4
3835.627	-143.4
3838.253	-141.4
3840.878	-141.4
3843.501	-143.4
3846.122	-150.4
3848.741	-148.4
3851.358	-142.4
3853.973	-147.4
3856.586	-138.4
3859.197	-145.4
3861.806	-143.4
3864.414	-145.4
3867.019	-144.4
3869.622	-144.4
3872.224	-128.4
3874.823	-124.4
3877.421	-105.4
3880.016	-88.4
3882.61	-73.4
3885.202	-71.4
3887.792	-87.4
3890.38	-109.4
3892.966	-136.4
3895.55	-136.4
3898.132	-138.4
3900.713	-142.4
3903.291	-144.4
3905.868	-152.4
3908.442	-142.4
3911.015	-147.4
3913.586	-146.4
3916.155	-142.4
3918.722	-147.4
3921.287	-146.4
3923.85	-143.4
3926.411	-153.4
3928.971	-148.4
3931.528	-149.4
3934.084	-143.4
3936.638	-139.4
3939.19	-152.4
3941.74	-149.4
3944.288	-146.4
3946.834	-145.4
3949.378	-146.4
3951.921	-147.4
3954.462	-153.4
3957	-143.4
3959.537	-144.4
3962.072	-150.4
3964.606	-142.4
3967.137	-149.4
3969.667	-149.4
3972.194	-151.4
3974.72	-146.4
3977.244	-148.4
3979.766	-148.4
3982.286	-144.4
3984.805	-146.4
3987.321	-148.4
3989.836	-139.4
3992.349	-145.4
3994.86	-145.4
3997.369	-143.4
3999.877	-147.4
4002.382	-140.4
4004.886	-147.4
4007.388	-147.4
4009.888	-147.4
4012.386	-151.4
4014.883	-145.4
4017.377	-144.4
4019.87	-142.4
4022.361	-144.4
4024.85	-146.4
4027.338	-142.4
4029.823	-142.4
4032.307	-143.4
4034.789	-148.4
4037.269	-150.4
4039.747	-141.4
4042.224	-141.4
4044.699	-144.4
4047.172	-141.4
4049.643	-142.4
4052.112	-142.4
4054.58	-146.4
4057.046	-143.4
4059.51	-144.4
4061.972	-142.4
4064.432	-139.4
4066.891	-148.4
4069.348	-140.4
4071.803	-150.4
4074.256	-145.4
4076.708	-143.4
4079.158	-143.4
4081.606	-130.4
4084.052	-147.4
4086.497	-143.4
4088.939	-137.4
4091.38	-144.4
4093.819	-147.4
4096.257	-151.4
4098.693	-146.4
4101.127	-151.4
4103.559	-148.4
4105.989	-2.4
4108.418	-4.4
4110.845	-6.4
4113.27	-9.4
4115.694	-9.4
4118.115	-7.4
4120.535	-147.4
4122.954	-148.4
4125.37	-143.4
4127.785	-143.4
4130.198	-146.4
4132.609	-138.4
4135.019	-153.4
4137.427	-157.4
4139.833	-155.4
4142.237	-152.4
