Data from 2018-2-8_conc=3_n=8_RamanShift_01.txt Node
Date: Mon Mar 12 14:52:28 IST 2018
User: aro
Spectrometer: QEPB0276
Trigger mode: 0
Integration Time (sec): 3.000000E1
Scans to average: 1
Electric dark correction enabled: true
Nonlinearity correction enabled: false
Boxcar width: 0
XAxis mode: Raman Shifts
Number of Pixels in Spectrum: 1044
>>>>>Begin Spectral Data<<<<<
160.701	9.8
166.742	35.8
172.777	115.8
178.805	368.8
184.826	998.8
190.841	2155.8
196.849	3598.8
202.85	4745.8
208.845	5145.8
214.833	5127.8
220.815	5042.8
226.789	5044.8
232.758	5020.8
238.719	5027.8
244.674	5009.8
250.623	4900.8
256.565	4839.8
262.5	4784.8
268.429	4711.8
274.351	4648.8
280.267	4606.8
286.176	4583.8
292.079	4562.8
297.975	4575.8
303.865	4543.8
309.748	4468.8
315.625	4508.8
321.495	4487.8
327.359	4477.8
333.217	4457.8
339.068	4466.8
344.912	4500.8
350.751	4471.8
356.583	4477.8
362.408	4487.8
368.227	4499.8
374.04	4491.8
379.847	4515.8
385.647	4549.8
391.44	4558.8
397.228	4597.8
403.009	4619.8
408.784	4625.8
414.553	4646.8
420.315	4614.8
426.071	4654.8
431.821	4677.8
437.565	4605.8
443.302	4601.8
449.033	4602.8
454.758	4640.8
460.477	4589.8
466.189	4566.8
471.896	4514.8
477.596	4513.8
483.29	4469.8
488.978	4477.8
494.66	4455.8
500.335	4391.8
506.005	4298.8
511.668	4160.8
517.325	4037.8
522.977	3931.8
528.622	3890.8
534.261	3799.8
539.894	3782.8
545.521	3749.8
551.141	3715.8
556.756	3688.8
562.365	3657.8
567.968	3646.8
573.565	3633.8
579.155	3590.8
584.74	3577.8
590.319	3590.8
595.892	3566.8
601.459	3553.8
607.02	3566.8
612.575	3515.8
618.124	3500.8
623.667	3455.8
629.204	3437.8
634.735	3405.8
640.261	3388.8
645.781	3361.8
651.294	3368.8
656.802	3349.8
662.304	3354.8
667.8	3333.8
673.29	3310.8
678.775	3293.8
684.254	3302.8
689.726	3286.8
695.193	3264.8
700.655	3255.8
706.11	3252.8
711.56	3200.8
717.004	3220.8
722.442	3186.8
727.874	3161.8
733.301	3169.8
738.722	3157.8
744.137	3139.8
749.547	3122.8
754.951	3105.8
760.349	3141.8
765.741	3134.8
771.128	3140.8
776.509	3150.8
781.885	3185.8
787.254	3190.8
792.618	3197.8
797.977	3178.8
803.33	3157.8
808.677	3130.8
814.019	3128.8
819.355	3095.8
824.686	3058.8
830.011	3064.8
835.33	3031.8
840.644	3051.8
845.952	3052.8
851.255	3032.8
856.552	2991.8
861.844	2987.8
867.13	2988.8
872.41	2976.8
877.686	2956.8
882.955	2940.8
888.219	2903.8
893.478	2852.8
898.731	2825.8
903.979	2810.8
909.221	2791.8
914.458	2761.8
919.69	2754.8
924.916	2773.8
930.136	2754.8
935.351	2758.8
940.561	2787.8
945.766	2789.8
950.965	2761.8
956.158	2739.8
961.347	2700.8
966.529	2691.8
971.707	2627.8
976.879	2581.8
982.046	2560.8
987.208	2560.8
992.364	2567.8
997.515	2577.8
1002.66	2593.8
1007.801	2622.8
1012.936	2652.8
1018.066	2643.8
1023.19	2630.8
1028.309	2639.8
1033.423	2655.8
1038.532	2630.8
1043.636	2600.8
1048.734	2598.8
1053.827	2576.8
1058.915	2516.8
1063.998	2510.8
1069.075	2502.8
1074.147	2493.8
1079.214	2509.8
1084.276	2514.8
1089.333	2539.8
1094.385	2554.8
1099.431	2544.8
1104.472	2533.8
1109.509	2538.8
1114.54	2491.8
1119.565	2442.8
1124.586	2414.8
1129.602	2416.8
1134.613	2358.8
1139.618	2360.8
1144.619	2365.8
1149.614	2350.8
1154.604	2358.8
1159.589	2374.8
1164.57	2368.8
1169.545	2359.8
1174.515	2366.8
1179.48	2355.8
1184.44	2343.8
1189.395	2320.8
1194.345	2327.8
1199.29	2267.8
1204.23	2292.8
1209.165	2299.8
1214.095	2314.8
1219.021	2326.8
1223.941	2357.8
1228.856	2350.8
1233.766	2360.8
1238.672	2368.8
1243.572	2344.8
1248.467	2340.8
1253.358	2316.8
1258.244	2289.8
1263.124	2250.8
1268	2198.8
1272.871	2188.8
1277.737	2169.8
1282.599	2161.8
1287.455	2170.8
1292.306	2154.8
1297.153	2170.8
1301.995	2185.8
1306.832	2186.8
1311.664	2214.8
1316.491	2213.8
1321.314	2198.8
1326.132	2204.8
1330.945	2176.8
1335.753	2134.8
1340.556	2105.8
1345.354	2083.8
1350.148	2036.8
1354.937	2018.8
1359.722	1957.8
1364.501	1954.8
1369.276	1904.8
1374.046	1873.8
1378.811	1828.8
1383.572	1823.8
1388.327	1836.8
1393.079	1824.8
1397.825	1859.8
1402.567	1851.8
1407.304	1845.8
1412.036	1852.8
1416.764	1847.8
1421.487	1849.8
1426.205	1858.8
1430.919	1865.8
1435.628	1881.8
1440.333	1903.8
1445.032	1916.8
1449.727	1926.8
1454.418	1937.8
1459.104	1929.8
1463.785	1901.8
1468.462	1870.8
1473.134	1841.8
1477.802	1793.8
1482.465	1753.8
1487.123	1736.8
1491.777	1684.8
1496.426	1669.8
1501.071	1646.8
1505.711	1655.8
1510.347	1656.8
1514.978	1650.8
1519.604	1648.8
1524.226	1637.8
1528.844	1622.8
1533.457	1617.8
1538.065	1623.8
1542.669	1622.8
1547.269	1620.8
1551.864	1603.8
1556.454	1634.8
1561.041	1652.8
1565.622	1663.8
1570.199	1648.8
1574.772	1676.8
1579.34	1706.8
1583.904	1726.8
1588.464	1737.8
1593.019	1739.8
1597.569	1759.8
1602.115	1734.8
1606.657	1733.8
1611.195	1737.8
1615.728	1720.8
1620.256	1712.8
1624.78	1721.8
1629.3	1735.8
1633.816	1734.8
1638.327	1743.8
1642.834	1752.8
1647.336	1755.8
1651.834	1772.8
1656.328	1771.8
1660.817	1762.8
1665.302	1716.8
1669.783	1705.8
1674.259	1656.8
1678.732	1630.8
1683.199	1561.8
1687.663	1534.8
1692.122	1471.8
1696.577	1424.8
1701.028	1350.8
1705.474	1300.8
1709.917	1279.8
1714.355	1244.8
1718.788	1223.8
1723.218	1247.8
1727.643	1240.8
1732.064	1233.8
1736.481	1227.8
1740.893	1191.8
1745.301	1155.8
1749.705	1144.8
1754.105	1117.8
1758.501	1104.8
1762.893	1086.8
1767.28	1074.8
1771.663	1061.8
1776.042	1056.8
1780.417	1030.8
1784.787	1034.8
1789.154	1018.8
1793.516	1010.8
1797.874	997.8
1802.228	980.8
1806.578	969.8
1810.924	959.8
1815.266	941.8
1819.603	953.8
1823.937	931.8
1828.266	937.8
1832.591	955.8
1836.913	950.8
1841.23	952.8
1845.543	954.8
1849.852	933.8
1854.156	937.8
1858.457	947.8
1862.754	963.8
1867.047	958.8
1871.335	944.8
1875.62	960.8
1879.9	937.8
1884.177	940.8
1888.449	936.8
1892.718	921.8
1896.982	903.8
1901.243	908.8
1905.499	891.8
1909.752	879.8
1914	856.8
1918.245	861.8
1922.485	836.8
1926.722	836.8
1930.954	830.8
1935.183	836.8
1939.408	822.8
1943.628	825.8
1947.845	814.8
1952.058	803.8
1956.267	805.8
1960.472	790.8
1964.673	795.8
1968.87	780.8
1973.063	773.8
1977.252	767.8
1981.438	763.8
1985.619	767.8
1989.797	761.8
1993.971	773.8
1998.14	771.8
2002.306	773.8
2006.469	775.8
2010.627	770.8
2014.781	786.8
2018.932	781.8
2023.078	777.8
2027.221	768.8
2031.36	760.8
2035.495	757.8
2039.627	739.8
2043.754	724.8
2047.878	735.8
2051.998	733.8
2056.114	721.8
2060.226	718.8
2064.334	708.8
2068.439	709.8
2072.54	700.8
2076.637	710.8
2080.73	686.8
2084.82	710.8
2088.906	696.8
2092.988	687.8
2097.066	680.8
2101.14	667.8
2105.211	662.8
2109.278	652.8
2113.342	643.8
2117.401	643.8
2121.457	635.8
2125.509	641.8
2129.558	630.8
2133.602	636.8
2137.643	628.8
2141.681	633.8
2145.714	632.8
2149.744	639.8
2153.77	634.8
2157.793	610.8
2161.812	628.8
2165.827	620.8
2169.838	608.8
2173.846	585.8
2177.851	590.8
2181.851	581.8
2185.848	572.8
2189.841	570.8
2193.831	580.8
2197.817	563.8
2201.799	552.8
2205.778	561.8
2209.753	549.8
2213.725	547.8
2217.693	550.8
2221.657	556.8
2225.618	548.8
2229.575	550.8
2233.529	539.8
2237.479	544.8
2241.425	529.8
2245.368	515.8
2249.307	509.8
2253.243	511.8
2257.175	502.8
2261.104	488.8
2265.029	491.8
2268.95	488.8
2272.868	480.8
2276.783	474.8
2280.694	464.8
2284.601	463.8
2288.505	458.8
2292.405	442.8
2296.302	454.8
2300.195	436.8
2304.085	432.8
2307.971	418.8
2311.854	426.8
2315.734	399.8
2319.609	410.8
2323.482	408.8
2327.351	414.8
2331.216	422.8
2335.078	423.8
2338.937	400.8
2342.792	390.8
2346.643	394.8
2350.492	381.8
2354.336	386.8
2358.178	391.8
2362.015	394.8
2365.85	405.8
2369.681	395.8
2373.508	404.8
2377.333	401.8
2381.153	396.8
2384.971	406.8
2388.785	397.8
2392.595	381.8
2396.402	386.8
2400.206	386.8
2404.007	373.8
2407.804	387.8
2411.597	375.8
2415.388	367.8
2419.174	380.8
2422.958	365.8
2426.738	372.8
2430.515	367.8
2434.289	366.8
2438.059	355.8
2441.825	349.8
2445.589	356.8
2449.349	342.8
2453.106	348.8
2456.859	346.8
2460.61	341.8
2464.356	330.8
2468.1	324.8
2471.84	327.8
2475.577	317.8
2479.311	313.8
2483.041	313.8
2486.768	311.8
2490.492	311.8
2494.213	306.8
2497.93	314.8
2501.644	302.8
2505.355	306.8
2509.062	302.8
2512.766	300.8
2516.467	296.8
2520.165	289.8
2523.859	287.8
2527.551	275.8
2531.239	283.8
2534.923	262.8
2538.605	264.8
2542.283	265.8
2545.958	262.8
2549.63	273.8
2553.299	261.8
2556.964	265.8
2560.626	259.8
2564.285	247.8
2567.941	253.8
2571.594	242.8
2575.243	244.8
2578.89	227.8
2582.533	239.8
2586.173	234.8
2589.809	226.8
2593.443	222.8
2597.073	213.8
2600.701	221.8
2604.325	222.8
2607.946	227.8
2611.564	222.8
2615.178	222.8
2618.79	211.8
2622.398	218.8
2626.004	217.8
2629.606	211.8
2633.205	204.8
2636.801	203.8
2640.394	210.8
2643.983	200.8
2647.57	200.8
2651.153	196.8
2654.734	193.8
2658.311	193.8
2661.885	186.8
2665.456	188.8
2669.025	195.8
2672.589	183.8
2676.151	188.8
2679.71	189.8
2683.266	178.8
2686.819	179.8
2690.368	178.8
2693.915	168.8
2697.458	176.8
2700.999	173.8
2704.536	165.8
2708.071	159.8
2711.602	155.8
2715.13	157.8
2718.656	156.8
2722.178	147.8
2725.697	139.8
2729.214	142.8
2732.727	144.8
2736.237	152.8
2739.744	136.8
2743.249	134.8
2746.75	138.8
2750.248	139.8
2753.743	138.8
2757.236	129.8
2760.725	133.8
2764.211	121.8
2767.695	115.8
2771.175	117.8
2774.652	114.8
2778.127	118.8
2781.598	108.8
2785.067	115.8
2788.532	115.8
2791.995	114.8
2795.455	114.8
2798.911	122.8
2802.365	131.8
2805.816	129.8
2809.264	119.8
2812.709	126.8
2816.151	123.8
2819.59	122.8
2823.026	117.8
2826.46	114.8
2829.89	118.8
2833.318	118.8
2836.742	127.8
2840.164	122.8
2843.583	132.8
2846.999	118.8
2850.412	117.8
2853.822	125.8
2857.229	130.8
2860.634	132.8
2864.035	135.8
2867.434	142.8
2870.83	145.8
2874.223	149.8
2877.613	155.8
2881	158.8
2884.385	168.8
2887.766	155.8
2891.145	157.8
2894.521	159.8
2897.894	168.8
2901.264	174.8
2904.631	172.8
2907.996	168.8
2911.358	161.8
2914.717	173.8
2918.073	172.8
2921.426	181.8
2924.777	194.8
2928.124	195.8
2931.469	189.8
2934.811	208.8
2938.15	201.8
2941.487	207.8
2944.821	210.8
2948.152	207.8
2951.48	217.8
2954.805	210.8
2958.128	211.8
2961.447	202.8
2964.765	198.8
2968.079	203.8
2971.39	205.8
2974.699	213.8
2978.005	207.8
2981.308	217.8
2984.609	213.8
2987.907	202.8
2991.202	212.8
2994.494	212.8
2997.784	224.8
3001.07	223.8
3004.355	235.8
3007.636	234.8
3010.915	222.8
3014.191	231.8
3017.464	241.8
3020.734	233.8
3024.002	237.8
3027.267	254.8
3030.53	257.8
3033.789	261.8
3037.046	273.8
3040.301	262.8
3043.552	294.8
3046.801	281.8
3050.048	301.8
3053.291	303.8
3056.532	321.8
3059.771	333.8
3063.006	336.8
3066.239	350.8
3069.469	349.8
3072.697	364.8
3075.922	383.8
3079.144	393.8
3082.364	413.8
3085.581	412.8
3088.795	412.8
3092.007	425.8
3095.216	443.8
3098.423	450.8
3101.627	460.8
3104.828	470.8
3108.026	471.8
3111.222	485.8
3114.416	483.8
3117.607	501.8
3120.795	515.8
3123.98	515.8
3127.163	540.8
3130.344	553.8
3133.521	561.8
3136.696	573.8
3139.869	576.8
3143.039	591.8
3146.206	594.8
3149.371	608.8
3152.533	617.8
3155.693	619.8
3158.85	630.8
3162.005	619.8
3165.157	631.8
3168.306	638.8
3171.453	631.8
3174.597	643.8
3177.739	654.8
3180.878	644.8
3184.014	665.8
3187.149	655.8
3190.28	664.8
3193.409	655.8
3196.536	661.8
3199.659	666.8
3202.781	679.8
3205.9	677.8
3209.016	675.8
3212.13	673.8
3215.241	671.8
3218.35	668.8
3221.456	643.8
3224.56	639.8
3227.661	630.8
3230.76	633.8
3233.856	618.8
3236.95	614.8
3240.041	597.8
3243.13	583.8
3246.216	584.8
3249.3	568.8
3252.382	576.8
3255.46	575.8
3258.537	549.8
3261.611	545.8
3264.682	551.8
3267.751	542.8
3270.818	544.8
3273.882	546.8
3276.943	558.8
3280.002	540.8
3283.059	536.8
3286.113	533.8
3289.165	514.8
3292.214	511.8
3295.261	506.8
3298.306	487.8
3301.348	488.8
3304.387	497.8
3307.425	484.8
3310.459	482.8
3313.492	466.8
3316.521	470.8
3319.549	462.8
3322.574	463.8
3325.597	461.8
3328.617	470.8
3331.635	456.8
3334.65	454.8
3337.663	442.8
3340.674	453.8
3343.682	448.8
3346.688	449.8
3349.691	448.8
3352.692	448.8
3355.691	442.8
3358.687	438.8
3361.681	443.8
3364.673	429.8
3367.662	427.8
3370.649	423.8
3373.633	405.8
3376.615	394.8
3379.595	393.8
3382.572	384.8
3385.547	381.8
3388.52	379.8
3391.49	382.8
3394.458	373.8
3397.424	372.8
3400.387	354.8
3403.348	350.8
3406.307	343.8
3409.263	337.8
3412.217	345.8
3415.168	344.8
3418.118	337.8
3421.065	319.8
3424.009	310.8
3426.951	315.8
3429.891	306.8
3432.829	306.8
3435.764	296.8
3438.697	286.8
3441.628	284.8
3444.557	267.8
3447.483	253.8
3450.407	237.8
3453.328	232.8
3456.247	237.8
3459.164	212.8
3462.079	211.8
3464.991	201.8
3467.902	192.8
3470.809	189.8
3473.715	171.8
3476.618	168.8
3479.519	167.8
3482.418	154.8
3485.315	154.8
3488.209	138.8
3491.101	138.8
3493.99	142.8
3496.878	126.8
3499.763	115.8
3502.646	112.8
3505.527	100.8
3508.405	99.8
3511.281	91.8
3514.155	86.8
3517.027	69.8
3519.897	69.8
3522.764	62.8
3525.629	52.8
3528.492	48.8
3531.352	47.8
3534.211	41.8
3537.067	24.8
3539.921	24.8
3542.773	18.8
3545.622	9.8
3548.469	11.8
3551.315	7.8
3554.157	3.8
3556.998	-8.2
3559.837	-5.2
3562.673	-13.2
3565.507	-7.2
3568.339	-22.2
3571.169	-30.2
3573.996	-20.2
3576.822	-26.2
3579.645	-26.2
3582.466	-25.2
3585.285	-38.2
3588.101	-25.2
3590.916	-46.2
3593.728	-48.2
3596.538	-46.2
3599.346	-51.2
3602.152	-53.2
3604.956	-53.2
3607.757	-52.2
3610.556	-58.2
3613.354	-59.2
3616.149	-70.2
3618.942	-74.2
3621.732	-70.2
3624.521	-74.2
3627.307	-70.2
3630.092	-75.2
3632.874	-73.2
3635.654	-78.2
3638.432	-76.2
3641.208	-80.2
3643.982	-89.2
3646.753	-89.2
3649.523	-90.2
3652.29	-81.2
3655.055	-84.2
3657.818	-90.2
3660.579	-89.2
3663.338	-85.2
3666.095	-93.2
3668.849	-98.2
3671.602	-97.2
3674.352	-96.2
3677.101	-102.2
3679.847	-101.2
3682.591	-105.2
3685.333	-100.2
3688.073	-103.2
3690.811	-108.2
3693.547	-108.2
3696.281	-107.2
3699.013	-101.2
3701.742	-114.2
3704.47	-107.2
3707.195	-110.2
3709.919	-111.2
3712.64	-108.2
3715.359	-117.2
3718.076	-115.2
3720.792	-112.2
3723.505	-114.2
3726.216	-109.2
3728.925	-120.2
3731.632	-113.2
3734.336	-122.2
3737.039	-118.2
3739.74	-123.2
3742.439	-118.2
3745.136	-116.2
3747.83	-126.2
3750.523	-123.2
3753.213	-130.2
3755.902	-122.2
3758.589	-125.2
3761.273	-116.2
3763.956	-116.2
3766.636	-120.2
3769.315	-114.2
3771.991	-120.2
3774.665	-124.2
3777.338	-118.2
3780.008	-119.2
3782.677	-120.2
3785.343	-117.2
3788.007	-124.2
3790.67	-119.2
3793.33	-120.2
3795.989	-123.2
3798.645	-117.2
3801.299	-120.2
3803.952	-126.2
3806.602	-117.2
3809.251	-128.2
3811.897	-128.2
3814.542	-126.2
3817.184	-119.2
3819.825	-128.2
3822.463	-122.2
3825.1	-119.2
3827.735	-124.2
3830.367	-129.2
3832.998	-127.2
3835.627	-130.2
3838.253	-121.2
3840.878	-127.2
3843.501	-125.2
3846.122	-127.2
3848.741	-124.2
3851.358	-117.2
3853.973	-131.2
3856.586	-121.2
3859.197	-131.2
3861.806	-123.2
3864.414	-127.2
3867.019	-123.2
3869.622	-126.2
3872.224	-112.2
3874.823	-109.2
3877.421	-97.2
3880.016	-81.2
3882.61	-65.2
3885.202	-69.2
3887.792	-86.2
3890.38	-97.2
3892.966	-118.2
3895.55	-120.2
3898.132	-128.2
3900.713	-125.2
3903.291	-132.2
3905.868	-125.2
3908.442	-127.2
3911.015	-125.2
3913.586	-128.2
3916.155	-125.2
3918.722	-132.2
3921.287	-131.2
3923.85	-130.2
3926.411	-129.2
3928.971	-128.2
3931.528	-129.2
3934.084	-126.2
3936.638	-121.2
3939.19	-131.2
3941.74	-128.2
3944.288	-130.2
3946.834	-125.2
3949.378	-127.2
3951.921	-128.2
3954.462	-130.2
3957	-128.2
3959.537	-122.2
3962.072	-131.2
3964.606	-128.2
3967.137	-127.2
3969.667	-130.2
3972.194	-129.2
3974.72	-126.2
3977.244	-126.2
3979.766	-130.2
3982.286	-126.2
3984.805	-127.2
3987.321	-127.2
3989.836	-121.2
3992.349	-128.2
3994.86	-122.2
3997.369	-123.2
3999.877	-126.2
4002.382	-126.2
4004.886	-131.2
4007.388	-126.2
4009.888	-126.2
4012.386	-129.2
4014.883	-129.2
4017.377	-123.2
4019.87	-122.2
4022.361	-128.2
4024.85	-121.2
4027.338	-125.2
4029.823	-125.2
4032.307	-122.2
4034.789	-127.2
4037.269	-128.2
4039.747	-124.2
4042.224	-120.2
4044.699	-129.2
4047.172	-128.2
4049.643	-124.2
4052.112	-128.2
4054.58	-127.2
4057.046	-127.2
4059.51	-126.2
4061.972	-125.2
4064.432	-128.2
4066.891	-126.2
4069.348	-127.2
4071.803	-128.2
4074.256	-129.2
4076.708	-123.2
4079.158	-125.2
4081.606	-119.2
4084.052	-130.2
4086.497	-128.2
4088.939	-122.2
4091.38	-127.2
4093.819	-127.2
4096.257	-133.2
4098.693	-129.2
4101.127	-130.2
4103.559	-127.2
4105.989	-10.2
4108.418	-17.2
4110.845	-10.2
4113.27	-15.2
4115.694	-17.2
4118.115	-18.2
4120.535	-127.2
4122.954	-127.2
4125.37	-125.2
4127.785	-126.2
4130.198	-128.2
4132.609	-121.2
4135.019	-131.2
4137.427	-134.2
4139.833	-134.2
4142.237	-130.2
