Data from 2018-2-8_conc=3_n=2_RamanShift_03.txt Node
Date: Mon Mar 12 14:32:58 IST 2018
User: aro
Spectrometer: QEPB0276
Trigger mode: 0
Integration Time (sec): 3.000000E1
Scans to average: 1
Electric dark correction enabled: true
Nonlinearity correction enabled: false
Boxcar width: 0
XAxis mode: Raman Shifts
Number of Pixels in Spectrum: 1044
>>>>>Begin Spectral Data<<<<<
160.701	9.8
166.742	41.8
172.777	125.8
178.805	391.8
184.826	1054.8
190.841	2328.8
196.849	3841.8
202.85	5046.8
208.845	5530.8
214.833	5517.8
220.815	5444.8
226.789	5409.8
232.758	5409.8
238.719	5371.8
244.674	5332.8
250.623	5304.8
256.565	5193.8
262.5	5110.8
268.429	5050.8
274.351	5030.8
280.267	4939.8
286.176	4915.8
292.079	4891.8
297.975	4857.8
303.865	4839.8
309.748	4821.8
315.625	4819.8
321.495	4778.8
327.359	4774.8
333.217	4769.8
339.068	4797.8
344.912	4813.8
350.751	4810.8
356.583	4811.8
362.408	4777.8
368.227	4815.8
374.04	4813.8
379.847	4840.8
385.647	4848.8
391.44	4906.8
397.228	4908.8
403.009	4907.8
408.784	4931.8
414.553	4984.8
420.315	4951.8
426.071	5006.8
431.821	4970.8
437.565	4979.8
443.302	4969.8
449.033	4927.8
454.758	4930.8
460.477	4913.8
466.189	4892.8
471.896	4840.8
477.596	4844.8
483.29	4819.8
488.978	4814.8
494.66	4768.8
500.335	4698.8
506.005	4647.8
511.668	4486.8
517.325	4369.8
522.977	4257.8
528.622	4161.8
534.261	4097.8
539.894	4070.8
545.521	4007.8
551.141	3991.8
556.756	3986.8
562.365	3954.8
567.968	3926.8
573.565	3900.8
579.155	3884.8
584.74	3880.8
590.319	3853.8
595.892	3852.8
601.459	3836.8
607.02	3827.8
612.575	3789.8
618.124	3768.8
623.667	3738.8
629.204	3709.8
634.735	3645.8
640.261	3633.8
645.781	3642.8
651.294	3606.8
656.802	3584.8
662.304	3585.8
667.8	3572.8
673.29	3577.8
678.775	3563.8
684.254	3543.8
689.726	3530.8
695.193	3524.8
700.655	3499.8
706.11	3495.8
711.56	3452.8
717.004	3472.8
722.442	3440.8
727.874	3402.8
733.301	3400.8
738.722	3381.8
744.137	3379.8
749.547	3374.8
754.951	3391.8
760.349	3358.8
765.741	3370.8
771.128	3390.8
776.509	3389.8
781.885	3433.8
787.254	3399.8
792.618	3444.8
797.977	3441.8
803.33	3394.8
808.677	3354.8
814.019	3327.8
819.355	3345.8
824.686	3287.8
830.011	3284.8
835.33	3272.8
840.644	3281.8
845.952	3272.8
851.255	3266.8
856.552	3246.8
861.844	3244.8
867.13	3219.8
872.41	3206.8
877.686	3167.8
882.955	3135.8
888.219	3129.8
893.478	3115.8
898.731	3037.8
903.979	3003.8
909.221	2989.8
914.458	2973.8
919.69	2960.8
924.916	2973.8
930.136	2970.8
935.351	2979.8
940.561	2988.8
945.766	2976.8
950.965	2957.8
956.158	2949.8
961.347	2897.8
966.529	2862.8
971.707	2849.8
976.879	2777.8
982.046	2751.8
987.208	2751.8
992.364	2762.8
997.515	2770.8
1002.66	2794.8
1007.801	2811.8
1012.936	2818.8
1018.066	2858.8
1023.19	2866.8
1028.309	2844.8
1033.423	2860.8
1038.532	2819.8
1043.636	2783.8
1048.734	2773.8
1053.827	2754.8
1058.915	2703.8
1063.998	2712.8
1069.075	2684.8
1074.147	2708.8
1079.214	2698.8
1084.276	2708.8
1089.333	2712.8
1094.385	2731.8
1099.431	2721.8
1104.472	2705.8
1109.509	2691.8
1114.54	2659.8
1119.565	2624.8
1124.586	2603.8
1129.602	2575.8
1134.613	2555.8
1139.618	2516.8
1144.619	2534.8
1149.614	2529.8
1154.604	2549.8
1159.589	2532.8
1164.57	2570.8
1169.545	2542.8
1174.515	2555.8
1179.48	2540.8
1184.44	2530.8
1189.395	2506.8
1194.345	2495.8
1199.29	2468.8
1204.23	2454.8
1209.165	2457.8
1214.095	2502.8
1219.021	2507.8
1223.941	2512.8
1228.856	2512.8
1233.766	2533.8
1238.672	2539.8
1243.572	2516.8
1248.467	2499.8
1253.358	2495.8
1258.244	2446.8
1263.124	2405.8
1268	2375.8
1272.871	2335.8
1277.737	2315.8
1282.599	2303.8
1287.455	2315.8
1292.306	2334.8
1297.153	2323.8
1301.995	2328.8
1306.832	2349.8
1311.664	2384.8
1316.491	2383.8
1321.314	2373.8
1326.132	2349.8
1330.945	2335.8
1335.753	2285.8
1340.556	2235.8
1345.354	2227.8
1350.148	2186.8
1354.937	2164.8
1359.722	2125.8
1364.501	2102.8
1369.276	2044.8
1374.046	2006.8
1378.811	1967.8
1383.572	1977.8
1388.327	1971.8
1393.079	1974.8
1397.825	1979.8
1402.567	1998.8
1407.304	1978.8
1412.036	2002.8
1416.764	1964.8
1421.487	1993.8
1426.205	1994.8
1430.919	1996.8
1435.628	2010.8
1440.333	2027.8
1445.032	2026.8
1449.727	2072.8
1454.418	2082.8
1459.104	2064.8
1463.785	2031.8
1468.462	1994.8
1473.134	1930.8
1477.802	1918.8
1482.465	1866.8
1487.123	1826.8
1491.777	1813.8
1496.426	1789.8
1501.071	1776.8
1505.711	1783.8
1510.347	1782.8
1514.978	1764.8
1519.604	1766.8
1524.226	1764.8
1528.844	1740.8
1533.457	1737.8
1538.065	1721.8
1542.669	1715.8
1547.269	1735.8
1551.864	1721.8
1556.454	1748.8
1561.041	1766.8
1565.622	1770.8
1570.199	1756.8
1574.772	1782.8
1579.34	1820.8
1583.904	1840.8
1588.464	1859.8
1593.019	1869.8
1597.569	1876.8
1602.115	1879.8
1606.657	1845.8
1611.195	1853.8
1615.728	1841.8
1620.256	1836.8
1624.78	1847.8
1629.3	1858.8
1633.816	1869.8
1638.327	1866.8
1642.834	1869.8
1647.336	1906.8
1651.834	1868.8
1656.328	1870.8
1660.817	1887.8
1665.302	1848.8
1669.783	1825.8
1674.259	1778.8
1678.732	1745.8
1683.199	1693.8
1687.663	1648.8
1692.122	1606.8
1696.577	1522.8
1701.028	1439.8
1705.474	1394.8
1709.917	1342.8
1714.355	1347.8
1718.788	1321.8
1723.218	1318.8
1727.643	1326.8
1732.064	1311.8
1736.481	1304.8
1740.893	1271.8
1745.301	1232.8
1749.705	1215.8
1754.105	1191.8
1758.501	1184.8
1762.893	1175.8
1767.28	1141.8
1771.663	1142.8
1776.042	1123.8
1780.417	1116.8
1784.787	1100.8
1789.154	1090.8
1793.516	1080.8
1797.874	1064.8
1802.228	1054.8
1806.578	1040.8
1810.924	1035.8
1815.266	1018.8
1819.603	1012.8
1823.937	1010.8
1828.266	1010.8
1832.591	1018.8
1836.913	1016.8
1841.23	1026.8
1845.543	1015.8
1849.852	1022.8
1854.156	1017.8
1858.457	1022.8
1862.754	1018.8
1867.047	1006.8
1871.335	1029.8
1875.62	1027.8
1879.9	1027.8
1884.177	1006.8
1888.449	995.8
1892.718	989.8
1896.982	964.8
1901.243	963.8
1905.499	952.8
1909.752	932.8
1914	913.8
1918.245	905.8
1922.485	899.8
1926.722	894.8
1930.954	899.8
1935.183	891.8
1939.408	882.8
1943.628	882.8
1947.845	864.8
1952.058	851.8
1956.267	845.8
1960.472	834.8
1964.673	845.8
1968.87	822.8
1973.063	829.8
1977.252	818.8
1981.438	824.8
1985.619	819.8
1989.797	812.8
1993.971	824.8
1998.14	821.8
2002.306	816.8
2006.469	826.8
2010.627	830.8
2014.781	837.8
2018.932	829.8
2023.078	840.8
2027.221	822.8
2031.36	818.8
2035.495	809.8
2039.627	792.8
2043.754	775.8
2047.878	776.8
2051.998	761.8
2056.114	769.8
2060.226	774.8
2064.334	762.8
2068.439	750.8
2072.54	750.8
2076.637	759.8
2080.73	747.8
2084.82	749.8
2088.906	752.8
2092.988	740.8
2097.066	726.8
2101.14	714.8
2105.211	704.8
2109.278	705.8
2113.342	687.8
2117.401	690.8
2121.457	684.8
2125.509	675.8
2129.558	669.8
2133.602	668.8
2137.643	677.8
2141.681	680.8
2145.714	664.8
2149.744	678.8
2153.77	675.8
2157.793	659.8
2161.812	670.8
2165.827	655.8
2169.838	644.8
2173.846	630.8
2177.851	639.8
2181.851	628.8
2185.848	616.8
2189.841	615.8
2193.831	608.8
2197.817	609.8
2201.799	600.8
2205.778	601.8
2209.753	595.8
2213.725	601.8
2217.693	602.8
2221.657	592.8
2225.618	581.8
2229.575	584.8
2233.529	568.8
2237.479	588.8
2241.425	574.8
2245.368	552.8
2249.307	549.8
2253.243	547.8
2257.175	545.8
2261.104	519.8
2265.029	516.8
2268.95	523.8
2272.868	511.8
2276.783	501.8
2280.694	499.8
2284.601	487.8
2288.505	490.8
2292.405	481.8
2296.302	482.8
2300.195	469.8
2304.085	454.8
2307.971	460.8
2311.854	448.8
2315.734	439.8
2319.609	445.8
2323.482	442.8
2327.351	428.8
2331.216	447.8
2335.078	448.8
2338.937	439.8
2342.792	422.8
2346.643	417.8
2350.492	418.8
2354.336	413.8
2358.178	421.8
2362.015	424.8
2365.85	424.8
2369.681	420.8
2373.508	420.8
2377.333	423.8
2381.153	422.8
2384.971	420.8
2388.785	413.8
2392.595	418.8
2396.402	408.8
2400.206	415.8
2404.007	415.8
2407.804	399.8
2411.597	397.8
2415.388	388.8
2419.174	397.8
2422.958	393.8
2426.738	398.8
2430.515	386.8
2434.289	387.8
2438.059	374.8
2441.825	372.8
2445.589	381.8
2449.349	378.8
2453.106	371.8
2456.859	368.8
2460.61	370.8
2464.356	354.8
2468.1	351.8
2471.84	336.8
2475.577	350.8
2479.311	333.8
2483.041	327.8
2486.768	343.8
2490.492	325.8
2494.213	337.8
2497.93	328.8
2501.644	320.8
2505.355	318.8
2509.062	321.8
2512.766	331.8
2516.467	303.8
2520.165	308.8
2523.859	313.8
2527.551	299.8
2531.239	290.8
2534.923	287.8
2538.605	276.8
2542.283	279.8
2545.958	289.8
2549.63	280.8
2553.299	275.8
2556.964	281.8
2560.626	268.8
2564.285	271.8
2567.941	258.8
2571.594	264.8
2575.243	263.8
2578.89	257.8
2582.533	255.8
2586.173	249.8
2589.809	244.8
2593.443	234.8
2597.073	240.8
2600.701	230.8
2604.325	231.8
2607.946	222.8
2611.564	229.8
2615.178	239.8
2618.79	239.8
2622.398	227.8
2626.004	228.8
2629.606	228.8
2633.205	219.8
2636.801	225.8
2640.394	219.8
2643.983	224.8
2647.57	223.8
2651.153	219.8
2654.734	214.8
2658.311	204.8
2661.885	206.8
2665.456	206.8
2669.025	207.8
2672.589	206.8
2676.151	202.8
2679.71	199.8
2683.266	193.8
2686.819	196.8
2690.368	194.8
2693.915	190.8
2697.458	178.8
2700.999	185.8
2704.536	187.8
2708.071	169.8
2711.602	166.8
2715.13	168.8
2718.656	167.8
2722.178	162.8
2725.697	160.8
2729.214	158.8
2732.727	160.8
2736.237	168.8
2739.744	148.8
2743.249	151.8
2746.75	153.8
2750.248	136.8
2753.743	143.8
2757.236	143.8
2760.725	141.8
2764.211	134.8
2767.695	129.8
2771.175	113.8
2774.652	124.8
2778.127	127.8
2781.598	118.8
2785.067	132.8
2788.532	123.8
2791.995	133.8
2795.455	120.8
2798.911	118.8
2802.365	130.8
2805.816	132.8
2809.264	132.8
2812.709	134.8
2816.151	127.8
2819.59	136.8
2823.026	131.8
2826.46	117.8
2829.89	123.8
2833.318	120.8
2836.742	128.8
2840.164	130.8
2843.583	134.8
2846.999	136.8
2850.412	138.8
2853.822	139.8
2857.229	129.8
2860.634	141.8
2864.035	147.8
2867.434	150.8
2870.83	150.8
2874.223	164.8
2877.613	171.8
2881	178.8
2884.385	173.8
2887.766	166.8
2891.145	164.8
2894.521	174.8
2897.894	177.8
2901.264	181.8
2904.631	178.8
2907.996	176.8
2911.358	177.8
2914.717	189.8
2918.073	191.8
2921.426	199.8
2924.777	199.8
2928.124	210.8
2931.469	216.8
2934.811	214.8
2938.15	215.8
2941.487	217.8
2944.821	224.8
2948.152	222.8
2951.48	228.8
2954.805	223.8
2958.128	228.8
2961.447	210.8
2964.765	219.8
2968.079	208.8
2971.39	207.8
2974.699	224.8
2978.005	226.8
2981.308	229.8
2984.609	228.8
2987.907	223.8
2991.202	239.8
2994.494	227.8
2997.784	232.8
3001.07	246.8
3004.355	260.8
3007.636	244.8
3010.915	244.8
3014.191	250.8
3017.464	253.8
3020.734	251.8
3024.002	248.8
3027.267	269.8
3030.53	267.8
3033.789	281.8
3037.046	288.8
3040.301	293.8
3043.552	306.8
3046.801	302.8
3050.048	317.8
3053.291	331.8
3056.532	345.8
3059.771	348.8
3063.006	353.8
3066.239	388.8
3069.469	373.8
3072.697	386.8
3075.922	412.8
3079.144	414.8
3082.364	436.8
3085.581	443.8
3088.795	445.8
3092.007	448.8
3095.216	462.8
3098.423	469.8
3101.627	484.8
3104.828	493.8
3108.026	493.8
3111.222	511.8
3114.416	524.8
3117.607	545.8
3120.795	545.8
3123.98	549.8
3127.163	569.8
3130.344	588.8
3133.521	591.8
3136.696	623.8
3139.869	615.8
3143.039	634.8
3146.206	633.8
3149.371	644.8
3152.533	650.8
3155.693	652.8
3158.85	667.8
3162.005	668.8
3165.157	671.8
3168.306	673.8
3171.453	673.8
3174.597	666.8
3177.739	695.8
3180.878	690.8
3184.014	707.8
3187.149	686.8
3190.28	699.8
3193.409	698.8
3196.536	699.8
3199.659	709.8
3202.781	705.8
3205.9	718.8
3209.016	731.8
3212.13	734.8
3215.241	714.8
3218.35	707.8
3221.456	686.8
3224.56	695.8
3227.661	678.8
3230.76	681.8
3233.856	664.8
3236.95	661.8
3240.041	640.8
3243.13	627.8
3246.216	628.8
3249.3	616.8
3252.382	609.8
3255.46	604.8
3258.537	604.8
3261.611	594.8
3264.682	581.8
3267.751	586.8
3270.818	580.8
3273.882	578.8
3276.943	572.8
3280.002	571.8
3283.059	575.8
3286.113	567.8
3289.165	577.8
3292.214	556.8
3295.261	541.8
3298.306	533.8
3301.348	533.8
3304.387	527.8
3307.425	518.8
3310.459	515.8
3313.492	511.8
3316.521	509.8
3319.549	500.8
3322.574	490.8
3325.597	491.8
3328.617	498.8
3331.635	492.8
3334.65	496.8
3337.663	477.8
3340.674	480.8
3343.682	486.8
3346.688	484.8
3349.691	486.8
3352.692	476.8
3355.691	478.8
3358.687	463.8
3361.681	463.8
3364.673	466.8
3367.662	453.8
3370.649	444.8
3373.633	453.8
3376.615	428.8
3379.595	431.8
3382.572	428.8
3385.547	417.8
3388.52	406.8
3391.49	396.8
3394.458	395.8
3397.424	390.8
3400.387	385.8
3403.348	377.8
3406.307	379.8
3409.263	370.8
3412.217	365.8
3415.168	361.8
3418.118	357.8
3421.065	351.8
3424.009	339.8
3426.951	345.8
3429.891	333.8
3432.829	326.8
3435.764	308.8
3438.697	298.8
3441.628	300.8
3444.557	291.8
3447.483	279.8
3450.407	257.8
3453.328	253.8
3456.247	248.8
3459.164	235.8
3462.079	221.8
3464.991	212.8
3467.902	211.8
3470.809	208.8
3473.715	190.8
3476.618	186.8
3479.519	177.8
3482.418	164.8
3485.315	162.8
3488.209	142.8
3491.101	144.8
3493.99	143.8
3496.878	140.8
3499.763	125.8
3502.646	120.8
3505.527	112.8
3508.405	114.8
3511.281	98.8
3514.155	91.8
3517.027	82.8
3519.897	72.8
3522.764	63.8
3525.629	54.8
3528.492	51.8
3531.352	50.8
3534.211	43.8
3537.067	27.8
3539.921	30.8
3542.773	23.8
3545.622	11.8
3548.469	10.8
3551.315	11.8
3554.157	-3.2
3556.998	-6.2
3559.837	-15.2
3562.673	-12.2
3565.507	-11.2
3568.339	-14.2
3571.169	-27.2
3573.996	-21.2
3576.822	-27.2
3579.645	-28.2
3582.466	-30.2
3585.285	-41.2
3588.101	-37.2
3590.916	-47.2
3593.728	-54.2
3596.538	-45.2
3599.346	-57.2
3602.152	-54.2
3604.956	-55.2
3607.757	-58.2
3610.556	-68.2
3613.354	-64.2
3616.149	-73.2
3618.942	-78.2
3621.732	-75.2
3624.521	-74.2
3627.307	-76.2
3630.092	-78.2
3632.874	-79.2
3635.654	-88.2
3638.432	-87.2
3641.208	-82.2
3643.982	-92.2
3646.753	-87.2
3649.523	-94.2
3652.29	-90.2
3655.055	-93.2
3657.818	-98.2
3660.579	-97.2
3663.338	-96.2
3666.095	-101.2
3668.849	-100.2
3671.602	-101.2
3674.352	-101.2
3677.101	-110.2
3679.847	-110.2
3682.591	-114.2
3685.333	-110.2
3688.073	-110.2
3690.811	-110.2
3693.547	-119.2
3696.281	-115.2
3699.013	-116.2
3701.742	-115.2
3704.47	-119.2
3707.195	-114.2
3709.919	-121.2
3712.64	-120.2
3715.359	-122.2
3718.076	-118.2
3720.792	-115.2
3723.505	-127.2
3726.216	-123.2
3728.925	-128.2
3731.632	-124.2
3734.336	-127.2
3737.039	-123.2
3739.74	-126.2
3742.439	-129.2
3745.136	-123.2
3747.83	-131.2
3750.523	-131.2
3753.213	-135.2
3755.902	-131.2
3758.589	-129.2
3761.273	-123.2
3763.956	-123.2
3766.636	-131.2
3769.315	-124.2
3771.991	-123.2
3774.665	-130.2
3777.338	-124.2
3780.008	-126.2
3782.677	-129.2
3785.343	-130.2
3788.007	-130.2
3790.67	-130.2
3793.33	-133.2
3795.989	-131.2
3798.645	-125.2
3801.299	-132.2
3803.952	-133.2
3806.602	-130.2
3809.251	-136.2
3811.897	-140.2
3814.542	-138.2
3817.184	-128.2
3819.825	-134.2
3822.463	-134.2
3825.1	-128.2
3827.735	-132.2
3830.367	-133.2
3832.998	-137.2
3835.627	-136.2
3838.253	-134.2
3840.878	-133.2
3843.501	-127.2
3846.122	-130.2
3848.741	-133.2
3851.358	-131.2
3853.973	-137.2
3856.586	-133.2
3859.197	-140.2
3861.806	-131.2
3864.414	-136.2
3867.019	-133.2
3869.622	-136.2
3872.224	-122.2
3874.823	-118.2
3877.421	-112.2
3880.016	-83.2
3882.61	-63.2
3885.202	-63.2
3887.792	-83.2
3890.38	-105.2
3892.966	-126.2
3895.55	-127.2
3898.132	-129.2
3900.713	-134.2
3903.291	-140.2
3905.868	-135.2
3908.442	-136.2
3911.015	-137.2
3913.586	-136.2
3916.155	-138.2
3918.722	-135.2
3921.287	-136.2
3923.85	-136.2
3926.411	-140.2
3928.971	-137.2
3931.528	-140.2
3934.084	-134.2
3936.638	-132.2
3939.19	-137.2
3941.74	-139.2
3944.288	-135.2
3946.834	-134.2
3949.378	-132.2
3951.921	-133.2
3954.462	-138.2
3957	-141.2
3959.537	-133.2
3962.072	-142.2
3964.606	-134.2
3967.137	-135.2
3969.667	-133.2
3972.194	-143.2
3974.72	-134.2
3977.244	-134.2
3979.766	-135.2
3982.286	-134.2
3984.805	-141.2
3987.321	-137.2
3989.836	-129.2
3992.349	-140.2
3994.86	-130.2
3997.369	-134.2
3999.877	-135.2
4002.382	-135.2
4004.886	-138.2
4007.388	-131.2
4009.888	-135.2
4012.386	-137.2
4014.883	-139.2
4017.377	-134.2
4019.87	-133.2
4022.361	-135.2
4024.85	-137.2
4027.338	-136.2
4029.823	-135.2
4032.307	-135.2
4034.789	-140.2
4037.269	-136.2
4039.747	-133.2
4042.224	-128.2
4044.699	-136.2
4047.172	-131.2
4049.643	-129.2
4052.112	-138.2
4054.58	-137.2
4057.046	-132.2
4059.51	-137.2
4061.972	-134.2
4064.432	-135.2
4066.891	-133.2
4069.348	-136.2
4071.803	-136.2
4074.256	-137.2
4076.708	-132.2
4079.158	-135.2
4081.606	-128.2
4084.052	-135.2
4086.497	-138.2
4088.939	-128.2
4091.38	-134.2
4093.819	-134.2
4096.257	-139.2
4098.693	-143.2
4101.127	-141.2
4103.559	-137.2
4105.989	-5.2
4108.418	-4.2
4110.845	-8.2
4113.27	-7.2
4115.694	-15.2
4118.115	-8.2
4120.535	-137.2
4122.954	-139.2
4125.37	-136.2
4127.785	-136.2
4130.198	-136.2
4132.609	-131.2
4135.019	-141.2
4137.427	-144.2
4139.833	-142.2
4142.237	-141.2
