Data from 2018-2-8_conc=4_n=3_RamanShift_06.txt Node
Date: Mon Mar 12 15:17:28 IST 2018
User: aro
Spectrometer: QEPB0276
Trigger mode: 0
Integration Time (sec): 3.000000E1
Scans to average: 1
Electric dark correction enabled: true
Nonlinearity correction enabled: false
Boxcar width: 0
XAxis mode: Raman Shifts
Number of Pixels in Spectrum: 1044
>>>>>Begin Spectral Data<<<<<
160.701	15.5
166.742	45.5
172.777	143.5
178.805	454.5
184.826	1249.5
190.841	2673.5
196.849	4463.5
202.85	5835.5
208.845	6383.5
214.833	6352.5
220.815	6269.5
226.789	6247.5
232.758	6258.5
238.719	6228.5
244.674	6167.5
250.623	6133.5
256.565	6060.5
262.5	5910.5
268.429	5837.5
274.351	5803.5
280.267	5737.5
286.176	5744.5
292.079	5682.5
297.975	5678.5
303.865	5647.5
309.748	5621.5
315.625	5581.5
321.495	5583.5
327.359	5558.5
333.217	5554.5
339.068	5539.5
344.912	5588.5
350.751	5589.5
356.583	5605.5
362.408	5580.5
368.227	5570.5
374.04	5623.5
379.847	5618.5
385.647	5666.5
391.44	5683.5
397.228	5691.5
403.009	5715.5
408.784	5780.5
414.553	5769.5
420.315	5785.5
426.071	5805.5
431.821	5772.5
437.565	5783.5
443.302	5786.5
449.033	5786.5
454.758	5733.5
460.477	5690.5
466.189	5679.5
471.896	5666.5
477.596	5610.5
483.29	5586.5
488.978	5593.5
494.66	5573.5
500.335	5480.5
506.005	5394.5
511.668	5229.5
517.325	5106.5
522.977	4955.5
528.622	4903.5
534.261	4824.5
539.894	4791.5
545.521	4726.5
551.141	4728.5
556.756	4695.5
562.365	4647.5
567.968	4611.5
573.565	4608.5
579.155	4559.5
584.74	4574.5
590.319	4558.5
595.892	4512.5
601.459	4525.5
607.02	4498.5
612.575	4448.5
618.124	4436.5
623.667	4398.5
629.204	4343.5
634.735	4301.5
640.261	4303.5
645.781	4291.5
651.294	4236.5
656.802	4259.5
662.304	4229.5
667.8	4222.5
673.29	4232.5
678.775	4228.5
684.254	4201.5
689.726	4184.5
695.193	4170.5
700.655	4129.5
706.11	4111.5
711.56	4092.5
717.004	4055.5
722.442	4045.5
727.874	4044.5
733.301	4039.5
738.722	4007.5
744.137	3981.5
749.547	4003.5
754.951	4014.5
760.349	3971.5
765.741	3966.5
771.128	4017.5
776.509	4003.5
781.885	4019.5
787.254	4019.5
792.618	4038.5
797.977	4020.5
803.33	3988.5
808.677	3970.5
814.019	3956.5
819.355	3913.5
824.686	3886.5
830.011	3859.5
835.33	3878.5
840.644	3839.5
845.952	3838.5
851.255	3812.5
856.552	3832.5
861.844	3794.5
867.13	3795.5
872.41	3796.5
877.686	3761.5
882.955	3722.5
888.219	3700.5
893.478	3663.5
898.731	3611.5
903.979	3563.5
909.221	3525.5
914.458	3518.5
919.69	3505.5
924.916	3519.5
930.136	3522.5
935.351	3541.5
940.561	3504.5
945.766	3511.5
950.965	3502.5
956.158	3482.5
961.347	3438.5
966.529	3397.5
971.707	3346.5
976.879	3325.5
982.046	3284.5
987.208	3263.5
992.364	3278.5
997.515	3304.5
1002.66	3312.5
1007.801	3336.5
1012.936	3366.5
1018.066	3371.5
1023.19	3369.5
1028.309	3364.5
1033.423	3379.5
1038.532	3341.5
1043.636	3354.5
1048.734	3282.5
1053.827	3245.5
1058.915	3203.5
1063.998	3184.5
1069.075	3215.5
1074.147	3189.5
1079.214	3190.5
1084.276	3207.5
1089.333	3206.5
1094.385	3217.5
1099.431	3231.5
1104.472	3231.5
1109.509	3203.5
1114.54	3164.5
1119.565	3121.5
1124.586	3068.5
1129.602	3033.5
1134.613	3042.5
1139.618	2995.5
1144.619	3004.5
1149.614	2995.5
1154.604	3003.5
1159.589	3000.5
1164.57	2998.5
1169.545	3029.5
1174.515	3016.5
1179.48	3026.5
1184.44	2961.5
1189.395	2953.5
1194.345	2931.5
1199.29	2921.5
1204.23	2933.5
1209.165	2932.5
1214.095	2896.5
1219.021	2964.5
1223.941	2988.5
1228.856	2979.5
1233.766	2983.5
1238.672	3006.5
1243.572	2958.5
1248.467	2960.5
1253.358	2917.5
1258.244	2875.5
1263.124	2856.5
1268	2796.5
1272.871	2784.5
1277.737	2750.5
1282.599	2734.5
1287.455	2733.5
1292.306	2748.5
1297.153	2745.5
1301.995	2754.5
1306.832	2762.5
1311.664	2813.5
1316.491	2814.5
1321.314	2781.5
1326.132	2769.5
1330.945	2736.5
1335.753	2702.5
1340.556	2655.5
1345.354	2638.5
1350.148	2581.5
1354.937	2540.5
1359.722	2497.5
1364.501	2470.5
1369.276	2425.5
1374.046	2375.5
1378.811	2331.5
1383.572	2351.5
1388.327	2358.5
1393.079	2350.5
1397.825	2331.5
1402.567	2324.5
1407.304	2310.5
1412.036	2339.5
1416.764	2342.5
1421.487	2365.5
1426.205	2380.5
1430.919	2364.5
1435.628	2357.5
1440.333	2402.5
1445.032	2413.5
1449.727	2435.5
1454.418	2444.5
1459.104	2457.5
1463.785	2406.5
1468.462	2374.5
1473.134	2318.5
1477.802	2264.5
1482.465	2237.5
1487.123	2184.5
1491.777	2143.5
1496.426	2120.5
1501.071	2104.5
1505.711	2068.5
1510.347	2100.5
1514.978	2076.5
1519.604	2067.5
1524.226	2089.5
1528.844	2062.5
1533.457	2054.5
1538.065	2055.5
1542.669	2042.5
1547.269	2047.5
1551.864	2061.5
1556.454	2065.5
1561.041	2078.5
1565.622	2098.5
1570.199	2110.5
1574.772	2110.5
1579.34	2148.5
1583.904	2174.5
1588.464	2196.5
1593.019	2217.5
1597.569	2211.5
1602.115	2211.5
1606.657	2195.5
1611.195	2201.5
1615.728	2164.5
1620.256	2156.5
1624.78	2181.5
1629.3	2175.5
1633.816	2187.5
1638.327	2202.5
1642.834	2208.5
1647.336	2223.5
1651.834	2209.5
1656.328	2217.5
1660.817	2210.5
1665.302	2192.5
1669.783	2142.5
1674.259	2106.5
1678.732	2055.5
1683.199	1985.5
1687.663	1931.5
1692.122	1870.5
1696.577	1773.5
1701.028	1717.5
1705.474	1652.5
1709.917	1591.5
1714.355	1574.5
1718.788	1555.5
1723.218	1548.5
1727.643	1548.5
1732.064	1551.5
1736.481	1536.5
1740.893	1512.5
1745.301	1470.5
1749.705	1455.5
1754.105	1420.5
1758.501	1392.5
1762.893	1378.5
1767.28	1367.5
1771.663	1349.5
1776.042	1347.5
1780.417	1327.5
1784.787	1310.5
1789.154	1305.5
1793.516	1283.5
1797.874	1253.5
1802.228	1269.5
1806.578	1259.5
1810.924	1229.5
1815.266	1220.5
1819.603	1222.5
1823.937	1231.5
1828.266	1189.5
1832.591	1200.5
1836.913	1205.5
1841.23	1220.5
1845.543	1224.5
1849.852	1224.5
1854.156	1208.5
1858.457	1219.5
1862.754	1217.5
1867.047	1206.5
1871.335	1215.5
1875.62	1214.5
1879.9	1195.5
1884.177	1198.5
1888.449	1178.5
1892.718	1169.5
1896.982	1150.5
1901.243	1142.5
1905.499	1117.5
1909.752	1109.5
1914	1087.5
1918.245	1091.5
1922.485	1065.5
1926.722	1049.5
1930.954	1055.5
1935.183	1047.5
1939.408	1038.5
1943.628	1045.5
1947.845	1029.5
1952.058	1016.5
1956.267	1000.5
1960.472	994.5
1964.673	992.5
1968.87	969.5
1973.063	993.5
1977.252	978.5
1981.438	986.5
1985.619	971.5
1989.797	963.5
1993.971	972.5
1998.14	981.5
2002.306	987.5
2006.469	983.5
2010.627	993.5
2014.781	998.5
2018.932	996.5
2023.078	972.5
2027.221	976.5
2031.36	966.5
2035.495	950.5
2039.627	951.5
2043.754	919.5
2047.878	923.5
2051.998	911.5
2056.114	909.5
2060.226	907.5
2064.334	904.5
2068.439	896.5
2072.54	892.5
2076.637	889.5
2080.73	878.5
2084.82	882.5
2088.906	890.5
2092.988	881.5
2097.066	872.5
2101.14	842.5
2105.211	842.5
2109.278	832.5
2113.342	812.5
2117.401	809.5
2121.457	809.5
2125.509	811.5
2129.558	803.5
2133.602	809.5
2137.643	801.5
2141.681	798.5
2145.714	796.5
2149.744	799.5
2153.77	797.5
2157.793	789.5
2161.812	793.5
2165.827	769.5
2169.838	772.5
2173.846	744.5
2177.851	748.5
2181.851	735.5
2185.848	724.5
2189.841	726.5
2193.831	730.5
2197.817	722.5
2201.799	707.5
2205.778	711.5
2209.753	714.5
2213.725	707.5
2217.693	704.5
2221.657	697.5
2225.618	709.5
2229.575	701.5
2233.529	688.5
2237.479	699.5
2241.425	669.5
2245.368	653.5
2249.307	666.5
2253.243	648.5
2257.175	645.5
2261.104	620.5
2265.029	622.5
2268.95	612.5
2272.868	611.5
2276.783	598.5
2280.694	602.5
2284.601	586.5
2288.505	590.5
2292.405	568.5
2296.302	579.5
2300.195	566.5
2304.085	554.5
2307.971	535.5
2311.854	542.5
2315.734	520.5
2319.609	523.5
2323.482	519.5
2327.351	528.5
2331.216	527.5
2335.078	533.5
2338.937	509.5
2342.792	506.5
2346.643	503.5
2350.492	501.5
2354.336	499.5
2358.178	504.5
2362.015	490.5
2365.85	498.5
2369.681	502.5
2373.508	502.5
2377.333	494.5
2381.153	494.5
2384.971	502.5
2388.785	500.5
2392.595	494.5
2396.402	486.5
2400.206	472.5
2404.007	477.5
2407.804	474.5
2411.597	477.5
2415.388	469.5
2419.174	470.5
2422.958	473.5
2426.738	463.5
2430.515	460.5
2434.289	466.5
2438.059	448.5
2441.825	440.5
2445.589	448.5
2449.349	436.5
2453.106	433.5
2456.859	431.5
2460.61	423.5
2464.356	420.5
2468.1	409.5
2471.84	413.5
2475.577	413.5
2479.311	391.5
2483.041	405.5
2486.768	405.5
2490.492	386.5
2494.213	390.5
2497.93	386.5
2501.644	388.5
2505.355	383.5
2509.062	382.5
2512.766	383.5
2516.467	373.5
2520.165	363.5
2523.859	358.5
2527.551	354.5
2531.239	345.5
2534.923	345.5
2538.605	345.5
2542.283	342.5
2545.958	329.5
2549.63	338.5
2553.299	315.5
2556.964	334.5
2560.626	317.5
2564.285	315.5
2567.941	321.5
2571.594	319.5
2575.243	297.5
2578.89	301.5
2582.533	296.5
2586.173	293.5
2589.809	285.5
2593.443	294.5
2597.073	289.5
2600.701	273.5
2604.325	271.5
2607.946	288.5
2611.564	275.5
2615.178	274.5
2618.79	273.5
2622.398	268.5
2626.004	265.5
2629.606	270.5
2633.205	266.5
2636.801	259.5
2640.394	263.5
2643.983	254.5
2647.57	258.5
2651.153	249.5
2654.734	252.5
2658.311	236.5
2661.885	239.5
2665.456	250.5
2669.025	241.5
2672.589	231.5
2676.151	232.5
2679.71	238.5
2683.266	240.5
2686.819	230.5
2690.368	228.5
2693.915	215.5
2697.458	207.5
2700.999	216.5
2704.536	212.5
2708.071	195.5
2711.602	201.5
2715.13	199.5
2718.656	195.5
2722.178	196.5
2725.697	187.5
2729.214	180.5
2732.727	180.5
2736.237	191.5
2739.744	176.5
2743.249	172.5
2746.75	172.5
2750.248	170.5
2753.743	166.5
2757.236	162.5
2760.725	160.5
2764.211	154.5
2767.695	153.5
2771.175	145.5
2774.652	139.5
2778.127	149.5
2781.598	153.5
2785.067	149.5
2788.532	150.5
2791.995	147.5
2795.455	155.5
2798.911	146.5
2802.365	160.5
2805.816	158.5
2809.264	156.5
2812.709	157.5
2816.151	155.5
2819.59	154.5
2823.026	155.5
2826.46	141.5
2829.89	151.5
2833.318	154.5
2836.742	157.5
2840.164	149.5
2843.583	142.5
2846.999	154.5
2850.412	159.5
2853.822	163.5
2857.229	157.5
2860.634	167.5
2864.035	170.5
2867.434	179.5
2870.83	188.5
2874.223	199.5
2877.613	191.5
2881	215.5
2884.385	209.5
2887.766	196.5
2891.145	190.5
2894.521	196.5
2897.894	207.5
2901.264	202.5
2904.631	201.5
2907.996	209.5
2911.358	215.5
2914.717	215.5
2918.073	222.5
2921.426	227.5
2924.777	231.5
2928.124	237.5
2931.469	241.5
2934.811	247.5
2938.15	259.5
2941.487	267.5
2944.821	259.5
2948.152	262.5
2951.48	263.5
2954.805	273.5
2958.128	259.5
2961.447	253.5
2964.765	255.5
2968.079	258.5
2971.39	251.5
2974.699	263.5
2978.005	261.5
2981.308	264.5
2984.609	266.5
2987.907	260.5
2991.202	272.5
2994.494	272.5
2997.784	280.5
3001.07	271.5
3004.355	292.5
3007.636	287.5
3010.915	286.5
3014.191	282.5
3017.464	288.5
3020.734	291.5
3024.002	297.5
3027.267	314.5
3030.53	314.5
3033.789	316.5
3037.046	325.5
3040.301	331.5
3043.552	348.5
3046.801	356.5
3050.048	363.5
3053.291	378.5
3056.532	393.5
3059.771	415.5
3063.006	417.5
3066.239	429.5
3069.469	452.5
3072.697	449.5
3075.922	467.5
3079.144	479.5
3082.364	493.5
3085.581	501.5
3088.795	511.5
3092.007	514.5
3095.216	535.5
3098.423	544.5
3101.627	547.5
3104.828	569.5
3108.026	568.5
3111.222	590.5
3114.416	601.5
3117.607	608.5
3120.795	636.5
3123.98	626.5
3127.163	646.5
3130.344	672.5
3133.521	685.5
3136.696	714.5
3139.869	708.5
3143.039	719.5
3146.206	736.5
3149.371	746.5
3152.533	752.5
3155.693	759.5
3158.85	756.5
3162.005	764.5
3165.157	772.5
3168.306	769.5
3171.453	785.5
3174.597	785.5
3177.739	790.5
3180.878	792.5
3184.014	815.5
3187.149	804.5
3190.28	812.5
3193.409	811.5
3196.536	806.5
3199.659	816.5
3202.781	826.5
3205.9	818.5
3209.016	822.5
3212.13	812.5
3215.241	806.5
3218.35	795.5
3221.456	794.5
3224.56	791.5
3227.661	781.5
3230.76	772.5
3233.856	769.5
3236.95	746.5
3240.041	736.5
3243.13	734.5
3246.216	718.5
3249.3	701.5
3252.382	699.5
3255.46	702.5
3258.537	694.5
3261.611	700.5
3264.682	690.5
3267.751	673.5
3270.818	671.5
3273.882	672.5
3276.943	661.5
3280.002	658.5
3283.059	666.5
3286.113	644.5
3289.165	628.5
3292.214	631.5
3295.261	633.5
3298.306	623.5
3301.348	613.5
3304.387	596.5
3307.425	594.5
3310.459	595.5
3313.492	586.5
3316.521	571.5
3319.549	584.5
3322.574	574.5
3325.597	569.5
3328.617	563.5
3331.635	567.5
3334.65	552.5
3337.663	549.5
3340.674	556.5
3343.682	567.5
3346.688	550.5
3349.691	557.5
3352.692	541.5
3355.691	535.5
3358.687	523.5
3361.681	536.5
3364.673	520.5
3367.662	520.5
3370.649	514.5
3373.633	504.5
3376.615	489.5
3379.595	479.5
3382.572	479.5
3385.547	476.5
3388.52	470.5
3391.49	458.5
3394.458	452.5
3397.424	442.5
3400.387	432.5
3403.348	431.5
3406.307	417.5
3409.263	415.5
3412.217	413.5
3415.168	412.5
3418.118	406.5
3421.065	403.5
3424.009	397.5
3426.951	388.5
3429.891	376.5
3432.829	357.5
3435.764	359.5
3438.697	342.5
3441.628	337.5
3444.557	325.5
3447.483	309.5
3450.407	301.5
3453.328	285.5
3456.247	279.5
3459.164	265.5
3462.079	255.5
3464.991	245.5
3467.902	229.5
3470.809	232.5
3473.715	218.5
3476.618	201.5
3479.519	205.5
3482.418	190.5
3485.315	183.5
3488.209	169.5
3491.101	162.5
3493.99	162.5
3496.878	158.5
3499.763	142.5
3502.646	132.5
3505.527	131.5
3508.405	125.5
3511.281	112.5
3514.155	105.5
3517.027	92.5
3519.897	85.5
3522.764	79.5
3525.629	71.5
3528.492	58.5
3531.352	56.5
3534.211	42.5
3537.067	31.5
3539.921	43.5
3542.773	28.5
3545.622	14.5
3548.469	12.5
3551.315	6.5
3554.157	-5.5
3556.998	-11.5
3559.837	-13.5
3562.673	-16.5
3565.507	-12.5
3568.339	-24.5
3571.169	-31.5
3573.996	-29.5
3576.822	-34.5
3579.645	-38.5
3582.466	-42.5
3585.285	-46.5
3588.101	-38.5
3590.916	-60.5
3593.728	-67.5
3596.538	-62.5
3599.346	-67.5
3602.152	-64.5
3604.956	-75.5
3607.757	-67.5
3610.556	-72.5
3613.354	-77.5
3616.149	-87.5
3618.942	-87.5
3621.732	-87.5
3624.521	-82.5
3627.307	-100.5
3630.092	-90.5
3632.874	-86.5
3635.654	-96.5
3638.432	-92.5
3641.208	-99.5
3643.982	-103.5
3646.753	-105.5
3649.523	-114.5
3652.29	-105.5
3655.055	-110.5
3657.818	-107.5
3660.579	-109.5
3663.338	-114.5
3666.095	-120.5
3668.849	-118.5
3671.602	-125.5
3674.352	-123.5
3677.101	-117.5
3679.847	-123.5
3682.591	-128.5
3685.333	-123.5
3688.073	-127.5
3690.811	-128.5
3693.547	-137.5
3696.281	-138.5
3699.013	-136.5
3701.742	-138.5
3704.47	-133.5
3707.195	-135.5
3709.919	-137.5
3712.64	-143.5
3715.359	-144.5
3718.076	-144.5
3720.792	-146.5
3723.505	-148.5
3726.216	-136.5
3728.925	-146.5
3731.632	-140.5
3734.336	-152.5
3737.039	-143.5
3739.74	-152.5
3742.439	-155.5
3745.136	-146.5
3747.83	-149.5
3750.523	-152.5
3753.213	-154.5
3755.902	-145.5
3758.589	-153.5
3761.273	-145.5
3763.956	-142.5
3766.636	-146.5
3769.315	-147.5
3771.991	-149.5
3774.665	-153.5
3777.338	-144.5
3780.008	-148.5
3782.677	-155.5
3785.343	-153.5
3788.007	-157.5
3790.67	-155.5
3793.33	-145.5
3795.989	-154.5
3798.645	-149.5
3801.299	-158.5
3803.952	-162.5
3806.602	-148.5
3809.251	-157.5
3811.897	-158.5
3814.542	-160.5
3817.184	-152.5
3819.825	-151.5
3822.463	-156.5
3825.1	-157.5
3827.735	-154.5
3830.367	-159.5
3832.998	-154.5
3835.627	-154.5
3838.253	-156.5
3840.878	-156.5
3843.501	-153.5
3846.122	-159.5
3848.741	-162.5
3851.358	-157.5
3853.973	-156.5
3856.586	-153.5
3859.197	-160.5
3861.806	-153.5
3864.414	-159.5
3867.019	-153.5
3869.622	-158.5
3872.224	-145.5
3874.823	-133.5
3877.421	-121.5
3880.016	-100.5
3882.61	-73.5
3885.202	-68.5
3887.792	-88.5
3890.38	-120.5
3892.966	-149.5
3895.55	-144.5
3898.132	-151.5
3900.713	-158.5
3903.291	-155.5
3905.868	-158.5
3908.442	-153.5
3911.015	-159.5
3913.586	-161.5
3916.155	-159.5
3918.722	-161.5
3921.287	-156.5
3923.85	-155.5
3926.411	-166.5
3928.971	-164.5
3931.528	-160.5
3934.084	-160.5
3936.638	-153.5
3939.19	-162.5
3941.74	-162.5
3944.288	-163.5
3946.834	-161.5
3949.378	-161.5
3951.921	-162.5
3954.462	-168.5
3957	-156.5
3959.537	-156.5
3962.072	-162.5
3964.606	-157.5
3967.137	-156.5
3969.667	-161.5
3972.194	-165.5
3974.72	-163.5
3977.244	-155.5
3979.766	-161.5
3982.286	-152.5
3984.805	-159.5
3987.321	-160.5
3989.836	-150.5
3992.349	-161.5
3994.86	-154.5
3997.369	-161.5
3999.877	-158.5
4002.382	-153.5
4004.886	-161.5
4007.388	-155.5
4009.888	-159.5
4012.386	-161.5
4014.883	-158.5
4017.377	-153.5
4019.87	-157.5
4022.361	-162.5
4024.85	-159.5
4027.338	-159.5
4029.823	-157.5
4032.307	-156.5
4034.789	-161.5
4037.269	-158.5
4039.747	-152.5
4042.224	-153.5
4044.699	-160.5
4047.172	-158.5
4049.643	-156.5
4052.112	-158.5
4054.58	-157.5
4057.046	-155.5
4059.51	-154.5
4061.972	-156.5
4064.432	-157.5
4066.891	-158.5
4069.348	-156.5
4071.803	-157.5
4074.256	-159.5
4076.708	-152.5
4079.158	-155.5
4081.606	-154.5
4084.052	-162.5
4086.497	-159.5
4088.939	-153.5
4091.38	-153.5
4093.819	-153.5
4096.257	-167.5
4098.693	-164.5
4101.127	-163.5
4103.559	-159.5
4105.989	-2.5
4108.418	-18.5
4110.845	-10.5
4113.27	-8.5
4115.694	-11.5
4118.115	-9.5
4120.535	-158.5
4122.954	-158.5
4125.37	-152.5
4127.785	-158.5
4130.198	-155.5
4132.609	-156.5
4135.019	-166.5
4137.427	-164.5
4139.833	-163.5
4142.237	-164.5
