Data from 2018-2-8_conc=4_n=8_RamanShift_03.txt Node
Date: Mon Mar 12 15:32:58 IST 2018
User: aro
Spectrometer: QEPB0276
Trigger mode: 0
Integration Time (sec): 3.000000E1
Scans to average: 1
Electric dark correction enabled: true
Nonlinearity correction enabled: false
Boxcar width: 0
XAxis mode: Raman Shifts
Number of Pixels in Spectrum: 1044
>>>>>Begin Spectral Data<<<<<
160.701	18.1
166.742	57.1
172.777	136.1
178.805	418.1
184.826	1154.1
190.841	2476.1
196.849	4125.1
202.85	5396.1
208.845	5877.1
214.833	5901.1
220.815	5816.1
226.789	5803.1
232.758	5806.1
238.719	5805.1
244.674	5750.1
250.623	5673.1
256.565	5607.1
262.5	5517.1
268.429	5478.1
274.351	5410.1
280.267	5349.1
286.176	5319.1
292.079	5342.1
297.975	5274.1
303.865	5254.1
309.748	5245.1
315.625	5222.1
321.495	5219.1
327.359	5195.1
333.217	5216.1
339.068	5185.1
344.912	5254.1
350.751	5211.1
356.583	5243.1
362.408	5240.1
368.227	5242.1
374.04	5274.1
379.847	5289.1
385.647	5282.1
391.44	5331.1
397.228	5351.1
403.009	5398.1
408.784	5429.1
414.553	5421.1
420.315	5422.1
426.071	5432.1
431.821	5443.1
437.565	5418.1
443.302	5411.1
449.033	5380.1
454.758	5380.1
460.477	5361.1
466.189	5340.1
471.896	5313.1
477.596	5270.1
483.29	5224.1
488.978	5243.1
494.66	5254.1
500.335	5151.1
506.005	5074.1
511.668	4921.1
517.325	4770.1
522.977	4672.1
528.622	4551.1
534.261	4507.1
539.894	4479.1
545.521	4431.1
551.141	4413.1
556.756	4368.1
562.365	4329.1
567.968	4303.1
573.565	4276.1
579.155	4274.1
584.74	4263.1
590.319	4253.1
595.892	4242.1
601.459	4210.1
607.02	4198.1
612.575	4188.1
618.124	4151.1
623.667	4090.1
629.204	4058.1
634.735	4026.1
640.261	4007.1
645.781	3978.1
651.294	3990.1
656.802	3974.1
662.304	3940.1
667.8	3947.1
673.29	3953.1
678.775	3914.1
684.254	3911.1
689.726	3902.1
695.193	3882.1
700.655	3883.1
706.11	3842.1
711.56	3824.1
717.004	3795.1
722.442	3783.1
727.874	3767.1
733.301	3772.1
738.722	3742.1
744.137	3724.1
749.547	3703.1
754.951	3715.1
760.349	3722.1
765.741	3742.1
771.128	3737.1
776.509	3754.1
781.885	3790.1
787.254	3798.1
792.618	3789.1
797.977	3762.1
803.33	3735.1
808.677	3692.1
814.019	3705.1
819.355	3651.1
824.686	3632.1
830.011	3591.1
835.33	3598.1
840.644	3603.1
845.952	3610.1
851.255	3589.1
856.552	3583.1
861.844	3579.1
867.13	3565.1
872.41	3512.1
877.686	3511.1
882.955	3475.1
888.219	3441.1
893.478	3434.1
898.731	3364.1
903.979	3318.1
909.221	3277.1
914.458	3295.1
919.69	3271.1
924.916	3292.1
930.136	3287.1
935.351	3287.1
940.561	3304.1
945.766	3278.1
950.965	3266.1
956.158	3250.1
961.347	3212.1
966.529	3171.1
971.707	3132.1
976.879	3100.1
982.046	3064.1
987.208	3050.1
992.364	3060.1
997.515	3051.1
1002.66	3105.1
1007.801	3111.1
1012.936	3141.1
1018.066	3140.1
1023.19	3152.1
1028.309	3147.1
1033.423	3138.1
1038.532	3129.1
1043.636	3097.1
1048.734	3074.1
1053.827	3030.1
1058.915	2990.1
1063.998	2979.1
1069.075	2971.1
1074.147	2974.1
1079.214	2970.1
1084.276	2975.1
1089.333	2999.1
1094.385	3019.1
1099.431	3029.1
1104.472	3023.1
1109.509	3004.1
1114.54	2953.1
1119.565	2899.1
1124.586	2871.1
1129.602	2846.1
1134.613	2828.1
1139.618	2797.1
1144.619	2777.1
1149.614	2786.1
1154.604	2814.1
1159.589	2827.1
1164.57	2809.1
1169.545	2830.1
1174.515	2820.1
1179.48	2796.1
1184.44	2811.1
1189.395	2765.1
1194.345	2743.1
1199.29	2702.1
1204.23	2721.1
1209.165	2745.1
1214.095	2748.1
1219.021	2760.1
1223.941	2799.1
1228.856	2786.1
1233.766	2767.1
1238.672	2797.1
1243.572	2785.1
1248.467	2772.1
1253.358	2741.1
1258.244	2711.1
1263.124	2659.1
1268	2619.1
1272.871	2589.1
1277.737	2573.1
1282.599	2571.1
1287.455	2557.1
1292.306	2548.1
1297.153	2551.1
1301.995	2587.1
1306.832	2578.1
1311.664	2603.1
1316.491	2621.1
1321.314	2603.1
1326.132	2598.1
1330.945	2560.1
1335.753	2513.1
1340.556	2487.1
1345.354	2457.1
1350.148	2411.1
1354.937	2401.1
1359.722	2359.1
1364.501	2312.1
1369.276	2280.1
1374.046	2231.1
1378.811	2195.1
1383.572	2192.1
1388.327	2208.1
1393.079	2177.1
1397.825	2178.1
1402.567	2178.1
1407.304	2182.1
1412.036	2210.1
1416.764	2198.1
1421.487	2181.1
1426.205	2202.1
1430.919	2222.1
1435.628	2212.1
1440.333	2214.1
1445.032	2254.1
1449.727	2276.1
1454.418	2284.1
1459.104	2295.1
1463.785	2250.1
1468.462	2216.1
1473.134	2161.1
1477.802	2131.1
1482.465	2107.1
1487.123	2058.1
1491.777	2020.1
1496.426	2014.1
1501.071	1984.1
1505.711	1958.1
1510.347	1982.1
1514.978	1969.1
1519.604	1945.1
1524.226	1944.1
1528.844	1946.1
1533.457	1938.1
1538.065	1932.1
1542.669	1898.1
1547.269	1909.1
1551.864	1942.1
1556.454	1934.1
1561.041	1942.1
1565.622	1982.1
1570.199	1979.1
1574.772	1990.1
1579.34	2016.1
1583.904	2036.1
1588.464	2046.1
1593.019	2037.1
1597.569	2056.1
1602.115	2069.1
1606.657	2052.1
1611.195	2043.1
1615.728	2037.1
1620.256	2038.1
1624.78	2044.1
1629.3	2030.1
1633.816	2035.1
1638.327	2069.1
1642.834	2075.1
1647.336	2072.1
1651.834	2074.1
1656.328	2081.1
1660.817	2068.1
1665.302	2058.1
1669.783	2014.1
1674.259	1974.1
1678.732	1930.1
1683.199	1860.1
1687.663	1817.1
1692.122	1756.1
1696.577	1689.1
1701.028	1609.1
1705.474	1579.1
1709.917	1525.1
1714.355	1495.1
1718.788	1495.1
1723.218	1480.1
1727.643	1472.1
1732.064	1473.1
1736.481	1472.1
1740.893	1422.1
1745.301	1385.1
1749.705	1366.1
1754.105	1358.1
1758.501	1338.1
1762.893	1323.1
1767.28	1290.1
1771.663	1287.1
1776.042	1269.1
1780.417	1260.1
1784.787	1241.1
1789.154	1232.1
1793.516	1231.1
1797.874	1196.1
1802.228	1188.1
1806.578	1171.1
1810.924	1157.1
1815.266	1146.1
1819.603	1143.1
1823.937	1141.1
1828.266	1143.1
1832.591	1148.1
1836.913	1139.1
1841.23	1131.1
1845.543	1142.1
1849.852	1145.1
1854.156	1154.1
1858.457	1141.1
1862.754	1154.1
1867.047	1152.1
1871.335	1150.1
1875.62	1135.1
1879.9	1158.1
1884.177	1150.1
1888.449	1126.1
1892.718	1108.1
1896.982	1110.1
1901.243	1074.1
1905.499	1069.1
1909.752	1059.1
1914	1028.1
1918.245	1035.1
1922.485	1019.1
1926.722	1024.1
1930.954	1009.1
1935.183	1010.1
1939.408	989.1
1943.628	986.1
1947.845	970.1
1952.058	978.1
1956.267	973.1
1960.472	970.1
1964.673	942.1
1968.87	941.1
1973.063	936.1
1977.252	912.1
1981.438	931.1
1985.619	921.1
1989.797	916.1
1993.971	938.1
1998.14	939.1
2002.306	919.1
2006.469	929.1
2010.627	932.1
2014.781	938.1
2018.932	925.1
2023.078	954.1
2027.221	932.1
2031.36	923.1
2035.495	903.1
2039.627	889.1
2043.754	880.1
2047.878	868.1
2051.998	873.1
2056.114	863.1
2060.226	880.1
2064.334	853.1
2068.439	866.1
2072.54	852.1
2076.637	857.1
2080.73	838.1
2084.82	830.1
2088.906	834.1
2092.988	831.1
2097.066	816.1
2101.14	822.1
2105.211	803.1
2109.278	792.1
2113.342	779.1
2117.401	771.1
2121.457	780.1
2125.509	753.1
2129.558	774.1
2133.602	767.1
2137.643	761.1
2141.681	761.1
2145.714	758.1
2149.744	759.1
2153.77	757.1
2157.793	750.1
2161.812	737.1
2165.827	730.1
2169.838	719.1
2173.846	713.1
2177.851	693.1
2181.851	699.1
2185.848	688.1
2189.841	691.1
2193.831	686.1
2197.817	672.1
2201.799	672.1
2205.778	659.1
2209.753	670.1
2213.725	659.1
2217.693	659.1
2221.657	676.1
2225.618	658.1
2229.575	663.1
2233.529	644.1
2237.479	648.1
2241.425	635.1
2245.368	629.1
2249.307	629.1
2253.243	615.1
2257.175	603.1
2261.104	593.1
2265.029	581.1
2268.95	587.1
2272.868	566.1
2276.783	568.1
2280.694	559.1
2284.601	546.1
2288.505	549.1
2292.405	544.1
2296.302	537.1
2300.195	521.1
2304.085	516.1
2307.971	507.1
2311.854	508.1
2315.734	494.1
2319.609	486.1
2323.482	498.1
2327.351	481.1
2331.216	497.1
2335.078	501.1
2338.937	485.1
2342.792	474.1
2346.643	465.1
2350.492	468.1
2354.336	461.1
2358.178	462.1
2362.015	472.1
2365.85	476.1
2369.681	474.1
2373.508	473.1
2377.333	466.1
2381.153	461.1
2384.971	474.1
2388.785	459.1
2392.595	452.1
2396.402	458.1
2400.206	453.1
2404.007	452.1
2407.804	443.1
2411.597	447.1
2415.388	441.1
2419.174	440.1
2422.958	429.1
2426.738	438.1
2430.515	438.1
2434.289	432.1
2438.059	426.1
2441.825	420.1
2445.589	420.1
2449.349	419.1
2453.106	406.1
2456.859	402.1
2460.61	415.1
2464.356	400.1
2468.1	383.1
2471.84	377.1
2475.577	372.1
2479.311	372.1
2483.041	368.1
2486.768	381.1
2490.492	362.1
2494.213	370.1
2497.93	364.1
2501.644	367.1
2505.355	357.1
2509.062	362.1
2512.766	359.1
2516.467	345.1
2520.165	342.1
2523.859	344.1
2527.551	341.1
2531.239	317.1
2534.923	324.1
2538.605	320.1
2542.283	314.1
2545.958	300.1
2549.63	317.1
2553.299	312.1
2556.964	315.1
2560.626	300.1
2564.285	301.1
2567.941	301.1
2571.594	289.1
2575.243	291.1
2578.89	291.1
2582.533	276.1
2586.173	276.1
2589.809	266.1
2593.443	266.1
2597.073	264.1
2600.701	262.1
2604.325	266.1
2607.946	266.1
2611.564	263.1
2615.178	262.1
2618.79	262.1
2622.398	258.1
2626.004	258.1
2629.606	253.1
2633.205	240.1
2636.801	236.1
2640.394	240.1
2643.983	240.1
2647.57	244.1
2651.153	237.1
2654.734	236.1
2658.311	224.1
2661.885	224.1
2665.456	228.1
2669.025	224.1
2672.589	217.1
2676.151	221.1
2679.71	218.1
2683.266	211.1
2686.819	212.1
2690.368	196.1
2693.915	203.1
2697.458	198.1
2700.999	200.1
2704.536	202.1
2708.071	193.1
2711.602	189.1
2715.13	189.1
2718.656	182.1
2722.178	175.1
2725.697	163.1
2729.214	171.1
2732.727	183.1
2736.237	175.1
2739.744	168.1
2743.249	172.1
2746.75	162.1
2750.248	159.1
2753.743	151.1
2757.236	161.1
2760.725	154.1
2764.211	144.1
2767.695	142.1
2771.175	135.1
2774.652	129.1
2778.127	133.1
2781.598	132.1
2785.067	139.1
2788.532	148.1
2791.995	142.1
2795.455	141.1
2798.911	144.1
2802.365	150.1
2805.816	141.1
2809.264	142.1
2812.709	142.1
2816.151	144.1
2819.59	147.1
2823.026	151.1
2826.46	134.1
2829.89	146.1
2833.318	142.1
2836.742	147.1
2840.164	140.1
2843.583	142.1
2846.999	149.1
2850.412	148.1
2853.822	154.1
2857.229	147.1
2860.634	160.1
2864.035	162.1
2867.434	163.1
2870.83	173.1
2874.223	185.1
2877.613	181.1
2881	196.1
2884.385	187.1
2887.766	185.1
2891.145	184.1
2894.521	186.1
2897.894	192.1
2901.264	198.1
2904.631	198.1
2907.996	193.1
2911.358	196.1
2914.717	202.1
2918.073	204.1
2921.426	212.1
2924.777	229.1
2928.124	225.1
2931.469	226.1
2934.811	241.1
2938.15	233.1
2941.487	230.1
2944.821	231.1
2948.152	246.1
2951.48	243.1
2954.805	242.1
2958.128	232.1
2961.447	231.1
2964.765	232.1
2968.079	228.1
2971.39	237.1
2974.699	245.1
2978.005	243.1
2981.308	244.1
2984.609	243.1
2987.907	238.1
2991.202	243.1
2994.494	241.1
2997.784	243.1
3001.07	244.1
3004.355	261.1
3007.636	256.1
3010.915	264.1
3014.191	272.1
3017.464	274.1
3020.734	276.1
3024.002	277.1
3027.267	276.1
3030.53	291.1
3033.789	291.1
3037.046	308.1
3040.301	309.1
3043.552	318.1
3046.801	329.1
3050.048	337.1
3053.291	338.1
3056.532	353.1
3059.771	371.1
3063.006	383.1
3066.239	393.1
3069.469	410.1
3072.697	421.1
3075.922	428.1
3079.144	432.1
3082.364	451.1
3085.581	476.1
3088.795	463.1
3092.007	472.1
3095.216	499.1
3098.423	509.1
3101.627	506.1
3104.828	524.1
3108.026	526.1
3111.222	555.1
3114.416	564.1
3117.607	567.1
3120.795	587.1
3123.98	588.1
3127.163	608.1
3130.344	623.1
3133.521	630.1
3136.696	640.1
3139.869	657.1
3143.039	662.1
3146.206	676.1
3149.371	690.1
3152.533	692.1
3155.693	702.1
3158.85	707.1
3162.005	722.1
3165.157	725.1
3168.306	736.1
3171.453	708.1
3174.597	733.1
3177.739	729.1
3180.878	737.1
3184.014	742.1
3187.149	744.1
3190.28	741.1
3193.409	760.1
3196.536	746.1
3199.659	756.1
3202.781	755.1
3205.9	748.1
3209.016	757.1
3212.13	757.1
3215.241	757.1
3218.35	745.1
3221.456	744.1
3224.56	737.1
3227.661	722.1
3230.76	714.1
3233.856	705.1
3236.95	688.1
3240.041	682.1
3243.13	674.1
3246.216	657.1
3249.3	649.1
3252.382	639.1
3255.46	640.1
3258.537	638.1
3261.611	631.1
3264.682	614.1
3267.751	617.1
3270.818	604.1
3273.882	609.1
3276.943	606.1
3280.002	600.1
3283.059	601.1
3286.113	591.1
3289.165	594.1
3292.214	582.1
3295.261	573.1
3298.306	566.1
3301.348	561.1
3304.387	555.1
3307.425	534.1
3310.459	542.1
3313.492	534.1
3316.521	527.1
3319.549	517.1
3322.574	526.1
3325.597	527.1
3328.617	514.1
3331.635	511.1
3334.65	513.1
3337.663	514.1
3340.674	519.1
3343.682	518.1
3346.688	510.1
3349.691	516.1
3352.692	497.1
3355.691	502.1
3358.687	492.1
3361.681	489.1
3364.673	498.1
3367.662	485.1
3370.649	468.1
3373.633	468.1
3376.615	447.1
3379.595	434.1
3382.572	438.1
3385.547	441.1
3388.52	437.1
3391.49	426.1
3394.458	415.1
3397.424	408.1
3400.387	393.1
3403.348	401.1
3406.307	393.1
3409.263	394.1
3412.217	375.1
3415.168	378.1
3418.118	381.1
3421.065	355.1
3424.009	360.1
3426.951	352.1
3429.891	334.1
3432.829	334.1
3435.764	323.1
3438.697	312.1
3441.628	314.1
3444.557	299.1
3447.483	286.1
3450.407	282.1
3453.328	263.1
3456.247	257.1
3459.164	243.1
3462.079	230.1
3464.991	228.1
3467.902	220.1
3470.809	212.1
3473.715	201.1
3476.618	189.1
3479.519	185.1
3482.418	169.1
3485.315	166.1
3488.209	157.1
3491.101	162.1
3493.99	149.1
3496.878	140.1
3499.763	133.1
3502.646	122.1
3505.527	107.1
3508.405	111.1
3511.281	102.1
3514.155	98.1
3517.027	88.1
3519.897	73.1
3522.764	59.1
3525.629	55.1
3528.492	49.1
3531.352	43.1
3534.211	35.1
3537.067	36.1
3539.921	23.1
3542.773	20.1
3545.622	7.1
3548.469	-2.9
3551.315	4.1
3554.157	-4.9
3556.998	-12.9
3559.837	-13.9
3562.673	-19.9
3565.507	-22.9
3568.339	-28.9
3571.169	-35.9
3573.996	-28.9
3576.822	-30.9
3579.645	-36.9
3582.466	-41.9
3585.285	-51.9
3588.101	-40.9
3590.916	-57.9
3593.728	-67.9
3596.538	-65.9
3599.346	-64.9
3602.152	-62.9
3604.956	-65.9
3607.757	-64.9
3610.556	-78.9
3613.354	-74.9
3616.149	-85.9
3618.942	-92.9
3621.732	-89.9
3624.521	-85.9
3627.307	-84.9
3630.092	-87.9
3632.874	-89.9
3635.654	-97.9
3638.432	-90.9
3641.208	-102.9
3643.982	-98.9
3646.753	-108.9
3649.523	-102.9
3652.29	-98.9
3655.055	-108.9
3657.818	-105.9
3660.579	-110.9
3663.338	-109.9
3666.095	-115.9
3668.849	-118.9
3671.602	-120.9
3674.352	-121.9
3677.101	-122.9
3679.847	-122.9
3682.591	-125.9
3685.333	-122.9
3688.073	-123.9
3690.811	-122.9
3693.547	-137.9
3696.281	-128.9
3699.013	-128.9
3701.742	-137.9
3704.47	-130.9
3707.195	-125.9
3709.919	-130.9
3712.64	-127.9
3715.359	-142.9
3718.076	-137.9
3720.792	-135.9
3723.505	-142.9
3726.216	-135.9
3728.925	-137.9
3731.632	-136.9
3734.336	-148.9
3737.039	-139.9
3739.74	-147.9
3742.439	-146.9
3745.136	-137.9
3747.83	-144.9
3750.523	-143.9
3753.213	-134.9
3755.902	-141.9
3758.589	-148.9
3761.273	-143.9
3763.956	-141.9
3766.636	-138.9
3769.315	-138.9
3771.991	-141.9
3774.665	-151.9
3777.338	-142.9
3780.008	-147.9
3782.677	-143.9
3785.343	-140.9
3788.007	-147.9
3790.67	-145.9
3793.33	-147.9
3795.989	-148.9
3798.645	-144.9
3801.299	-146.9
3803.952	-151.9
3806.602	-145.9
3809.251	-151.9
3811.897	-149.9
3814.542	-149.9
3817.184	-146.9
3819.825	-148.9
3822.463	-145.9
3825.1	-144.9
3827.735	-147.9
3830.367	-153.9
3832.998	-150.9
3835.627	-151.9
3838.253	-145.9
3840.878	-149.9
3843.501	-143.9
3846.122	-148.9
3848.741	-150.9
3851.358	-145.9
3853.973	-156.9
3856.586	-150.9
3859.197	-154.9
3861.806	-145.9
3864.414	-147.9
3867.019	-145.9
3869.622	-149.9
3872.224	-139.9
3874.823	-132.9
3877.421	-114.9
3880.016	-90.9
3882.61	-66.9
3885.202	-71.9
3887.792	-87.9
3890.38	-111.9
3892.966	-137.9
3895.55	-143.9
3898.132	-149.9
3900.713	-152.9
3903.291	-151.9
3905.868	-153.9
3908.442	-148.9
3911.015	-153.9
3913.586	-154.9
3916.155	-153.9
3918.722	-158.9
3921.287	-153.9
3923.85	-155.9
3926.411	-153.9
3928.971	-150.9
3931.528	-150.9
3934.084	-152.9
3936.638	-148.9
3939.19	-157.9
3941.74	-157.9
3944.288	-155.9
3946.834	-153.9
3949.378	-150.9
3951.921	-146.9
3954.462	-158.9
3957	-155.9
3959.537	-145.9
3962.072	-153.9
3964.606	-152.9
3967.137	-153.9
3969.667	-152.9
3972.194	-149.9
3974.72	-153.9
3977.244	-152.9
3979.766	-153.9
3982.286	-147.9
3984.805	-154.9
3987.321	-150.9
3989.836	-146.9
3992.349	-152.9
3994.86	-149.9
3997.369	-153.9
3999.877	-153.9
4002.382	-145.9
4004.886	-156.9
4007.388	-148.9
4009.888	-147.9
4012.386	-147.9
4014.883	-148.9
4017.377	-150.9
4019.87	-147.9
4022.361	-148.9
4024.85	-155.9
4027.338	-151.9
4029.823	-145.9
4032.307	-148.9
4034.789	-153.9
4037.269	-150.9
4039.747	-148.9
4042.224	-143.9
4044.699	-152.9
4047.172	-147.9
4049.643	-148.9
4052.112	-148.9
4054.58	-148.9
4057.046	-147.9
4059.51	-154.9
4061.972	-152.9
4064.432	-152.9
4066.891	-152.9
4069.348	-146.9
4071.803	-154.9
4074.256	-146.9
4076.708	-143.9
4079.158	-146.9
4081.606	-141.9
4084.052	-155.9
4086.497	-152.9
4088.939	-146.9
4091.38	-148.9
4093.819	-149.9
4096.257	-160.9
4098.693	-155.9
4101.127	-153.9
4103.559	-152.9
4105.989	4.1
4108.418	4.1
4110.845	3.1
4113.27	-5.9
4115.694	-8.9
4118.115	-7.9
4120.535	-149.9
4122.954	-152.9
4125.37	-147.9
4127.785	-153.9
4130.198	-152.9
4132.609	-153.9
4135.019	-157.9
4137.427	-159.9
4139.833	-153.9
4142.237	-157.9
