Data from 2018-2-8_conc=5_n=6_RamanShift_03.txt Node
Date: Mon Mar 12 16:08:28 IST 2018
User: aro
Spectrometer: QEPB0276
Trigger mode: 0
Integration Time (sec): 3.000000E1
Scans to average: 1
Electric dark correction enabled: true
Nonlinearity correction enabled: false
Boxcar width: 0
XAxis mode: Raman Shifts
Number of Pixels in Spectrum: 1044
>>>>>Begin Spectral Data<<<<<
160.701	13.2
166.742	43.2
172.777	117.2
178.805	356.2
184.826	964.2
190.841	2061.2
196.849	3430.2
202.85	4483.2
208.845	4903.2
214.833	4899.2
220.815	4855.2
226.789	4804.2
232.758	4865.2
238.719	4859.2
244.674	4817.2
250.623	4789.2
256.565	4714.2
262.5	4649.2
268.429	4607.2
274.351	4563.2
280.267	4536.2
286.176	4519.2
292.079	4486.2
297.975	4483.2
303.865	4463.2
309.748	4461.2
315.625	4468.2
321.495	4403.2
327.359	4435.2
333.217	4446.2
339.068	4446.2
344.912	4456.2
350.751	4458.2
356.583	4441.2
362.408	4481.2
368.227	4504.2
374.04	4518.2
379.847	4509.2
385.647	4525.2
391.44	4554.2
397.228	4567.2
403.009	4608.2
408.784	4618.2
414.553	4629.2
420.315	4638.2
426.071	4645.2
431.821	4654.2
437.565	4640.2
443.302	4623.2
449.033	4622.2
454.758	4582.2
460.477	4570.2
466.189	4551.2
471.896	4511.2
477.596	4504.2
483.29	4484.2
488.978	4455.2
494.66	4444.2
500.335	4384.2
506.005	4265.2
511.668	4134.2
517.325	3993.2
522.977	3880.2
528.622	3793.2
534.261	3746.2
539.894	3709.2
545.521	3662.2
551.141	3641.2
556.756	3598.2
562.365	3586.2
567.968	3542.2
573.565	3549.2
579.155	3498.2
584.74	3513.2
590.319	3487.2
595.892	3491.2
601.459	3483.2
607.02	3466.2
612.575	3451.2
618.124	3410.2
623.667	3364.2
629.204	3349.2
634.735	3297.2
640.261	3279.2
645.781	3299.2
651.294	3273.2
656.802	3248.2
662.304	3258.2
667.8	3217.2
673.29	3231.2
678.775	3231.2
684.254	3217.2
689.726	3228.2
695.193	3203.2
700.655	3174.2
706.11	3156.2
711.56	3130.2
717.004	3119.2
722.442	3067.2
727.874	3108.2
733.301	3064.2
738.722	3087.2
744.137	3064.2
749.547	3062.2
754.951	3045.2
760.349	3052.2
765.741	3041.2
771.128	3071.2
776.509	3084.2
781.885	3132.2
787.254	3115.2
792.618	3121.2
797.977	3124.2
803.33	3109.2
808.677	3059.2
814.019	3026.2
819.355	3040.2
824.686	3009.2
830.011	2988.2
835.33	2978.2
840.644	2964.2
845.952	2961.2
851.255	2951.2
856.552	2942.2
861.844	2920.2
867.13	2897.2
872.41	2871.2
877.686	2869.2
882.955	2852.2
888.219	2820.2
893.478	2793.2
898.731	2768.2
903.979	2724.2
909.221	2690.2
914.458	2690.2
919.69	2701.2
924.916	2693.2
930.136	2687.2
935.351	2689.2
940.561	2674.2
945.766	2694.2
950.965	2679.2
956.158	2636.2
961.347	2627.2
966.529	2595.2
971.707	2565.2
976.879	2539.2
982.046	2511.2
987.208	2474.2
992.364	2510.2
997.515	2510.2
1002.66	2504.2
1007.801	2567.2
1012.936	2574.2
1018.066	2573.2
1023.19	2568.2
1028.309	2569.2
1033.423	2587.2
1038.532	2578.2
1043.636	2539.2
1048.734	2510.2
1053.827	2511.2
1058.915	2469.2
1063.998	2441.2
1069.075	2451.2
1074.147	2442.2
1079.214	2451.2
1084.276	2452.2
1089.333	2472.2
1094.385	2465.2
1099.431	2466.2
1104.472	2459.2
1109.509	2453.2
1114.54	2427.2
1119.565	2395.2
1124.586	2375.2
1129.602	2321.2
1134.613	2314.2
1139.618	2283.2
1144.619	2290.2
1149.614	2275.2
1154.604	2297.2
1159.589	2296.2
1164.57	2324.2
1169.545	2322.2
1174.515	2314.2
1179.48	2298.2
1184.44	2297.2
1189.395	2269.2
1194.345	2255.2
1199.29	2228.2
1204.23	2226.2
1209.165	2239.2
1214.095	2249.2
1219.021	2248.2
1223.941	2283.2
1228.856	2303.2
1233.766	2301.2
1238.672	2305.2
1243.572	2282.2
1248.467	2283.2
1253.358	2248.2
1258.244	2221.2
1263.124	2176.2
1268	2138.2
1272.871	2118.2
1277.737	2108.2
1282.599	2080.2
1287.455	2079.2
1292.306	2078.2
1297.153	2103.2
1301.995	2095.2
1306.832	2132.2
1311.664	2144.2
1316.491	2153.2
1321.314	2136.2
1326.132	2152.2
1330.945	2099.2
1335.753	2072.2
1340.556	2018.2
1345.354	2024.2
1350.148	1981.2
1354.937	1960.2
1359.722	1919.2
1364.501	1870.2
1369.276	1870.2
1374.046	1827.2
1378.811	1801.2
1383.572	1786.2
1388.327	1786.2
1393.079	1797.2
1397.825	1791.2
1402.567	1798.2
1407.304	1793.2
1412.036	1781.2
1416.764	1810.2
1421.487	1783.2
1426.205	1800.2
1430.919	1799.2
1435.628	1821.2
1440.333	1831.2
1445.032	1845.2
1449.727	1859.2
1454.418	1869.2
1459.104	1857.2
1463.785	1870.2
1468.462	1804.2
1473.134	1787.2
1477.802	1739.2
1482.465	1697.2
1487.123	1668.2
1491.777	1647.2
1496.426	1653.2
1501.071	1620.2
1505.711	1610.2
1510.347	1610.2
1514.978	1626.2
1519.604	1623.2
1524.226	1603.2
1528.844	1599.2
1533.457	1588.2
1538.065	1582.2
1542.669	1558.2
1547.269	1573.2
1551.864	1568.2
1556.454	1603.2
1561.041	1600.2
1565.622	1620.2
1570.199	1619.2
1574.772	1615.2
1579.34	1644.2
1583.904	1669.2
1588.464	1675.2
1593.019	1686.2
1597.569	1700.2
1602.115	1700.2
1606.657	1671.2
1611.195	1663.2
1615.728	1667.2
1620.256	1671.2
1624.78	1677.2
1629.3	1667.2
1633.816	1671.2
1638.327	1690.2
1642.834	1677.2
1647.336	1684.2
1651.834	1703.2
1656.328	1723.2
1660.817	1705.2
1665.302	1696.2
1669.783	1646.2
1674.259	1628.2
1678.732	1578.2
1683.199	1541.2
1687.663	1478.2
1692.122	1440.2
1696.577	1379.2
1701.028	1335.2
1705.474	1303.2
1709.917	1243.2
1714.355	1214.2
1718.788	1224.2
1723.218	1226.2
1727.643	1211.2
1732.064	1215.2
1736.481	1194.2
1740.893	1178.2
1745.301	1159.2
1749.705	1138.2
1754.105	1102.2
1758.501	1095.2
1762.893	1075.2
1767.28	1066.2
1771.663	1052.2
1776.042	1036.2
1780.417	1022.2
1784.787	1006.2
1789.154	1013.2
1793.516	1019.2
1797.874	979.2
1802.228	971.2
1806.578	969.2
1810.924	956.2
1815.266	931.2
1819.603	936.2
1823.937	937.2
1828.266	927.2
1832.591	940.2
1836.913	952.2
1841.23	948.2
1845.543	953.2
1849.852	930.2
1854.156	938.2
1858.457	941.2
1862.754	944.2
1867.047	943.2
1871.335	945.2
1875.62	943.2
1879.9	937.2
1884.177	947.2
1888.449	923.2
1892.718	912.2
1896.982	894.2
1901.243	881.2
1905.499	877.2
1909.752	875.2
1914	847.2
1918.245	848.2
1922.485	828.2
1926.722	826.2
1930.954	832.2
1935.183	821.2
1939.408	822.2
1943.628	823.2
1947.845	812.2
1952.058	803.2
1956.267	805.2
1960.472	793.2
1964.673	779.2
1968.87	773.2
1973.063	765.2
1977.252	756.2
1981.438	761.2
1985.619	763.2
1989.797	759.2
1993.971	767.2
1998.14	785.2
2002.306	758.2
2006.469	765.2
2010.627	774.2
2014.781	776.2
2018.932	766.2
2023.078	754.2
2027.221	761.2
2031.36	747.2
2035.495	746.2
2039.627	713.2
2043.754	717.2
2047.878	715.2
2051.998	699.2
2056.114	719.2
2060.226	712.2
2064.334	699.2
2068.439	709.2
2072.54	685.2
2076.637	692.2
2080.73	690.2
2084.82	695.2
2088.906	689.2
2092.988	678.2
2097.066	684.2
2101.14	652.2
2105.211	660.2
2109.278	648.2
2113.342	639.2
2117.401	634.2
2121.457	640.2
2125.509	634.2
2129.558	626.2
2133.602	624.2
2137.643	622.2
2141.681	620.2
2145.714	614.2
2149.744	617.2
2153.77	618.2
2157.793	616.2
2161.812	600.2
2165.827	607.2
2169.838	589.2
2173.846	586.2
2177.851	589.2
2181.851	571.2
2185.848	540.2
2189.841	564.2
2193.831	551.2
2197.817	543.2
2201.799	547.2
2205.778	544.2
2209.753	547.2
2213.725	537.2
2217.693	550.2
2221.657	535.2
2225.618	537.2
2229.575	540.2
2233.529	522.2
2237.479	538.2
2241.425	520.2
2245.368	505.2
2249.307	504.2
2253.243	491.2
2257.175	489.2
2261.104	491.2
2265.029	482.2
2268.95	474.2
2272.868	471.2
2276.783	468.2
2280.694	459.2
2284.601	456.2
2288.505	452.2
2292.405	439.2
2296.302	440.2
2300.195	435.2
2304.085	436.2
2307.971	411.2
2311.854	413.2
2315.734	398.2
2319.609	393.2
2323.482	400.2
2327.351	409.2
2331.216	411.2
2335.078	419.2
2338.937	401.2
2342.792	390.2
2346.643	383.2
2350.492	377.2
2354.336	383.2
2358.178	390.2
2362.015	390.2
2365.85	383.2
2369.681	379.2
2373.508	385.2
2377.333	381.2
2381.153	381.2
2384.971	395.2
2388.785	380.2
2392.595	387.2
2396.402	371.2
2400.206	375.2
2404.007	371.2
2407.804	372.2
2411.597	368.2
2415.388	369.2
2419.174	360.2
2422.958	367.2
2426.738	357.2
2430.515	356.2
2434.289	359.2
2438.059	351.2
2441.825	343.2
2445.589	348.2
2449.349	334.2
2453.106	342.2
2456.859	332.2
2460.61	332.2
2464.356	323.2
2468.1	316.2
2471.84	327.2
2475.577	328.2
2479.311	302.2
2483.041	314.2
2486.768	314.2
2490.492	304.2
2494.213	316.2
2497.93	295.2
2501.644	294.2
2505.355	293.2
2509.062	296.2
2512.766	291.2
2516.467	285.2
2520.165	292.2
2523.859	292.2
2527.551	279.2
2531.239	270.2
2534.923	270.2
2538.605	260.2
2542.283	264.2
2545.958	261.2
2549.63	268.2
2553.299	253.2
2556.964	258.2
2560.626	247.2
2564.285	243.2
2567.941	253.2
2571.594	250.2
2575.243	249.2
2578.89	231.2
2582.533	237.2
2586.173	222.2
2589.809	224.2
2593.443	222.2
2597.073	223.2
2600.701	219.2
2604.325	209.2
2607.946	210.2
2611.564	215.2
2615.178	217.2
2618.79	216.2
2622.398	211.2
2626.004	207.2
2629.606	205.2
2633.205	201.2
2636.801	204.2
2640.394	205.2
2643.983	205.2
2647.57	191.2
2651.153	193.2
2654.734	197.2
2658.311	186.2
2661.885	198.2
2665.456	189.2
2669.025	179.2
2672.589	177.2
2676.151	183.2
2679.71	183.2
2683.266	170.2
2686.819	172.2
2690.368	183.2
2693.915	170.2
2697.458	163.2
2700.999	157.2
2704.536	158.2
2708.071	156.2
2711.602	153.2
2715.13	152.2
2718.656	152.2
2722.178	144.2
2725.697	141.2
2729.214	134.2
2732.727	144.2
2736.237	144.2
2739.744	127.2
2743.249	134.2
2746.75	148.2
2750.248	127.2
2753.743	131.2
2757.236	119.2
2760.725	122.2
2764.211	112.2
2767.695	122.2
2771.175	111.2
2774.652	108.2
2778.127	113.2
2781.598	112.2
2785.067	116.2
2788.532	119.2
2791.995	115.2
2795.455	112.2
2798.911	107.2
2802.365	117.2
2805.816	128.2
2809.264	123.2
2812.709	121.2
2816.151	122.2
2819.59	118.2
2823.026	116.2
2826.46	114.2
2829.89	118.2
2833.318	124.2
2836.742	124.2
2840.164	105.2
2843.583	114.2
2846.999	121.2
2850.412	120.2
2853.822	117.2
2857.229	118.2
2860.634	133.2
2864.035	132.2
2867.434	131.2
2870.83	142.2
2874.223	149.2
2877.613	151.2
2881	161.2
2884.385	156.2
2887.766	149.2
2891.145	148.2
2894.521	152.2
2897.894	159.2
2901.264	156.2
2904.631	158.2
2907.996	155.2
2911.358	155.2
2914.717	160.2
2918.073	170.2
2921.426	167.2
2924.777	179.2
2928.124	174.2
2931.469	175.2
2934.811	184.2
2938.15	185.2
2941.487	197.2
2944.821	194.2
2948.152	185.2
2951.48	198.2
2954.805	201.2
2958.128	187.2
2961.447	188.2
2964.765	196.2
2968.079	179.2
2971.39	190.2
2974.699	192.2
2978.005	186.2
2981.308	194.2
2984.609	189.2
2987.907	188.2
2991.202	198.2
2994.494	196.2
2997.784	197.2
3001.07	204.2
3004.355	217.2
3007.636	204.2
3010.915	210.2
3014.191	215.2
3017.464	218.2
3020.734	220.2
3024.002	218.2
3027.267	233.2
3030.53	231.2
3033.789	232.2
3037.046	246.2
3040.301	233.2
3043.552	258.2
3046.801	266.2
3050.048	265.2
3053.291	273.2
3056.532	282.2
3059.771	292.2
3063.006	314.2
3066.239	318.2
3069.469	323.2
3072.697	330.2
3075.922	353.2
3079.144	355.2
3082.364	360.2
3085.581	365.2
3088.795	363.2
3092.007	382.2
3095.216	385.2
3098.423	403.2
3101.627	412.2
3104.828	420.2
3108.026	421.2
3111.222	432.2
3114.416	435.2
3117.607	451.2
3120.795	463.2
3123.98	467.2
3127.163	479.2
3130.344	498.2
3133.521	501.2
3136.696	530.2
3139.869	538.2
3143.039	538.2
3146.206	542.2
3149.371	554.2
3152.533	553.2
3155.693	567.2
3158.85	566.2
3162.005	577.2
3165.157	579.2
3168.306	589.2
3171.453	573.2
3174.597	577.2
3177.739	580.2
3180.878	597.2
3184.014	595.2
3187.149	580.2
3190.28	594.2
3193.409	598.2
3196.536	601.2
3199.659	610.2
3202.781	612.2
3205.9	599.2
3209.016	597.2
3212.13	599.2
3215.241	603.2
3218.35	599.2
3221.456	592.2
3224.56	578.2
3227.661	567.2
3230.76	572.2
3233.856	562.2
3236.95	545.2
3240.041	547.2
3243.13	530.2
3246.216	532.2
3249.3	508.2
3252.382	520.2
3255.46	514.2
3258.537	503.2
3261.611	486.2
3264.682	486.2
3267.751	499.2
3270.818	499.2
3273.882	476.2
3276.943	486.2
3280.002	476.2
3283.059	486.2
3286.113	471.2
3289.165	457.2
3292.214	462.2
3295.261	456.2
3298.306	443.2
3301.348	444.2
3304.387	441.2
3307.425	434.2
3310.459	437.2
3313.492	420.2
3316.521	425.2
3319.549	418.2
3322.574	404.2
3325.597	409.2
3328.617	406.2
3331.635	415.2
3334.65	407.2
3337.663	385.2
3340.674	409.2
3343.682	400.2
3346.688	384.2
3349.691	398.2
3352.692	400.2
3355.691	391.2
3358.687	389.2
3361.681	391.2
3364.673	385.2
3367.662	383.2
3370.649	366.2
3373.633	361.2
3376.615	356.2
3379.595	347.2
3382.572	346.2
3385.547	345.2
3388.52	336.2
3391.49	338.2
3394.458	319.2
3397.424	315.2
3400.387	317.2
3403.348	309.2
3406.307	305.2
3409.263	298.2
3412.217	305.2
3415.168	293.2
3418.118	297.2
3421.065	281.2
3424.009	279.2
3426.951	284.2
3429.891	280.2
3432.829	261.2
3435.764	256.2
3438.697	243.2
3441.628	237.2
3444.557	239.2
3447.483	226.2
3450.407	211.2
3453.328	209.2
3456.247	206.2
3459.164	180.2
3462.079	178.2
3464.991	176.2
3467.902	167.2
3470.809	168.2
3473.715	153.2
3476.618	146.2
3479.519	145.2
3482.418	133.2
3485.315	126.2
3488.209	114.2
3491.101	118.2
3493.99	118.2
3496.878	104.2
3499.763	95.2
3502.646	93.2
3505.527	87.2
3508.405	90.2
3511.281	72.2
3514.155	66.2
3517.027	61.2
3519.897	55.2
3522.764	48.2
3525.629	39.2
3528.492	35.2
3531.352	33.2
3534.211	25.2
3537.067	25.2
3539.921	16.2
3542.773	15.2
3545.622	-3.8
3548.469	-4.8
3551.315	-3.8
3554.157	-6.8
3556.998	-14.8
3559.837	-9.8
3562.673	-23.8
3565.507	-20.8
3568.339	-22.8
3571.169	-34.8
3573.996	-33.8
3576.822	-32.8
3579.645	-34.8
3582.466	-34.8
3585.285	-47.8
3588.101	-37.8
3590.916	-49.8
3593.728	-56.8
3596.538	-52.8
3599.346	-59.8
3602.152	-59.8
3604.956	-58.8
3607.757	-56.8
3610.556	-62.8
3613.354	-60.8
3616.149	-71.8
3618.942	-79.8
3621.732	-76.8
3624.521	-71.8
3627.307	-73.8
3630.092	-74.8
3632.874	-78.8
3635.654	-85.8
3638.432	-78.8
3641.208	-81.8
3643.982	-86.8
3646.753	-90.8
3649.523	-89.8
3652.29	-85.8
3655.055	-86.8
3657.818	-88.8
3660.579	-88.8
3663.338	-90.8
3666.095	-100.8
3668.849	-93.8
3671.602	-101.8
3674.352	-102.8
3677.101	-105.8
3679.847	-103.8
3682.591	-103.8
3685.333	-103.8
3688.073	-102.8
3690.811	-108.8
3693.547	-119.8
3696.281	-111.8
3699.013	-104.8
3701.742	-115.8
3704.47	-113.8
3707.195	-102.8
3709.919	-107.8
3712.64	-113.8
3715.359	-115.8
3718.076	-117.8
3720.792	-116.8
3723.505	-121.8
3726.216	-111.8
3728.925	-119.8
3731.632	-112.8
3734.336	-120.8
3737.039	-116.8
3739.74	-121.8
3742.439	-125.8
3745.136	-123.8
3747.83	-126.8
3750.523	-115.8
3753.213	-117.8
3755.902	-116.8
3758.589	-122.8
3761.273	-118.8
3763.956	-120.8
3766.636	-123.8
3769.315	-114.8
3771.991	-115.8
3774.665	-121.8
3777.338	-118.8
3780.008	-122.8
3782.677	-122.8
3785.343	-125.8
3788.007	-124.8
3790.67	-127.8
3793.33	-113.8
3795.989	-123.8
3798.645	-119.8
3801.299	-121.8
3803.952	-123.8
3806.602	-121.8
3809.251	-131.8
3811.897	-129.8
3814.542	-130.8
3817.184	-119.8
3819.825	-119.8
3822.463	-124.8
3825.1	-127.8
3827.735	-126.8
3830.367	-126.8
3832.998	-129.8
3835.627	-126.8
3838.253	-120.8
3840.878	-121.8
3843.501	-121.8
3846.122	-125.8
3848.741	-129.8
3851.358	-123.8
3853.973	-130.8
3856.586	-123.8
3859.197	-129.8
3861.806	-122.8
3864.414	-125.8
3867.019	-120.8
3869.622	-130.8
3872.224	-117.8
3874.823	-106.8
3877.421	-87.8
3880.016	-70.8
3882.61	-50.8
3885.202	-54.8
3887.792	-67.8
3890.38	-90.8
3892.966	-116.8
3895.55	-122.8
3898.132	-125.8
3900.713	-126.8
3903.291	-124.8
3905.868	-121.8
3908.442	-123.8
3911.015	-129.8
3913.586	-132.8
3916.155	-133.8
3918.722	-129.8
3921.287	-127.8
3923.85	-128.8
3926.411	-129.8
3928.971	-125.8
3931.528	-125.8
3934.084	-127.8
3936.638	-121.8
3939.19	-132.8
3941.74	-127.8
3944.288	-127.8
3946.834	-122.8
3949.378	-129.8
3951.921	-129.8
3954.462	-136.8
3957	-128.8
3959.537	-124.8
3962.072	-132.8
3964.606	-119.8
3967.137	-125.8
3969.667	-127.8
3972.194	-128.8
3974.72	-127.8
3977.244	-132.8
3979.766	-131.8
3982.286	-121.8
3984.805	-125.8
3987.321	-127.8
3989.836	-117.8
3992.349	-127.8
3994.86	-128.8
3997.369	-128.8
3999.877	-129.8
4002.382	-119.8
4004.886	-127.8
4007.388	-121.8
4009.888	-124.8
4012.386	-129.8
4014.883	-131.8
4017.377	-129.8
4019.87	-127.8
4022.361	-127.8
4024.85	-127.8
4027.338	-123.8
4029.823	-126.8
4032.307	-123.8
4034.789	-126.8
4037.269	-127.8
4039.747	-125.8
4042.224	-123.8
4044.699	-127.8
4047.172	-123.8
4049.643	-123.8
4052.112	-120.8
4054.58	-133.8
4057.046	-126.8
4059.51	-133.8
4061.972	-120.8
4064.432	-127.8
4066.891	-125.8
4069.348	-122.8
4071.803	-132.8
4074.256	-130.8
4076.708	-123.8
4079.158	-125.8
4081.606	-123.8
4084.052	-126.8
4086.497	-118.8
4088.939	-113.8
4091.38	-123.8
4093.819	-128.8
4096.257	-132.8
4098.693	-129.8
4101.127	-130.8
4103.559	-131.8
4105.989	11.2
4108.418	2.2
4110.845	13.2
4113.27	10.2
4115.694	1.2
4118.115	-4.8
4120.535	-129.8
4122.954	-133.8
4125.37	-126.8
4127.785	-129.8
4130.198	-124.8
4132.609	-125.8
4135.019	-126.8
4137.427	-135.8
4139.833	-132.8
4142.237	-134.8
