Data from 2018-2-8_conc=3_n=10_RamanShift_04.txt Node
Date: Mon Mar 12 15:00:28 IST 2018
User: aro
Spectrometer: QEPB0276
Trigger mode: 0
Integration Time (sec): 3.000000E1
Scans to average: 1
Electric dark correction enabled: true
Nonlinearity correction enabled: false
Boxcar width: 0
XAxis mode: Raman Shifts
Number of Pixels in Spectrum: 1044
>>>>>Begin Spectral Data<<<<<
160.701	17.6
166.742	48.6
172.777	137.6
178.805	459.6
184.826	1227.6
190.841	2639.6
196.849	4411.6
202.85	5845.6
208.845	6405.6
214.833	6411.6
220.815	6320.6
226.789	6261.6
232.758	6295.6
238.719	6287.6
244.674	6194.6
250.623	6165.6
256.565	6049.6
262.5	5967.6
268.429	5884.6
274.351	5816.6
280.267	5792.6
286.176	5719.6
292.079	5694.6
297.975	5667.6
303.865	5631.6
309.748	5631.6
315.625	5615.6
321.495	5578.6
327.359	5576.6
333.217	5559.6
339.068	5573.6
344.912	5598.6
350.751	5603.6
356.583	5613.6
362.408	5608.6
368.227	5619.6
374.04	5628.6
379.847	5663.6
385.647	5669.6
391.44	5691.6
397.228	5721.6
403.009	5726.6
408.784	5786.6
414.553	5801.6
420.315	5838.6
426.071	5859.6
431.821	5792.6
437.565	5815.6
443.302	5828.6
449.033	5773.6
454.758	5724.6
460.477	5715.6
466.189	5728.6
471.896	5682.6
477.596	5589.6
483.29	5581.6
488.978	5614.6
494.66	5580.6
500.335	5504.6
506.005	5396.6
511.668	5274.6
517.325	5096.6
522.977	4997.6
528.622	4908.6
534.261	4857.6
539.894	4811.6
545.521	4791.6
551.141	4754.6
556.756	4693.6
562.365	4684.6
567.968	4664.6
573.565	4649.6
579.155	4598.6
584.74	4572.6
590.319	4580.6
595.892	4558.6
601.459	4566.6
607.02	4541.6
612.575	4499.6
618.124	4453.6
623.667	4423.6
629.204	4404.6
634.735	4348.6
640.261	4333.6
645.781	4312.6
651.294	4313.6
656.802	4331.6
662.304	4262.6
667.8	4255.6
673.29	4239.6
678.775	4242.6
684.254	4245.6
689.726	4224.6
695.193	4211.6
700.655	4202.6
706.11	4160.6
711.56	4144.6
717.004	4103.6
722.442	4060.6
727.874	4058.6
733.301	4048.6
738.722	4032.6
744.137	4047.6
749.547	4050.6
754.951	4023.6
760.349	4040.6
765.741	4020.6
771.128	4036.6
776.509	4054.6
781.885	4097.6
787.254	4087.6
792.618	4086.6
797.977	4046.6
803.33	4017.6
808.677	3981.6
814.019	3976.6
819.355	3938.6
824.686	3913.6
830.011	3931.6
835.33	3905.6
840.644	3872.6
845.952	3870.6
851.255	3869.6
856.552	3864.6
861.844	3824.6
867.13	3832.6
872.41	3823.6
877.686	3802.6
882.955	3726.6
888.219	3728.6
893.478	3681.6
898.731	3649.6
903.979	3594.6
909.221	3573.6
914.458	3541.6
919.69	3566.6
924.916	3548.6
930.136	3564.6
935.351	3548.6
940.561	3562.6
945.766	3552.6
950.965	3544.6
956.158	3523.6
961.347	3472.6
966.529	3439.6
971.707	3398.6
976.879	3337.6
982.046	3318.6
987.208	3291.6
992.364	3308.6
997.515	3332.6
1002.66	3330.6
1007.801	3351.6
1012.936	3399.6
1018.066	3407.6
1023.19	3373.6
1028.309	3391.6
1033.423	3399.6
1038.532	3386.6
1043.636	3337.6
1048.734	3304.6
1053.827	3264.6
1058.915	3208.6
1063.998	3226.6
1069.075	3193.6
1074.147	3219.6
1079.214	3205.6
1084.276	3205.6
1089.333	3241.6
1094.385	3236.6
1099.431	3265.6
1104.472	3242.6
1109.509	3236.6
1114.54	3162.6
1119.565	3128.6
1124.586	3094.6
1129.602	3075.6
1134.613	3037.6
1139.618	3021.6
1144.619	2998.6
1149.614	3005.6
1154.604	3028.6
1159.589	3021.6
1164.57	3011.6
1169.545	3035.6
1174.515	3039.6
1179.48	3015.6
1184.44	3001.6
1189.395	2962.6
1194.345	2956.6
1199.29	2953.6
1204.23	2933.6
1209.165	2943.6
1214.095	2969.6
1219.021	2978.6
1223.941	2992.6
1228.856	3001.6
1233.766	3017.6
1238.672	3018.6
1243.572	2987.6
1248.467	2995.6
1253.358	2948.6
1258.244	2907.6
1263.124	2860.6
1268	2809.6
1272.871	2785.6
1277.737	2748.6
1282.599	2752.6
1287.455	2721.6
1292.306	2761.6
1297.153	2740.6
1301.995	2773.6
1306.832	2791.6
1311.664	2813.6
1316.491	2792.6
1321.314	2809.6
1326.132	2790.6
1330.945	2766.6
1335.753	2710.6
1340.556	2682.6
1345.354	2637.6
1350.148	2605.6
1354.937	2553.6
1359.722	2510.6
1364.501	2489.6
1369.276	2429.6
1374.046	2380.6
1378.811	2352.6
1383.572	2342.6
1388.327	2348.6
1393.079	2347.6
1397.825	2337.6
1402.567	2346.6
1407.304	2335.6
1412.036	2338.6
1416.764	2376.6
1421.487	2385.6
1426.205	2356.6
1430.919	2363.6
1435.628	2392.6
1440.333	2404.6
1445.032	2410.6
1449.727	2440.6
1454.418	2450.6
1459.104	2471.6
1463.785	2408.6
1468.462	2379.6
1473.134	2333.6
1477.802	2276.6
1482.465	2227.6
1487.123	2178.6
1491.777	2146.6
1496.426	2121.6
1501.071	2121.6
1505.711	2095.6
1510.347	2101.6
1514.978	2077.6
1519.604	2091.6
1524.226	2080.6
1528.844	2081.6
1533.457	2037.6
1538.065	2047.6
1542.669	2055.6
1547.269	2022.6
1551.864	2066.6
1556.454	2072.6
1561.041	2088.6
1565.622	2092.6
1570.199	2107.6
1574.772	2098.6
1579.34	2157.6
1583.904	2175.6
1588.464	2202.6
1593.019	2180.6
1597.569	2213.6
1602.115	2206.6
1606.657	2185.6
1611.195	2183.6
1615.728	2201.6
1620.256	2176.6
1624.78	2179.6
1629.3	2179.6
1633.816	2197.6
1638.327	2200.6
1642.834	2213.6
1647.336	2210.6
1651.834	2231.6
1656.328	2241.6
1660.817	2212.6
1665.302	2196.6
1669.783	2165.6
1674.259	2103.6
1678.732	2061.6
1683.199	1997.6
1687.663	1925.6
1692.122	1863.6
1696.577	1783.6
1701.028	1707.6
1705.474	1651.6
1709.917	1599.6
1714.355	1558.6
1718.788	1545.6
1723.218	1556.6
1727.643	1568.6
1732.064	1529.6
1736.481	1537.6
1740.893	1497.6
1745.301	1469.6
1749.705	1441.6
1754.105	1416.6
1758.501	1396.6
1762.893	1372.6
1767.28	1369.6
1771.663	1344.6
1776.042	1334.6
1780.417	1310.6
1784.787	1306.6
1789.154	1274.6
1793.516	1266.6
1797.874	1278.6
1802.228	1241.6
1806.578	1224.6
1810.924	1210.6
1815.266	1187.6
1819.603	1200.6
1823.937	1202.6
1828.266	1204.6
1832.591	1210.6
1836.913	1196.6
1841.23	1197.6
1845.543	1207.6
1849.852	1192.6
1854.156	1198.6
1858.457	1200.6
1862.754	1195.6
1867.047	1207.6
1871.335	1210.6
1875.62	1206.6
1879.9	1192.6
1884.177	1192.6
1888.449	1180.6
1892.718	1164.6
1896.982	1150.6
1901.243	1134.6
1905.499	1117.6
1909.752	1098.6
1914	1090.6
1918.245	1083.6
1922.485	1073.6
1926.722	1045.6
1930.954	1051.6
1935.183	1034.6
1939.408	1021.6
1943.628	1037.6
1947.845	1032.6
1952.058	1013.6
1956.267	987.6
1960.472	991.6
1964.673	984.6
1968.87	984.6
1973.063	987.6
1977.252	967.6
1981.438	976.6
1985.619	967.6
1989.797	955.6
1993.971	970.6
1998.14	975.6
2002.306	966.6
2006.469	988.6
2010.627	990.6
2014.781	971.6
2018.932	977.6
2023.078	977.6
2027.221	970.6
2031.36	958.6
2035.495	940.6
2039.627	916.6
2043.754	919.6
2047.878	910.6
2051.998	913.6
2056.114	895.6
2060.226	886.6
2064.334	897.6
2068.439	905.6
2072.54	889.6
2076.637	885.6
2080.73	892.6
2084.82	874.6
2088.906	881.6
2092.988	858.6
2097.066	866.6
2101.14	840.6
2105.211	826.6
2109.278	811.6
2113.342	818.6
2117.401	803.6
2121.457	806.6
2125.509	791.6
2129.558	792.6
2133.602	798.6
2137.643	787.6
2141.681	784.6
2145.714	796.6
2149.744	789.6
2153.77	777.6
2157.793	777.6
2161.812	776.6
2165.827	774.6
2169.838	770.6
2173.846	759.6
2177.851	734.6
2181.851	734.6
2185.848	722.6
2189.841	718.6
2193.831	719.6
2197.817	699.6
2201.799	698.6
2205.778	698.6
2209.753	704.6
2213.725	686.6
2217.693	699.6
2221.657	701.6
2225.618	687.6
2229.575	687.6
2233.529	685.6
2237.479	668.6
2241.425	670.6
2245.368	651.6
2249.307	644.6
2253.243	637.6
2257.175	632.6
2261.104	620.6
2265.029	605.6
2268.95	605.6
2272.868	608.6
2276.783	589.6
2280.694	572.6
2284.601	570.6
2288.505	569.6
2292.405	551.6
2296.302	564.6
2300.195	556.6
2304.085	541.6
2307.971	531.6
2311.854	522.6
2315.734	517.6
2319.609	506.6
2323.482	510.6
2327.351	505.6
2331.216	518.6
2335.078	538.6
2338.937	512.6
2342.792	493.6
2346.643	499.6
2350.492	493.6
2354.336	489.6
2358.178	492.6
2362.015	499.6
2365.85	502.6
2369.681	487.6
2373.508	504.6
2377.333	492.6
2381.153	499.6
2384.971	498.6
2388.785	492.6
2392.595	486.6
2396.402	478.6
2400.206	473.6
2404.007	483.6
2407.804	477.6
2411.597	474.6
2415.388	467.6
2419.174	453.6
2422.958	458.6
2426.738	464.6
2430.515	445.6
2434.289	458.6
2438.059	446.6
2441.825	444.6
2445.589	439.6
2449.349	431.6
2453.106	420.6
2456.859	427.6
2460.61	419.6
2464.356	422.6
2468.1	413.6
2471.84	400.6
2475.577	409.6
2479.311	393.6
2483.041	393.6
2486.768	393.6
2490.492	381.6
2494.213	393.6
2497.93	388.6
2501.644	389.6
2505.355	377.6
2509.062	362.6
2512.766	366.6
2516.467	375.6
2520.165	374.6
2523.859	362.6
2527.551	355.6
2531.239	338.6
2534.923	340.6
2538.605	330.6
2542.283	331.6
2545.958	332.6
2549.63	331.6
2553.299	325.6
2556.964	336.6
2560.626	315.6
2564.285	316.6
2567.941	303.6
2571.594	308.6
2575.243	316.6
2578.89	297.6
2582.533	289.6
2586.173	290.6
2589.809	287.6
2593.443	288.6
2597.073	284.6
2600.701	281.6
2604.325	274.6
2607.946	268.6
2611.564	276.6
2615.178	276.6
2618.79	275.6
2622.398	267.6
2626.004	262.6
2629.606	267.6
2633.205	257.6
2636.801	259.6
2640.394	256.6
2643.983	251.6
2647.57	251.6
2651.153	244.6
2654.734	241.6
2658.311	233.6
2661.885	249.6
2665.456	237.6
2669.025	241.6
2672.589	232.6
2676.151	233.6
2679.71	234.6
2683.266	224.6
2686.819	225.6
2690.368	219.6
2693.915	221.6
2697.458	206.6
2700.999	196.6
2704.536	206.6
2708.071	195.6
2711.602	198.6
2715.13	197.6
2718.656	184.6
2722.178	192.6
2725.697	188.6
2729.214	172.6
2732.727	194.6
2736.237	179.6
2739.744	179.6
2743.249	163.6
2746.75	179.6
2750.248	159.6
2753.743	158.6
2757.236	146.6
2760.725	153.6
2764.211	156.6
2767.695	150.6
2771.175	142.6
2774.652	141.6
2778.127	143.6
2781.598	137.6
2785.067	151.6
2788.532	146.6
2791.995	149.6
2795.455	138.6
2798.911	148.6
2802.365	150.6
2805.816	155.6
2809.264	148.6
2812.709	151.6
2816.151	152.6
2819.59	148.6
2823.026	143.6
2826.46	152.6
2829.89	148.6
2833.318	150.6
2836.742	150.6
2840.164	150.6
2843.583	163.6
2846.999	155.6
2850.412	156.6
2853.822	149.6
2857.229	150.6
2860.634	157.6
2864.035	169.6
2867.434	168.6
2870.83	180.6
2874.223	186.6
2877.613	189.6
2881	195.6
2884.385	201.6
2887.766	191.6
2891.145	190.6
2894.521	203.6
2897.894	200.6
2901.264	205.6
2904.631	202.6
2907.996	203.6
2911.358	208.6
2914.717	217.6
2918.073	229.6
2921.426	213.6
2924.777	234.6
2928.124	236.6
2931.469	236.6
2934.811	250.6
2938.15	253.6
2941.487	258.6
2944.821	251.6
2948.152	266.6
2951.48	258.6
2954.805	267.6
2958.128	259.6
2961.447	237.6
2964.765	254.6
2968.079	245.6
2971.39	265.6
2974.699	262.6
2978.005	251.6
2981.308	271.6
2984.609	256.6
2987.907	257.6
2991.202	268.6
2994.494	260.6
2997.784	278.6
3001.07	269.6
3004.355	277.6
3007.636	285.6
3010.915	283.6
3014.191	280.6
3017.464	288.6
3020.734	300.6
3024.002	296.6
3027.267	307.6
3030.53	306.6
3033.789	323.6
3037.046	332.6
3040.301	320.6
3043.552	349.6
3046.801	352.6
3050.048	364.6
3053.291	374.6
3056.532	393.6
3059.771	404.6
3063.006	415.6
3066.239	429.6
3069.469	436.6
3072.697	448.6
3075.922	465.6
3079.144	471.6
3082.364	503.6
3085.581	514.6
3088.795	502.6
3092.007	516.6
3095.216	534.6
3098.423	534.6
3101.627	560.6
3104.828	555.6
3108.026	561.6
3111.222	595.6
3114.416	605.6
3117.607	607.6
3120.795	622.6
3123.98	629.6
3127.163	652.6
3130.344	664.6
3133.521	683.6
3136.696	714.6
3139.869	707.6
3143.039	716.6
3146.206	724.6
3149.371	754.6
3152.533	746.6
3155.693	767.6
3158.85	758.6
3162.005	780.6
3165.157	775.6
3168.306	774.6
3171.453	789.6
3174.597	784.6
3177.739	807.6
3180.878	787.6
3184.014	802.6
3187.149	809.6
3190.28	822.6
3193.409	798.6
3196.536	808.6
3199.659	816.6
3202.781	831.6
3205.9	825.6
3209.016	833.6
3212.13	828.6
3215.241	811.6
3218.35	809.6
3221.456	805.6
3224.56	787.6
3227.661	784.6
3230.76	763.6
3233.856	763.6
3236.95	751.6
3240.041	737.6
3243.13	724.6
3246.216	714.6
3249.3	702.6
3252.382	702.6
3255.46	688.6
3258.537	679.6
3261.611	681.6
3264.682	679.6
3267.751	677.6
3270.818	667.6
3273.882	665.6
3276.943	661.6
3280.002	657.6
3283.059	660.6
3286.113	639.6
3289.165	652.6
3292.214	635.6
3295.261	619.6
3298.306	619.6
3301.348	618.6
3304.387	608.6
3307.425	596.6
3310.459	582.6
3313.492	591.6
3316.521	581.6
3319.549	568.6
3322.574	569.6
3325.597	574.6
3328.617	565.6
3331.635	568.6
3334.65	562.6
3337.663	548.6
3340.674	555.6
3343.682	552.6
3346.688	549.6
3349.691	561.6
3352.692	543.6
3355.691	550.6
3358.687	536.6
3361.681	544.6
3364.673	529.6
3367.662	529.6
3370.649	523.6
3373.633	508.6
3376.615	491.6
3379.595	480.6
3382.572	489.6
3385.547	470.6
3388.52	469.6
3391.49	461.6
3394.458	455.6
3397.424	450.6
3400.387	433.6
3403.348	434.6
3406.307	430.6
3409.263	421.6
3412.217	413.6
3415.168	420.6
3418.118	415.6
3421.065	390.6
3424.009	404.6
3426.951	393.6
3429.891	378.6
3432.829	369.6
3435.764	361.6
3438.697	355.6
3441.628	345.6
3444.557	338.6
3447.483	322.6
3450.407	300.6
3453.328	286.6
3456.247	278.6
3459.164	270.6
3462.079	256.6
3464.991	243.6
3467.902	242.6
3470.809	237.6
3473.715	218.6
3476.618	202.6
3479.519	193.6
3482.418	192.6
3485.315	184.6
3488.209	174.6
3491.101	166.6
3493.99	163.6
3496.878	162.6
3499.763	135.6
3502.646	131.6
3505.527	121.6
3508.405	113.6
3511.281	107.6
3514.155	105.6
3517.027	93.6
3519.897	80.6
3522.764	76.6
3525.629	69.6
3528.492	55.6
3531.352	51.6
3534.211	44.6
3537.067	38.6
3539.921	35.6
3542.773	29.6
3545.622	13.6
3548.469	0.6
3551.315	-3.4
3554.157	1.6
3556.998	-8.4
3559.837	-6.4
3562.673	-12.4
3565.507	-16.4
3568.339	-26.4
3571.169	-44.4
3573.996	-29.4
3576.822	-31.4
3579.645	-32.4
3582.466	-39.4
3585.285	-46.4
3588.101	-42.4
3590.916	-62.4
3593.728	-65.4
3596.538	-65.4
3599.346	-69.4
3602.152	-69.4
3604.956	-68.4
3607.757	-69.4
3610.556	-77.4
3613.354	-77.4
3616.149	-91.4
3618.942	-95.4
3621.732	-89.4
3624.521	-94.4
3627.307	-90.4
3630.092	-93.4
3632.874	-95.4
3635.654	-103.4
3638.432	-102.4
3641.208	-102.4
3643.982	-105.4
3646.753	-113.4
3649.523	-109.4
3652.29	-105.4
3655.055	-109.4
3657.818	-112.4
3660.579	-115.4
3663.338	-117.4
3666.095	-120.4
3668.849	-117.4
3671.602	-124.4
3674.352	-126.4
3677.101	-120.4
3679.847	-128.4
3682.591	-132.4
3685.333	-129.4
3688.073	-128.4
3690.811	-137.4
3693.547	-144.4
3696.281	-131.4
3699.013	-136.4
3701.742	-139.4
3704.47	-140.4
3707.195	-137.4
3709.919	-144.4
3712.64	-140.4
3715.359	-145.4
3718.076	-140.4
3720.792	-147.4
3723.505	-142.4
3726.216	-145.4
3728.925	-153.4
3731.632	-143.4
3734.336	-153.4
3737.039	-147.4
3739.74	-150.4
3742.439	-158.4
3745.136	-143.4
3747.83	-155.4
3750.523	-154.4
3753.213	-150.4
3755.902	-150.4
3758.589	-153.4
3761.273	-149.4
3763.956	-144.4
3766.636	-154.4
3769.315	-145.4
3771.991	-153.4
3774.665	-155.4
3777.338	-143.4
3780.008	-151.4
3782.677	-151.4
3785.343	-153.4
3788.007	-154.4
3790.67	-158.4
3793.33	-152.4
3795.989	-153.4
3798.645	-155.4
3801.299	-153.4
3803.952	-158.4
3806.602	-152.4
3809.251	-158.4
3811.897	-166.4
3814.542	-165.4
3817.184	-151.4
3819.825	-155.4
3822.463	-153.4
3825.1	-156.4
3827.735	-153.4
3830.367	-161.4
3832.998	-162.4
3835.627	-155.4
3838.253	-156.4
3840.878	-154.4
3843.501	-153.4
3846.122	-154.4
3848.741	-161.4
3851.358	-160.4
3853.973	-164.4
3856.586	-157.4
3859.197	-164.4
3861.806	-152.4
3864.414	-153.4
3867.019	-153.4
3869.622	-154.4
3872.224	-144.4
3874.823	-138.4
3877.421	-123.4
3880.016	-100.4
3882.61	-76.4
3885.202	-86.4
3887.792	-98.4
3890.38	-124.4
3892.966	-152.4
3895.55	-157.4
3898.132	-154.4
3900.713	-162.4
3903.291	-159.4
3905.868	-161.4
3908.442	-157.4
3911.015	-162.4
3913.586	-165.4
3916.155	-161.4
3918.722	-163.4
3921.287	-159.4
3923.85	-162.4
3926.411	-161.4
3928.971	-157.4
3931.528	-162.4
3934.084	-156.4
3936.638	-156.4
3939.19	-164.4
3941.74	-157.4
3944.288	-158.4
3946.834	-162.4
3949.378	-161.4
3951.921	-162.4
3954.462	-163.4
3957	-158.4
3959.537	-158.4
3962.072	-159.4
3964.606	-156.4
3967.137	-153.4
3969.667	-166.4
3972.194	-163.4
3974.72	-162.4
3977.244	-165.4
3979.766	-159.4
3982.286	-156.4
3984.805	-159.4
3987.321	-163.4
3989.836	-156.4
3992.349	-160.4
3994.86	-157.4
3997.369	-163.4
3999.877	-160.4
4002.382	-156.4
4004.886	-158.4
4007.388	-156.4
4009.888	-155.4
4012.386	-163.4
4014.883	-162.4
4017.377	-163.4
4019.87	-152.4
4022.361	-157.4
4024.85	-159.4
4027.338	-158.4
4029.823	-155.4
4032.307	-159.4
4034.789	-163.4
4037.269	-156.4
4039.747	-155.4
4042.224	-159.4
4044.699	-164.4
4047.172	-156.4
4049.643	-159.4
4052.112	-156.4
4054.58	-157.4
4057.046	-158.4
4059.51	-160.4
4061.972	-152.4
4064.432	-161.4
4066.891	-164.4
4069.348	-159.4
4071.803	-163.4
4074.256	-158.4
4076.708	-152.4
4079.158	-159.4
4081.606	-155.4
4084.052	-164.4
4086.497	-159.4
4088.939	-148.4
4091.38	-154.4
4093.819	-156.4
4096.257	-165.4
4098.693	-165.4
4101.127	-166.4
4103.559	-165.4
4105.989	4.6
4108.418	-7.4
4110.845	-4.4
4113.27	-8.4
4115.694	-10.4
4118.115	-3.4
4120.535	-158.4
4122.954	-162.4
4125.37	-156.4
4127.785	-159.4
4130.198	-156.4
4132.609	-159.4
4135.019	-162.4
4137.427	-167.4
4139.833	-166.4
4142.237	-167.4
