Data from 2018-2-8_conc=0_n=8_RamanShift_01.txt Node
Date: Mon Mar 12 13:43:59 IST 2018
User: aro
Spectrometer: QEPB0276
Trigger mode: 0
Integration Time (sec): 3.000000E1
Scans to average: 1
Electric dark correction enabled: true
Nonlinearity correction enabled: false
Boxcar width: 0
XAxis mode: Raman Shifts
Number of Pixels in Spectrum: 1044
>>>>>Begin Spectral Data<<<<<
160.701	21.4
166.742	60.4
172.777	140.4
178.805	398.4
184.826	1073.4
190.841	2298.4
196.849	3853.4
202.85	5047.4
208.845	5527.4
214.833	5537.4
220.815	5462.4
226.789	5441.4
232.758	5443.4
238.719	5439.4
244.674	5429.4
250.623	5371.4
256.565	5336.4
262.5	5223.4
268.429	5168.4
274.351	5125.4
280.267	5106.4
286.176	5066.4
292.079	5070.4
297.975	5010.4
303.865	5009.4
309.748	4999.4
315.625	5007.4
321.495	5026.4
327.359	5000.4
333.217	4988.4
339.068	5021.4
344.912	5016.4
350.751	5028.4
356.583	5047.4
362.408	5025.4
368.227	5054.4
374.04	5080.4
379.847	5112.4
385.647	5131.4
391.44	5138.4
397.228	5164.4
403.009	5212.4
408.784	5186.4
414.553	5225.4
420.315	5246.4
426.071	5255.4
431.821	5232.4
437.565	5204.4
443.302	5236.4
449.033	5230.4
454.758	5166.4
460.477	5159.4
466.189	5124.4
471.896	5121.4
477.596	5078.4
483.29	5048.4
488.978	5052.4
494.66	5008.4
500.335	4942.4
506.005	4830.4
511.668	4670.4
517.325	4540.4
522.977	4411.4
528.622	4296.4
534.261	4262.4
539.894	4193.4
545.521	4141.4
551.141	4106.4
556.756	4104.4
562.365	4063.4
567.968	4056.4
573.565	4010.4
579.155	3983.4
584.74	3981.4
590.319	3962.4
595.892	4007.4
601.459	3921.4
607.02	3921.4
612.575	3920.4
618.124	3880.4
623.667	3841.4
629.204	3784.4
634.735	3766.4
640.261	3760.4
645.781	3713.4
651.294	3709.4
656.802	3713.4
662.304	3692.4
667.8	3666.4
673.29	3678.4
678.775	3664.4
684.254	3637.4
689.726	3661.4
695.193	3607.4
700.655	3598.4
706.11	3589.4
711.56	3558.4
717.004	3545.4
722.442	3517.4
727.874	3521.4
733.301	3478.4
738.722	3493.4
744.137	3491.4
749.547	3471.4
754.951	3473.4
760.349	3472.4
765.741	3472.4
771.128	3506.4
776.509	3520.4
781.885	3528.4
787.254	3553.4
792.618	3548.4
797.977	3511.4
803.33	3488.4
808.677	3481.4
814.019	3446.4
819.355	3396.4
824.686	3406.4
830.011	3379.4
835.33	3361.4
840.644	3360.4
845.952	3352.4
851.255	3360.4
856.552	3343.4
861.844	3333.4
867.13	3307.4
872.41	3300.4
877.686	3272.4
882.955	3261.4
888.219	3227.4
893.478	3172.4
898.731	3133.4
903.979	3105.4
909.221	3052.4
914.458	3057.4
919.69	3032.4
924.916	3044.4
930.136	3036.4
935.351	3067.4
940.561	3061.4
945.766	3051.4
950.965	3050.4
956.158	3009.4
961.347	2961.4
966.529	2965.4
971.707	2877.4
976.879	2861.4
982.046	2850.4
987.208	2842.4
992.364	2842.4
997.515	2856.4
1002.66	2860.4
1007.801	2890.4
1012.936	2905.4
1018.066	2919.4
1023.19	2910.4
1028.309	2930.4
1033.423	2910.4
1038.532	2911.4
1043.636	2902.4
1048.734	2865.4
1053.827	2827.4
1058.915	2774.4
1063.998	2775.4
1069.075	2765.4
1074.147	2753.4
1079.214	2758.4
1084.276	2779.4
1089.333	2792.4
1094.385	2793.4
1099.431	2803.4
1104.472	2796.4
1109.509	2766.4
1114.54	2760.4
1119.565	2688.4
1124.586	2674.4
1129.602	2603.4
1134.613	2603.4
1139.618	2573.4
1144.619	2562.4
1149.614	2595.4
1154.604	2609.4
1159.589	2593.4
1164.57	2594.4
1169.545	2601.4
1174.515	2607.4
1179.48	2612.4
1184.44	2593.4
1189.395	2543.4
1194.345	2523.4
1199.29	2522.4
1204.23	2530.4
1209.165	2528.4
1214.095	2524.4
1219.021	2557.4
1223.941	2569.4
1228.856	2572.4
1233.766	2601.4
1238.672	2584.4
1243.572	2603.4
1248.467	2572.4
1253.358	2540.4
1258.244	2498.4
1263.124	2439.4
1268	2408.4
1272.871	2367.4
1277.737	2355.4
1282.599	2343.4
1287.455	2359.4
1292.306	2354.4
1297.153	2367.4
1301.995	2374.4
1306.832	2377.4
1311.664	2415.4
1316.491	2427.4
1321.314	2404.4
1326.132	2397.4
1330.945	2369.4
1335.753	2334.4
1340.556	2283.4
1345.354	2261.4
1350.148	2199.4
1354.937	2171.4
1359.722	2145.4
1364.501	2121.4
1369.276	2067.4
1374.046	2053.4
1378.811	2035.4
1383.572	2029.4
1388.327	2015.4
1393.079	2006.4
1397.825	2037.4
1402.567	2002.4
1407.304	2010.4
1412.036	1999.4
1416.764	2034.4
1421.487	2034.4
1426.205	2035.4
1430.919	2024.4
1435.628	2040.4
1440.333	2071.4
1445.032	2086.4
1449.727	2101.4
1454.418	2102.4
1459.104	2102.4
1463.785	2068.4
1468.462	2030.4
1473.134	1986.4
1477.802	1930.4
1482.465	1912.4
1487.123	1888.4
1491.777	1824.4
1496.426	1824.4
1501.071	1794.4
1505.711	1786.4
1510.347	1775.4
1514.978	1788.4
1519.604	1770.4
1524.226	1779.4
1528.844	1758.4
1533.457	1742.4
1538.065	1744.4
1542.669	1736.4
1547.269	1729.4
1551.864	1761.4
1556.454	1763.4
1561.041	1789.4
1565.622	1770.4
1570.199	1793.4
1574.772	1806.4
1579.34	1836.4
1583.904	1849.4
1588.464	1870.4
1593.019	1877.4
1597.569	1872.4
1602.115	1880.4
1606.657	1850.4
1611.195	1870.4
1615.728	1835.4
1620.256	1840.4
1624.78	1853.4
1629.3	1877.4
1633.816	1854.4
1638.327	1873.4
1642.834	1869.4
1647.336	1879.4
1651.834	1876.4
1656.328	1868.4
1660.817	1869.4
1665.302	1854.4
1669.783	1804.4
1674.259	1778.4
1678.732	1732.4
1683.199	1693.4
1687.663	1638.4
1692.122	1586.4
1696.577	1519.4
1701.028	1433.4
1705.474	1410.4
1709.917	1352.4
1714.355	1315.4
1718.788	1307.4
1723.218	1317.4
1727.643	1321.4
1732.064	1316.4
1736.481	1304.4
1740.893	1278.4
1745.301	1253.4
1749.705	1232.4
1754.105	1198.4
1758.501	1186.4
1762.893	1176.4
1767.28	1157.4
1771.663	1129.4
1776.042	1126.4
1780.417	1110.4
1784.787	1104.4
1789.154	1079.4
1793.516	1081.4
1797.874	1053.4
1802.228	1039.4
1806.578	1036.4
1810.924	1022.4
1815.266	1038.4
1819.603	1023.4
1823.937	1022.4
1828.266	1009.4
1832.591	1011.4
1836.913	995.4
1841.23	1021.4
1845.543	1010.4
1849.852	1012.4
1854.156	1013.4
1858.457	1009.4
1862.754	1023.4
1867.047	1012.4
1871.335	1017.4
1875.62	1025.4
1879.9	1023.4
1884.177	1014.4
1888.449	991.4
1892.718	957.4
1896.982	964.4
1901.243	957.4
1905.499	931.4
1909.752	917.4
1914	906.4
1918.245	905.4
1922.485	882.4
1926.722	882.4
1930.954	873.4
1935.183	864.4
1939.408	869.4
1943.628	862.4
1947.845	858.4
1952.058	852.4
1956.267	836.4
1960.472	829.4
1964.673	820.4
1968.87	820.4
1973.063	825.4
1977.252	802.4
1981.438	816.4
1985.619	807.4
1989.797	803.4
1993.971	818.4
1998.14	820.4
2002.306	800.4
2006.469	818.4
2010.627	819.4
2014.781	824.4
2018.932	811.4
2023.078	819.4
2027.221	809.4
2031.36	799.4
2035.495	790.4
2039.627	770.4
2043.754	767.4
2047.878	773.4
2051.998	753.4
2056.114	764.4
2060.226	752.4
2064.334	746.4
2068.439	749.4
2072.54	742.4
2076.637	743.4
2080.73	729.4
2084.82	734.4
2088.906	729.4
2092.988	711.4
2097.066	705.4
2101.14	702.4
2105.211	698.4
2109.278	674.4
2113.342	670.4
2117.401	663.4
2121.457	657.4
2125.509	652.4
2129.558	654.4
2133.602	655.4
2137.643	665.4
2141.681	662.4
2145.714	654.4
2149.744	657.4
2153.77	663.4
2157.793	665.4
2161.812	659.4
2165.827	647.4
2169.838	630.4
2173.846	618.4
2177.851	618.4
2181.851	600.4
2185.848	609.4
2189.841	586.4
2193.831	588.4
2197.817	588.4
2201.799	575.4
2205.778	575.4
2209.753	568.4
2213.725	587.4
2217.693	577.4
2221.657	583.4
2225.618	591.4
2229.575	580.4
2233.529	573.4
2237.479	550.4
2241.425	548.4
2245.368	550.4
2249.307	527.4
2253.243	531.4
2257.175	519.4
2261.104	510.4
2265.029	511.4
2268.95	513.4
2272.868	497.4
2276.783	500.4
2280.694	504.4
2284.601	481.4
2288.505	479.4
2292.405	472.4
2296.302	470.4
2300.195	461.4
2304.085	438.4
2307.971	440.4
2311.854	444.4
2315.734	426.4
2319.609	420.4
2323.482	424.4
2327.351	428.4
2331.216	440.4
2335.078	439.4
2338.937	428.4
2342.792	412.4
2346.643	407.4
2350.492	411.4
2354.336	404.4
2358.178	412.4
2362.015	410.4
2365.85	413.4
2369.681	412.4
2373.508	405.4
2377.333	409.4
2381.153	410.4
2384.971	422.4
2388.785	409.4
2392.595	403.4
2396.402	394.4
2400.206	396.4
2404.007	404.4
2407.804	381.4
2411.597	381.4
2415.388	385.4
2419.174	387.4
2422.958	385.4
2426.738	377.4
2430.515	376.4
2434.289	387.4
2438.059	367.4
2441.825	362.4
2445.589	351.4
2449.349	358.4
2453.106	350.4
2456.859	348.4
2460.61	358.4
2464.356	345.4
2468.1	333.4
2471.84	332.4
2475.577	337.4
2479.311	327.4
2483.041	320.4
2486.768	324.4
2490.492	321.4
2494.213	334.4
2497.93	313.4
2501.644	318.4
2505.355	301.4
2509.062	295.4
2512.766	306.4
2516.467	298.4
2520.165	301.4
2523.859	295.4
2527.551	292.4
2531.239	283.4
2534.923	278.4
2538.605	267.4
2542.283	266.4
2545.958	277.4
2549.63	266.4
2553.299	262.4
2556.964	269.4
2560.626	252.4
2564.285	246.4
2567.941	246.4
2571.594	251.4
2575.243	245.4
2578.89	240.4
2582.533	234.4
2586.173	230.4
2589.809	227.4
2593.443	227.4
2597.073	226.4
2600.701	226.4
2604.325	212.4
2607.946	228.4
2611.564	225.4
2615.178	219.4
2618.79	222.4
2622.398	219.4
2626.004	206.4
2629.606	210.4
2633.205	208.4
2636.801	202.4
2640.394	208.4
2643.983	207.4
2647.57	206.4
2651.153	200.4
2654.734	193.4
2658.311	189.4
2661.885	186.4
2665.456	193.4
2669.025	185.4
2672.589	193.4
2676.151	189.4
2679.71	188.4
2683.266	179.4
2686.819	170.4
2690.368	164.4
2693.915	163.4
2697.458	164.4
2700.999	163.4
2704.536	170.4
2708.071	162.4
2711.602	160.4
2715.13	152.4
2718.656	139.4
2722.178	143.4
2725.697	143.4
2729.214	135.4
2732.727	145.4
2736.237	142.4
2739.744	146.4
2743.249	137.4
2746.75	128.4
2750.248	122.4
2753.743	126.4
2757.236	117.4
2760.725	114.4
2764.211	112.4
2767.695	106.4
2771.175	102.4
2774.652	98.4
2778.127	111.4
2781.598	98.4
2785.067	120.4
2788.532	107.4
2791.995	109.4
2795.455	109.4
2798.911	121.4
2802.365	116.4
2805.816	116.4
2809.264	106.4
2812.709	122.4
2816.151	117.4
2819.59	117.4
2823.026	113.4
2826.46	110.4
2829.89	117.4
2833.318	108.4
2836.742	112.4
2840.164	118.4
2843.583	110.4
2846.999	123.4
2850.412	122.4
2853.822	119.4
2857.229	118.4
2860.634	132.4
2864.035	133.4
2867.434	130.4
2870.83	144.4
2874.223	148.4
2877.613	151.4
2881	163.4
2884.385	164.4
2887.766	150.4
2891.145	151.4
2894.521	164.4
2897.894	160.4
2901.264	158.4
2904.631	164.4
2907.996	167.4
2911.358	176.4
2914.717	167.4
2918.073	177.4
2921.426	187.4
2924.777	182.4
2928.124	202.4
2931.469	196.4
2934.811	202.4
2938.15	215.4
2941.487	208.4
2944.821	212.4
2948.152	213.4
2951.48	203.4
2954.805	211.4
2958.128	211.4
2961.447	196.4
2964.765	195.4
2968.079	193.4
2971.39	199.4
2974.699	208.4
2978.005	192.4
2981.308	196.4
2984.609	204.4
2987.907	197.4
2991.202	208.4
2994.494	207.4
2997.784	206.4
3001.07	211.4
3004.355	220.4
3007.636	212.4
3010.915	222.4
3014.191	223.4
3017.464	231.4
3020.734	230.4
3024.002	235.4
3027.267	231.4
3030.53	241.4
3033.789	256.4
3037.046	242.4
3040.301	252.4
3043.552	268.4
3046.801	272.4
3050.048	280.4
3053.291	287.4
3056.532	308.4
3059.771	314.4
3063.006	327.4
3066.239	340.4
3069.469	350.4
3072.697	362.4
3075.922	366.4
3079.144	372.4
3082.364	386.4
3085.581	390.4
3088.795	407.4
3092.007	408.4
3095.216	421.4
3098.423	419.4
3101.627	447.4
3104.828	436.4
3108.026	459.4
3111.222	461.4
3114.416	491.4
3117.607	486.4
3120.795	500.4
3123.98	502.4
3127.163	516.4
3130.344	530.4
3133.521	539.4
3136.696	565.4
3139.869	562.4
3143.039	574.4
3146.206	579.4
3149.371	596.4
3152.533	607.4
3155.693	595.4
3158.85	607.4
3162.005	604.4
3165.157	622.4
3168.306	604.4
3171.453	623.4
3174.597	622.4
3177.739	632.4
3180.878	633.4
3184.014	638.4
3187.149	630.4
3190.28	639.4
3193.409	645.4
3196.536	643.4
3199.659	650.4
3202.781	653.4
3205.9	656.4
3209.016	653.4
3212.13	656.4
3215.241	641.4
3218.35	642.4
3221.456	633.4
3224.56	623.4
3227.661	621.4
3230.76	626.4
3233.856	599.4
3236.95	583.4
3240.041	582.4
3243.13	565.4
3246.216	562.4
3249.3	541.4
3252.382	561.4
3255.46	544.4
3258.537	542.4
3261.611	538.4
3264.682	522.4
3267.751	536.4
3270.818	523.4
3273.882	513.4
3276.943	515.4
3280.002	514.4
3283.059	494.4
3286.113	504.4
3289.165	503.4
3292.214	491.4
3295.261	480.4
3298.306	477.4
3301.348	470.4
3304.387	479.4
3307.425	461.4
3310.459	459.4
3313.492	459.4
3316.521	447.4
3319.549	454.4
3322.574	442.4
3325.597	433.4
3328.617	432.4
3331.635	447.4
3334.65	446.4
3337.663	424.4
3340.674	442.4
3343.682	441.4
3346.688	427.4
3349.691	441.4
3352.692	428.4
3355.691	426.4
3358.687	416.4
3361.681	408.4
3364.673	417.4
3367.662	417.4
3370.649	398.4
3373.633	382.4
3376.615	385.4
3379.595	388.4
3382.572	369.4
3385.547	361.4
3388.52	368.4
3391.49	354.4
3394.458	354.4
3397.424	350.4
3400.387	346.4
3403.348	335.4
3406.307	318.4
3409.263	320.4
3412.217	319.4
3415.168	315.4
3418.118	305.4
3421.065	302.4
3424.009	304.4
3426.951	293.4
3429.891	289.4
3432.829	277.4
3435.764	283.4
3438.697	272.4
3441.628	256.4
3444.557	251.4
3447.483	254.4
3450.407	226.4
3453.328	218.4
3456.247	208.4
3459.164	194.4
3462.079	188.4
3464.991	180.4
3467.902	173.4
3470.809	184.4
3473.715	152.4
3476.618	148.4
3479.519	141.4
3482.418	138.4
3485.315	123.4
3488.209	124.4
3491.101	118.4
3493.99	120.4
3496.878	104.4
3499.763	92.4
3502.646	89.4
3505.527	81.4
3508.405	85.4
3511.281	73.4
3514.155	70.4
3517.027	69.4
3519.897	51.4
3522.764	39.4
3525.629	30.4
3528.492	25.4
3531.352	31.4
3534.211	14.4
3537.067	9.4
3539.921	16.4
3542.773	-0.6
3545.622	-14.6
3548.469	-6.6
3551.315	-16.6
3554.157	-20.6
3556.998	-32.6
3559.837	-19.6
3562.673	-28.6
3565.507	-30.6
3568.339	-41.6
3571.169	-49.6
3573.996	-47.6
3576.822	-44.6
3579.645	-44.6
3582.466	-51.6
3585.285	-56.6
3588.101	-48.6
3590.916	-66.6
3593.728	-73.6
3596.538	-73.6
3599.346	-76.6
3602.152	-75.6
3604.956	-72.6
3607.757	-73.6
3610.556	-78.6
3613.354	-74.6
3616.149	-90.6
3618.942	-96.6
3621.732	-91.6
3624.521	-88.6
3627.307	-86.6
3630.092	-90.6
3632.874	-87.6
3635.654	-99.6
3638.432	-97.6
3641.208	-98.6
3643.982	-103.6
3646.753	-110.6
3649.523	-109.6
3652.29	-105.6
3655.055	-105.6
3657.818	-108.6
3660.579	-106.6
3663.338	-108.6
3666.095	-112.6
3668.849	-122.6
3671.602	-120.6
3674.352	-122.6
3677.101	-121.6
3679.847	-125.6
3682.591	-124.6
3685.333	-120.6
3688.073	-118.6
3690.811	-130.6
3693.547	-135.6
3696.281	-126.6
3699.013	-126.6
3701.742	-133.6
3704.47	-131.6
3707.195	-126.6
3709.919	-133.6
3712.64	-128.6
3715.359	-136.6
3718.076	-135.6
3720.792	-137.6
3723.505	-140.6
3726.216	-130.6
3728.925	-141.6
3731.632	-136.6
3734.336	-146.6
3737.039	-139.6
3739.74	-139.6
3742.439	-146.6
3745.136	-136.6
3747.83	-147.6
3750.523	-142.6
3753.213	-139.6
3755.902	-141.6
3758.589	-148.6
3761.273	-140.6
3763.956	-144.6
3766.636	-143.6
3769.315	-136.6
3771.991	-136.6
3774.665	-146.6
3777.338	-139.6
3780.008	-142.6
3782.677	-148.6
3785.343	-148.6
3788.007	-148.6
3790.67	-144.6
3793.33	-141.6
3795.989	-141.6
3798.645	-139.6
3801.299	-144.6
3803.952	-149.6
3806.602	-147.6
3809.251	-153.6
3811.897	-149.6
3814.542	-148.6
3817.184	-141.6
3819.825	-143.6
3822.463	-142.6
3825.1	-144.6
3827.735	-141.6
3830.367	-148.6
3832.998	-154.6
3835.627	-148.6
3838.253	-146.6
3840.878	-144.6
3843.501	-139.6
3846.122	-145.6
3848.741	-151.6
3851.358	-143.6
3853.973	-156.6
3856.586	-145.6
3859.197	-147.6
3861.806	-142.6
3864.414	-145.6
3867.019	-139.6
3869.622	-143.6
3872.224	-130.6
3874.823	-119.6
3877.421	-106.6
3880.016	-80.6
3882.61	-40.6
3885.202	-39.6
3887.792	-65.6
3890.38	-95.6
3892.966	-127.6
3895.55	-135.6
3898.132	-142.6
3900.713	-149.6
3903.291	-145.6
3905.868	-146.6
3908.442	-144.6
3911.015	-150.6
3913.586	-148.6
3916.155	-153.6
3918.722	-147.6
3921.287	-151.6
3923.85	-151.6
3926.411	-150.6
3928.971	-149.6
3931.528	-150.6
3934.084	-143.6
3936.638	-146.6
3939.19	-151.6
3941.74	-156.6
3944.288	-154.6
3946.834	-151.6
3949.378	-151.6
3951.921	-147.6
3954.462	-153.6
3957	-148.6
3959.537	-144.6
3962.072	-152.6
3964.606	-146.6
3967.137	-147.6
3969.667	-149.6
3972.194	-146.6
3974.72	-148.6
3977.244	-153.6
3979.766	-152.6
3982.286	-149.6
3984.805	-154.6
3987.321	-152.6
3989.836	-141.6
3992.349	-145.6
3994.86	-145.6
3997.369	-142.6
3999.877	-147.6
4002.382	-143.6
4004.886	-150.6
4007.388	-149.6
4009.888	-147.6
4012.386	-147.6
4014.883	-148.6
4017.377	-149.6
4019.87	-144.6
4022.361	-150.6
4024.85	-149.6
4027.338	-151.6
4029.823	-152.6
4032.307	-147.6
4034.789	-150.6
4037.269	-152.6
4039.747	-144.6
4042.224	-147.6
4044.699	-151.6
4047.172	-147.6
4049.643	-145.6
4052.112	-147.6
4054.58	-148.6
4057.046	-146.6
4059.51	-147.6
4061.972	-144.6
4064.432	-145.6
4066.891	-147.6
4069.348	-146.6
4071.803	-152.6
4074.256	-149.6
4076.708	-141.6
4079.158	-144.6
4081.606	-138.6
4084.052	-150.6
4086.497	-146.6
4088.939	-141.6
4091.38	-150.6
4093.819	-145.6
4096.257	-154.6
4098.693	-154.6
4101.127	-152.6
4103.559	-151.6
4105.989	25.4
4108.418	15.4
4110.845	18.4
4113.27	10.4
4115.694	8.4
4118.115	11.4
4120.535	-149.6
4122.954	-146.6
4125.37	-146.6
4127.785	-146.6
4130.198	-150.6
4132.609	-152.6
4135.019	-156.6
4137.427	-153.6
4139.833	-153.6
4142.237	-156.6
