Data from 2018-2-8_conc=4_n=7_RamanShift_04.txt Node
Date: Mon Mar 12 15:29:58 IST 2018
User: aro
Spectrometer: QEPB0276
Trigger mode: 0
Integration Time (sec): 3.000000E1
Scans to average: 1
Electric dark correction enabled: true
Nonlinearity correction enabled: false
Boxcar width: 0
XAxis mode: Raman Shifts
Number of Pixels in Spectrum: 1044
>>>>>Begin Spectral Data<<<<<
160.701	19.1
166.742	47.1
172.777	136.1
178.805	432.1
184.826	1183.1
190.841	2527.1
196.849	4248.1
202.85	5568.1
208.845	6046.1
214.833	6050.1
220.815	5934.1
226.789	5920.1
232.758	5931.1
238.719	5894.1
244.674	5812.1
250.623	5785.1
256.565	5661.1
262.5	5545.1
268.429	5482.1
274.351	5462.1
280.267	5399.1
286.176	5369.1
292.079	5334.1
297.975	5267.1
303.865	5261.1
309.748	5276.1
315.625	5243.1
321.495	5218.1
327.359	5198.1
333.217	5219.1
339.068	5214.1
344.912	5203.1
350.751	5233.1
356.583	5228.1
362.408	5229.1
368.227	5272.1
374.04	5259.1
379.847	5291.1
385.647	5305.1
391.44	5289.1
397.228	5342.1
403.009	5365.1
408.784	5387.1
414.553	5406.1
420.315	5451.1
426.071	5418.1
431.821	5402.1
437.565	5422.1
443.302	5409.1
449.033	5410.1
454.758	5379.1
460.477	5366.1
466.189	5349.1
471.896	5293.1
477.596	5269.1
483.29	5242.1
488.978	5237.1
494.66	5227.1
500.335	5149.1
506.005	5015.1
511.668	4865.1
517.325	4711.1
522.977	4618.1
528.622	4539.1
534.261	4465.1
539.894	4412.1
545.521	4401.1
551.141	4386.1
556.756	4335.1
562.365	4287.1
567.968	4267.1
573.565	4244.1
579.155	4228.1
584.74	4202.1
590.319	4184.1
595.892	4188.1
601.459	4194.1
607.02	4168.1
612.575	4114.1
618.124	4108.1
623.667	4041.1
629.204	3988.1
634.735	3989.1
640.261	3967.1
645.781	3970.1
651.294	3939.1
656.802	3923.1
662.304	3915.1
667.8	3875.1
673.29	3889.1
678.775	3900.1
684.254	3868.1
689.726	3845.1
695.193	3860.1
700.655	3820.1
706.11	3812.1
711.56	3777.1
717.004	3739.1
722.442	3756.1
727.874	3717.1
733.301	3689.1
738.722	3709.1
744.137	3668.1
749.547	3686.1
754.951	3690.1
760.349	3650.1
765.741	3668.1
771.128	3678.1
776.509	3704.1
781.885	3758.1
787.254	3742.1
792.618	3747.1
797.977	3742.1
803.33	3699.1
808.677	3658.1
814.019	3640.1
819.355	3610.1
824.686	3596.1
830.011	3572.1
835.33	3572.1
840.644	3550.1
845.952	3549.1
851.255	3545.1
856.552	3521.1
861.844	3510.1
867.13	3510.1
872.41	3504.1
877.686	3439.1
882.955	3431.1
888.219	3408.1
893.478	3350.1
898.731	3314.1
903.979	3286.1
909.221	3234.1
914.458	3255.1
919.69	3247.1
924.916	3240.1
930.136	3264.1
935.351	3242.1
940.561	3242.1
945.766	3213.1
950.965	3206.1
956.158	3189.1
961.347	3168.1
966.529	3142.1
971.707	3100.1
976.879	3042.1
982.046	3031.1
987.208	3008.1
992.364	3002.1
997.515	3011.1
1002.66	3043.1
1007.801	3060.1
1012.936	3104.1
1018.066	3112.1
1023.19	3120.1
1028.309	3088.1
1033.423	3110.1
1038.532	3087.1
1043.636	3054.1
1048.734	3015.1
1053.827	3004.1
1058.915	2967.1
1063.998	2945.1
1069.075	2929.1
1074.147	2927.1
1079.214	2921.1
1084.276	2955.1
1089.333	2950.1
1094.385	2973.1
1099.431	2959.1
1104.472	2958.1
1109.509	2941.1
1114.54	2904.1
1119.565	2880.1
1124.586	2839.1
1129.602	2805.1
1134.613	2788.1
1139.618	2750.1
1144.619	2754.1
1149.614	2763.1
1154.604	2764.1
1159.589	2758.1
1164.57	2777.1
1169.545	2801.1
1174.515	2772.1
1179.48	2780.1
1184.44	2739.1
1189.395	2722.1
1194.345	2701.1
1199.29	2688.1
1204.23	2693.1
1209.165	2678.1
1214.095	2712.1
1219.021	2716.1
1223.941	2746.1
1228.856	2723.1
1233.766	2745.1
1238.672	2770.1
1243.572	2748.1
1248.467	2743.1
1253.358	2698.1
1258.244	2675.1
1263.124	2635.1
1268	2581.1
1272.871	2551.1
1277.737	2544.1
1282.599	2523.1
1287.455	2502.1
1292.306	2500.1
1297.153	2551.1
1301.995	2554.1
1306.832	2583.1
1311.664	2592.1
1316.491	2597.1
1321.314	2566.1
1326.132	2583.1
1330.945	2548.1
1335.753	2512.1
1340.556	2462.1
1345.354	2434.1
1350.148	2377.1
1354.937	2358.1
1359.722	2283.1
1364.501	2265.1
1369.276	2244.1
1374.046	2200.1
1378.811	2190.1
1383.572	2179.1
1388.327	2165.1
1393.079	2171.1
1397.825	2150.1
1402.567	2173.1
1407.304	2173.1
1412.036	2163.1
1416.764	2157.1
1421.487	2181.1
1426.205	2206.1
1430.919	2170.1
1435.628	2188.1
1440.333	2201.1
1445.032	2228.1
1449.727	2265.1
1454.418	2264.1
1459.104	2262.1
1463.785	2220.1
1468.462	2197.1
1473.134	2143.1
1477.802	2093.1
1482.465	2051.1
1487.123	2014.1
1491.777	1985.1
1496.426	1972.1
1501.071	1949.1
1505.711	1947.1
1510.347	1941.1
1514.978	1931.1
1519.604	1937.1
1524.226	1938.1
1528.844	1916.1
1533.457	1922.1
1538.065	1890.1
1542.669	1897.1
1547.269	1884.1
1551.864	1903.1
1556.454	1935.1
1561.041	1953.1
1565.622	1959.1
1570.199	1974.1
1574.772	1974.1
1579.34	1989.1
1583.904	2020.1
1588.464	2045.1
1593.019	2042.1
1597.569	2043.1
1602.115	2058.1
1606.657	2063.1
1611.195	2039.1
1615.728	2035.1
1620.256	2038.1
1624.78	2022.1
1629.3	2025.1
1633.816	2019.1
1638.327	2060.1
1642.834	2069.1
1647.336	2057.1
1651.834	2057.1
1656.328	2090.1
1660.817	2080.1
1665.302	2059.1
1669.783	2017.1
1674.259	1963.1
1678.732	1933.1
1683.199	1860.1
1687.663	1810.1
1692.122	1736.1
1696.577	1672.1
1701.028	1601.1
1705.474	1531.1
1709.917	1491.1
1714.355	1446.1
1718.788	1438.1
1723.218	1455.1
1727.643	1447.1
1732.064	1437.1
1736.481	1436.1
1740.893	1396.1
1745.301	1375.1
1749.705	1328.1
1754.105	1314.1
1758.501	1297.1
1762.893	1277.1
1767.28	1271.1
1771.663	1257.1
1776.042	1231.1
1780.417	1216.1
1784.787	1219.1
1789.154	1191.1
1793.516	1185.1
1797.874	1174.1
1802.228	1166.1
1806.578	1147.1
1810.924	1135.1
1815.266	1111.1
1819.603	1131.1
1823.937	1118.1
1828.266	1104.1
1832.591	1110.1
1836.913	1115.1
1841.23	1121.1
1845.543	1121.1
1849.852	1119.1
1854.156	1125.1
1858.457	1122.1
1862.754	1119.1
1867.047	1119.1
1871.335	1124.1
1875.62	1130.1
1879.9	1112.1
1884.177	1112.1
1888.449	1099.1
1892.718	1081.1
1896.982	1069.1
1901.243	1046.1
1905.499	1033.1
1909.752	1031.1
1914	1007.1
1918.245	1005.1
1922.485	997.1
1926.722	985.1
1930.954	977.1
1935.183	983.1
1939.408	969.1
1943.628	966.1
1947.845	955.1
1952.058	956.1
1956.267	950.1
1960.472	930.1
1964.673	919.1
1968.87	920.1
1973.063	905.1
1977.252	894.1
1981.438	903.1
1985.619	903.1
1989.797	906.1
1993.971	919.1
1998.14	919.1
2002.306	903.1
2006.469	913.1
2010.627	914.1
2014.781	917.1
2018.932	917.1
2023.078	927.1
2027.221	905.1
2031.36	899.1
2035.495	892.1
2039.627	881.1
2043.754	863.1
2047.878	861.1
2051.998	847.1
2056.114	845.1
2060.226	867.1
2064.334	826.1
2068.439	834.1
2072.54	826.1
2076.637	843.1
2080.73	835.1
2084.82	821.1
2088.906	816.1
2092.988	813.1
2097.066	812.1
2101.14	788.1
2105.211	783.1
2109.278	778.1
2113.342	760.1
2117.401	752.1
2121.457	751.1
2125.509	738.1
2129.558	743.1
2133.602	736.1
2137.643	737.1
2141.681	740.1
2145.714	745.1
2149.744	749.1
2153.77	742.1
2157.793	739.1
2161.812	728.1
2165.827	710.1
2169.838	709.1
2173.846	699.1
2177.851	700.1
2181.851	684.1
2185.848	667.1
2189.841	684.1
2193.831	670.1
2197.817	656.1
2201.799	651.1
2205.778	655.1
2209.753	663.1
2213.725	652.1
2217.693	657.1
2221.657	661.1
2225.618	642.1
2229.575	656.1
2233.529	639.1
2237.479	643.1
2241.425	624.1
2245.368	626.1
2249.307	607.1
2253.243	609.1
2257.175	596.1
2261.104	593.1
2265.029	577.1
2268.95	579.1
2272.868	565.1
2276.783	565.1
2280.694	557.1
2284.601	544.1
2288.505	535.1
2292.405	527.1
2296.302	528.1
2300.195	508.1
2304.085	510.1
2307.971	496.1
2311.854	499.1
2315.734	481.1
2319.609	482.1
2323.482	489.1
2327.351	488.1
2331.216	491.1
2335.078	499.1
2338.937	479.1
2342.792	465.1
2346.643	471.1
2350.492	462.1
2354.336	457.1
2358.178	458.1
2362.015	462.1
2365.85	470.1
2369.681	472.1
2373.508	461.1
2377.333	470.1
2381.153	448.1
2384.971	473.1
2388.785	461.1
2392.595	450.1
2396.402	455.1
2400.206	445.1
2404.007	454.1
2407.804	445.1
2411.597	437.1
2415.388	433.1
2419.174	439.1
2422.958	433.1
2426.738	437.1
2430.515	429.1
2434.289	436.1
2438.059	420.1
2441.825	408.1
2445.589	417.1
2449.349	398.1
2453.106	407.1
2456.859	398.1
2460.61	398.1
2464.356	388.1
2468.1	379.1
2471.84	374.1
2475.577	372.1
2479.311	375.1
2483.041	372.1
2486.768	369.1
2490.492	368.1
2494.213	377.1
2497.93	363.1
2501.644	365.1
2505.355	353.1
2509.062	350.1
2512.766	354.1
2516.467	339.1
2520.165	338.1
2523.859	338.1
2527.551	334.1
2531.239	323.1
2534.923	317.1
2538.605	319.1
2542.283	302.1
2545.958	302.1
2549.63	310.1
2553.299	312.1
2556.964	307.1
2560.626	305.1
2564.285	294.1
2567.941	291.1
2571.594	288.1
2575.243	293.1
2578.89	286.1
2582.533	277.1
2586.173	272.1
2589.809	263.1
2593.443	267.1
2597.073	262.1
2600.701	261.1
2604.325	260.1
2607.946	261.1
2611.564	263.1
2615.178	252.1
2618.79	256.1
2622.398	249.1
2626.004	252.1
2629.606	255.1
2633.205	238.1
2636.801	237.1
2640.394	242.1
2643.983	242.1
2647.57	235.1
2651.153	236.1
2654.734	238.1
2658.311	226.1
2661.885	223.1
2665.456	224.1
2669.025	218.1
2672.589	216.1
2676.151	221.1
2679.71	215.1
2683.266	207.1
2686.819	204.1
2690.368	209.1
2693.915	203.1
2697.458	195.1
2700.999	197.1
2704.536	194.1
2708.071	190.1
2711.602	182.1
2715.13	184.1
2718.656	172.1
2722.178	178.1
2725.697	177.1
2729.214	168.1
2732.727	173.1
2736.237	174.1
2739.744	159.1
2743.249	163.1
2746.75	161.1
2750.248	153.1
2753.743	153.1
2757.236	148.1
2760.725	152.1
2764.211	136.1
2767.695	147.1
2771.175	133.1
2774.652	135.1
2778.127	135.1
2781.598	131.1
2785.067	150.1
2788.532	136.1
2791.995	150.1
2795.455	137.1
2798.911	146.1
2802.365	139.1
2805.816	153.1
2809.264	147.1
2812.709	147.1
2816.151	149.1
2819.59	146.1
2823.026	139.1
2826.46	136.1
2829.89	138.1
2833.318	146.1
2836.742	156.1
2840.164	152.1
2843.583	149.1
2846.999	156.1
2850.412	143.1
2853.822	150.1
2857.229	150.1
2860.634	165.1
2864.035	160.1
2867.434	171.1
2870.83	169.1
2874.223	183.1
2877.613	186.1
2881	201.1
2884.385	201.1
2887.766	188.1
2891.145	196.1
2894.521	193.1
2897.894	208.1
2901.264	198.1
2904.631	210.1
2907.996	194.1
2911.358	200.1
2914.717	212.1
2918.073	220.1
2921.426	226.1
2924.777	223.1
2928.124	234.1
2931.469	233.1
2934.811	238.1
2938.15	244.1
2941.487	244.1
2944.821	258.1
2948.152	250.1
2951.48	254.1
2954.805	255.1
2958.128	255.1
2961.447	244.1
2964.765	246.1
2968.079	245.1
2971.39	246.1
2974.699	255.1
2978.005	244.1
2981.308	252.1
2984.609	246.1
2987.907	245.1
2991.202	254.1
2994.494	257.1
2997.784	259.1
3001.07	267.1
3004.355	278.1
3007.636	269.1
3010.915	280.1
3014.191	291.1
3017.464	292.1
3020.734	283.1
3024.002	284.1
3027.267	304.1
3030.53	303.1
3033.789	313.1
3037.046	313.1
3040.301	323.1
3043.552	337.1
3046.801	345.1
3050.048	354.1
3053.291	362.1
3056.532	381.1
3059.771	402.1
3063.006	413.1
3066.239	418.1
3069.469	438.1
3072.697	444.1
3075.922	443.1
3079.144	458.1
3082.364	483.1
3085.581	495.1
3088.795	495.1
3092.007	505.1
3095.216	513.1
3098.423	538.1
3101.627	537.1
3104.828	556.1
3108.026	561.1
3111.222	584.1
3114.416	578.1
3117.607	600.1
3120.795	614.1
3123.98	620.1
3127.163	637.1
3130.344	644.1
3133.521	662.1
3136.696	686.1
3139.869	685.1
3143.039	714.1
3146.206	706.1
3149.371	730.1
3152.533	743.1
3155.693	742.1
3158.85	758.1
3162.005	745.1
3165.157	761.1
3168.306	753.1
3171.453	760.1
3174.597	768.1
3177.739	786.1
3180.878	782.1
3184.014	788.1
3187.149	787.1
3190.28	789.1
3193.409	795.1
3196.536	798.1
3199.659	809.1
3202.781	800.1
3205.9	812.1
3209.016	812.1
3212.13	807.1
3215.241	806.1
3218.35	806.1
3221.456	779.1
3224.56	766.1
3227.661	764.1
3230.76	747.1
3233.856	736.1
3236.95	742.1
3240.041	722.1
3243.13	695.1
3246.216	702.1
3249.3	684.1
3252.382	689.1
3255.46	680.1
3258.537	673.1
3261.611	657.1
3264.682	652.1
3267.751	648.1
3270.818	665.1
3273.882	644.1
3276.943	653.1
3280.002	647.1
3283.059	629.1
3286.113	626.1
3289.165	636.1
3292.214	616.1
3295.261	612.1
3298.306	618.1
3301.348	585.1
3304.387	584.1
3307.425	588.1
3310.459	574.1
3313.492	570.1
3316.521	570.1
3319.549	569.1
3322.574	564.1
3325.597	541.1
3328.617	556.1
3331.635	558.1
3334.65	552.1
3337.663	538.1
3340.674	555.1
3343.682	558.1
3346.688	546.1
3349.691	538.1
3352.692	539.1
3355.691	541.1
3358.687	522.1
3361.681	541.1
3364.673	517.1
3367.662	512.1
3370.649	513.1
3373.633	503.1
3376.615	477.1
3379.595	478.1
3382.572	465.1
3385.547	474.1
3388.52	454.1
3391.49	453.1
3394.458	447.1
3397.424	443.1
3400.387	421.1
3403.348	419.1
3406.307	420.1
3409.263	430.1
3412.217	416.1
3415.168	414.1
3418.118	414.1
3421.065	396.1
3424.009	377.1
3426.951	380.1
3429.891	371.1
3432.829	371.1
3435.764	353.1
3438.697	336.1
3441.628	342.1
3444.557	318.1
3447.483	314.1
3450.407	292.1
3453.328	291.1
3456.247	276.1
3459.164	267.1
3462.079	253.1
3464.991	248.1
3467.902	232.1
3470.809	236.1
3473.715	218.1
3476.618	207.1
3479.519	201.1
3482.418	194.1
3485.315	179.1
3488.209	167.1
3491.101	168.1
3493.99	170.1
3496.878	158.1
3499.763	144.1
3502.646	134.1
3505.527	123.1
3508.405	130.1
3511.281	109.1
3514.155	109.1
3517.027	94.1
3519.897	85.1
3522.764	73.1
3525.629	68.1
3528.492	56.1
3531.352	54.1
3534.211	42.1
3537.067	43.1
3539.921	40.1
3542.773	27.1
3545.622	21.1
3548.469	15.1
3551.315	10.1
3554.157	6.1
3556.998	0.1
3559.837	-13.9
3562.673	-6.9
3565.507	-11.9
3568.339	-21.9
3571.169	-32.9
3573.996	-30.9
3576.822	-27.9
3579.645	-29.9
3582.466	-32.9
3585.285	-42.9
3588.101	-33.9
3590.916	-51.9
3593.728	-61.9
3596.538	-53.9
3599.346	-60.9
3602.152	-60.9
3604.956	-59.9
3607.757	-59.9
3610.556	-73.9
3613.354	-75.9
3616.149	-81.9
3618.942	-84.9
3621.732	-83.9
3624.521	-78.9
3627.307	-84.9
3630.092	-90.9
3632.874	-84.9
3635.654	-94.9
3638.432	-90.9
3641.208	-95.9
3643.982	-94.9
3646.753	-101.9
3649.523	-106.9
3652.29	-96.9
3655.055	-102.9
3657.818	-108.9
3660.579	-108.9
3663.338	-104.9
3666.095	-109.9
3668.849	-119.9
3671.602	-111.9
3674.352	-114.9
3677.101	-117.9
3679.847	-121.9
3682.591	-121.9
3685.333	-119.9
3688.073	-117.9
3690.811	-123.9
3693.547	-130.9
3696.281	-125.9
3699.013	-127.9
3701.742	-132.9
3704.47	-126.9
3707.195	-125.9
3709.919	-129.9
3712.64	-131.9
3715.359	-138.9
3718.076	-134.9
3720.792	-134.9
3723.505	-136.9
3726.216	-136.9
3728.925	-136.9
3731.632	-130.9
3734.336	-145.9
3737.039	-137.9
3739.74	-140.9
3742.439	-151.9
3745.136	-137.9
3747.83	-141.9
3750.523	-136.9
3753.213	-137.9
3755.902	-139.9
3758.589	-146.9
3761.273	-137.9
3763.956	-140.9
3766.636	-141.9
3769.315	-138.9
3771.991	-138.9
3774.665	-146.9
3777.338	-137.9
3780.008	-144.9
3782.677	-146.9
3785.343	-144.9
3788.007	-146.9
3790.67	-142.9
3793.33	-141.9
3795.989	-138.9
3798.645	-139.9
3801.299	-149.9
3803.952	-151.9
3806.602	-143.9
3809.251	-154.9
3811.897	-150.9
3814.542	-147.9
3817.184	-145.9
3819.825	-148.9
3822.463	-147.9
3825.1	-148.9
3827.735	-144.9
3830.367	-151.9
3832.998	-150.9
3835.627	-142.9
3838.253	-143.9
3840.878	-145.9
3843.501	-148.9
3846.122	-149.9
3848.741	-151.9
3851.358	-151.9
3853.973	-151.9
3856.586	-146.9
3859.197	-152.9
3861.806	-148.9
3864.414	-150.9
3867.019	-146.9
3869.622	-147.9
3872.224	-136.9
3874.823	-126.9
3877.421	-116.9
3880.016	-95.9
3882.61	-68.9
3885.202	-69.9
3887.792	-84.9
3890.38	-118.9
3892.966	-136.9
3895.55	-144.9
3898.132	-146.9
3900.713	-148.9
3903.291	-153.9
3905.868	-149.9
3908.442	-146.9
3911.015	-149.9
3913.586	-153.9
3916.155	-154.9
3918.722	-154.9
3921.287	-154.9
3923.85	-151.9
3926.411	-151.9
3928.971	-150.9
3931.528	-152.9
3934.084	-151.9
3936.638	-146.9
3939.19	-154.9
3941.74	-158.9
3944.288	-154.9
3946.834	-147.9
3949.378	-148.9
3951.921	-149.9
3954.462	-153.9
3957	-157.9
3959.537	-151.9
3962.072	-152.9
3964.606	-149.9
3967.137	-147.9
3969.667	-151.9
3972.194	-151.9
3974.72	-152.9
3977.244	-154.9
3979.766	-154.9
3982.286	-153.9
3984.805	-151.9
3987.321	-149.9
3989.836	-140.9
3992.349	-151.9
3994.86	-149.9
3997.369	-157.9
3999.877	-151.9
4002.382	-148.9
4004.886	-153.9
4007.388	-147.9
4009.888	-145.9
4012.386	-148.9
4014.883	-142.9
4017.377	-152.9
4019.87	-144.9
4022.361	-151.9
4024.85	-155.9
4027.338	-151.9
4029.823	-144.9
4032.307	-144.9
4034.789	-148.9
4037.269	-150.9
4039.747	-145.9
4042.224	-150.9
4044.699	-152.9
4047.172	-147.9
4049.643	-145.9
4052.112	-148.9
4054.58	-149.9
4057.046	-146.9
4059.51	-148.9
4061.972	-146.9
4064.432	-150.9
4066.891	-146.9
4069.348	-145.9
4071.803	-151.9
4074.256	-149.9
4076.708	-150.9
4079.158	-152.9
4081.606	-143.9
4084.052	-149.9
4086.497	-145.9
4088.939	-143.9
4091.38	-146.9
4093.819	-147.9
4096.257	-156.9
4098.693	-154.9
4101.127	-156.9
4103.559	-156.9
4105.989	1.1
4108.418	-2.9
4110.845	-3.9
4113.27	-5.9
4115.694	-2.9
4118.115	-2.9
4120.535	-152.9
4122.954	-146.9
4125.37	-151.9
4127.785	-153.9
4130.198	-147.9
4132.609	-147.9
4135.019	-156.9
4137.427	-159.9
4139.833	-158.9
4142.237	-158.9
