Data from 2018-2-8_conc=6_n=3_RamanShift_02.txt Node
Date: Mon Mar 12 16:30:28 IST 2018
User: aro
Spectrometer: QEPB0276
Trigger mode: 0
Integration Time (sec): 3.000000E1
Scans to average: 1
Electric dark correction enabled: true
Nonlinearity correction enabled: false
Boxcar width: 0
XAxis mode: Raman Shifts
Number of Pixels in Spectrum: 1044
>>>>>Begin Spectral Data<<<<<
160.701	16.8
166.742	45.8
172.777	129.8
178.805	375.8
184.826	1030.8
190.841	2202.8
196.849	3653.8
202.85	4767.8
208.845	5192.8
214.833	5209.8
220.815	5130.8
226.789	5134.8
232.758	5111.8
238.719	5128.8
244.674	5061.8
250.623	5008.8
256.565	4955.8
262.5	4887.8
268.429	4850.8
274.351	4781.8
280.267	4756.8
286.176	4723.8
292.079	4694.8
297.975	4673.8
303.865	4669.8
309.748	4662.8
315.625	4656.8
321.495	4649.8
327.359	4657.8
333.217	4626.8
339.068	4635.8
344.912	4666.8
350.751	4651.8
356.583	4661.8
362.408	4663.8
368.227	4697.8
374.04	4708.8
379.847	4701.8
385.647	4752.8
391.44	4753.8
397.228	4769.8
403.009	4818.8
408.784	4822.8
414.553	4855.8
420.315	4866.8
426.071	4883.8
431.821	4843.8
437.565	4848.8
443.302	4848.8
449.033	4813.8
454.758	4800.8
460.477	4793.8
466.189	4763.8
471.896	4721.8
477.596	4698.8
483.29	4683.8
488.978	4670.8
494.66	4662.8
500.335	4603.8
506.005	4483.8
511.668	4328.8
517.325	4207.8
522.977	4127.8
528.622	4003.8
534.261	3946.8
539.894	3917.8
545.521	3871.8
551.141	3873.8
556.756	3821.8
562.365	3807.8
567.968	3764.8
573.565	3740.8
579.155	3729.8
584.74	3712.8
590.319	3721.8
595.892	3712.8
601.459	3723.8
607.02	3685.8
612.575	3663.8
618.124	3635.8
623.667	3581.8
629.204	3542.8
634.735	3535.8
640.261	3522.8
645.781	3488.8
651.294	3466.8
656.802	3480.8
662.304	3450.8
667.8	3447.8
673.29	3448.8
678.775	3416.8
684.254	3406.8
689.726	3419.8
695.193	3382.8
700.655	3365.8
706.11	3351.8
711.56	3302.8
717.004	3317.8
722.442	3298.8
727.874	3289.8
733.301	3261.8
738.722	3264.8
744.137	3234.8
749.547	3245.8
754.951	3243.8
760.349	3237.8
765.741	3235.8
771.128	3263.8
776.509	3270.8
781.885	3311.8
787.254	3297.8
792.618	3298.8
797.977	3280.8
803.33	3270.8
808.677	3236.8
814.019	3226.8
819.355	3192.8
824.686	3170.8
830.011	3160.8
835.33	3155.8
840.644	3149.8
845.952	3133.8
851.255	3130.8
856.552	3129.8
861.844	3079.8
867.13	3070.8
872.41	3088.8
877.686	3055.8
882.955	3029.8
888.219	3012.8
893.478	2960.8
898.731	2906.8
903.979	2886.8
909.221	2862.8
914.458	2857.8
919.69	2838.8
924.916	2845.8
930.136	2852.8
935.351	2859.8
940.561	2860.8
945.766	2858.8
950.965	2835.8
956.158	2806.8
961.347	2792.8
966.529	2751.8
971.707	2719.8
976.879	2700.8
982.046	2672.8
987.208	2656.8
992.364	2639.8
997.515	2661.8
1002.66	2674.8
1007.801	2697.8
1012.936	2729.8
1018.066	2726.8
1023.19	2726.8
1028.309	2738.8
1033.423	2741.8
1038.532	2722.8
1043.636	2671.8
1048.734	2658.8
1053.827	2619.8
1058.915	2608.8
1063.998	2583.8
1069.075	2584.8
1074.147	2580.8
1079.214	2581.8
1084.276	2594.8
1089.333	2611.8
1094.385	2626.8
1099.431	2599.8
1104.472	2586.8
1109.509	2595.8
1114.54	2568.8
1119.565	2523.8
1124.586	2480.8
1129.602	2467.8
1134.613	2435.8
1139.618	2426.8
1144.619	2417.8
1149.614	2432.8
1154.604	2441.8
1159.589	2445.8
1164.57	2421.8
1169.545	2446.8
1174.515	2445.8
1179.48	2433.8
1184.44	2396.8
1189.395	2384.8
1194.345	2385.8
1199.29	2347.8
1204.23	2355.8
1209.165	2355.8
1214.095	2385.8
1219.021	2378.8
1223.941	2402.8
1228.856	2386.8
1233.766	2419.8
1238.672	2440.8
1243.572	2410.8
1248.467	2385.8
1253.358	2366.8
1258.244	2324.8
1263.124	2300.8
1268	2255.8
1272.871	2226.8
1277.737	2229.8
1282.599	2217.8
1287.455	2218.8
1292.306	2195.8
1297.153	2203.8
1301.995	2243.8
1306.832	2239.8
1311.664	2250.8
1316.491	2263.8
1321.314	2248.8
1326.132	2230.8
1330.945	2215.8
1335.753	2190.8
1340.556	2154.8
1345.354	2134.8
1350.148	2097.8
1354.937	2060.8
1359.722	2019.8
1364.501	2011.8
1369.276	1984.8
1374.046	1928.8
1378.811	1932.8
1383.572	1885.8
1388.327	1890.8
1393.079	1894.8
1397.825	1883.8
1402.567	1891.8
1407.304	1893.8
1412.036	1891.8
1416.764	1894.8
1421.487	1885.8
1426.205	1885.8
1430.919	1902.8
1435.628	1932.8
1440.333	1935.8
1445.032	1955.8
1449.727	1953.8
1454.418	1971.8
1459.104	1946.8
1463.785	1945.8
1468.462	1892.8
1473.134	1891.8
1477.802	1834.8
1482.465	1790.8
1487.123	1757.8
1491.777	1742.8
1496.426	1733.8
1501.071	1723.8
1505.711	1734.8
1510.347	1722.8
1514.978	1719.8
1519.604	1709.8
1524.226	1701.8
1528.844	1705.8
1533.457	1676.8
1538.065	1695.8
1542.669	1669.8
1547.269	1669.8
1551.864	1665.8
1556.454	1682.8
1561.041	1696.8
1565.622	1706.8
1570.199	1712.8
1574.772	1731.8
1579.34	1756.8
1583.904	1755.8
1588.464	1787.8
1593.019	1780.8
1597.569	1786.8
1602.115	1792.8
1606.657	1785.8
1611.195	1761.8
1615.728	1773.8
1620.256	1761.8
1624.78	1755.8
1629.3	1779.8
1633.816	1784.8
1638.327	1789.8
1642.834	1806.8
1647.336	1794.8
1651.834	1804.8
1656.328	1808.8
1660.817	1814.8
1665.302	1786.8
1669.783	1760.8
1674.259	1715.8
1678.732	1687.8
1683.199	1629.8
1687.663	1585.8
1692.122	1529.8
1696.577	1464.8
1701.028	1400.8
1705.474	1373.8
1709.917	1332.8
1714.355	1294.8
1718.788	1280.8
1723.218	1287.8
1727.643	1287.8
1732.064	1265.8
1736.481	1272.8
1740.893	1230.8
1745.301	1223.8
1749.705	1181.8
1754.105	1171.8
1758.501	1155.8
1762.893	1127.8
1767.28	1119.8
1771.663	1099.8
1776.042	1096.8
1780.417	1083.8
1784.787	1079.8
1789.154	1065.8
1793.516	1059.8
1797.874	1038.8
1802.228	1028.8
1806.578	1031.8
1810.924	1004.8
1815.266	1006.8
1819.603	1004.8
1823.937	1011.8
1828.266	1002.8
1832.591	1002.8
1836.913	1000.8
1841.23	978.8
1845.543	995.8
1849.852	987.8
1854.156	993.8
1858.457	989.8
1862.754	991.8
1867.047	987.8
1871.335	981.8
1875.62	993.8
1879.9	984.8
1884.177	973.8
1888.449	977.8
1892.718	966.8
1896.982	959.8
1901.243	938.8
1905.499	936.8
1909.752	914.8
1914	888.8
1918.245	894.8
1922.485	892.8
1926.722	887.8
1930.954	888.8
1935.183	862.8
1939.408	847.8
1943.628	871.8
1947.845	856.8
1952.058	845.8
1956.267	845.8
1960.472	829.8
1964.673	838.8
1968.87	826.8
1973.063	810.8
1977.252	801.8
1981.438	810.8
1985.619	801.8
1989.797	795.8
1993.971	800.8
1998.14	803.8
2002.306	793.8
2006.469	807.8
2010.627	814.8
2014.781	803.8
2018.932	803.8
2023.078	811.8
2027.221	799.8
2031.36	796.8
2035.495	786.8
2039.627	774.8
2043.754	745.8
2047.878	754.8
2051.998	749.8
2056.114	751.8
2060.226	747.8
2064.334	746.8
2068.439	753.8
2072.54	731.8
2076.637	737.8
2080.73	733.8
2084.82	724.8
2088.906	724.8
2092.988	713.8
2097.066	713.8
2101.14	699.8
2105.211	683.8
2109.278	686.8
2113.342	674.8
2117.401	673.8
2121.457	659.8
2125.509	665.8
2129.558	656.8
2133.602	663.8
2137.643	654.8
2141.681	660.8
2145.714	648.8
2149.744	659.8
2153.77	632.8
2157.793	654.8
2161.812	650.8
2165.827	631.8
2169.838	624.8
2173.846	610.8
2177.851	598.8
2181.851	586.8
2185.848	584.8
2189.841	591.8
2193.831	593.8
2197.817	576.8
2201.799	569.8
2205.778	567.8
2209.753	574.8
2213.725	568.8
2217.693	570.8
2221.657	569.8
2225.618	571.8
2229.575	564.8
2233.529	567.8
2237.479	562.8
2241.425	539.8
2245.368	525.8
2249.307	528.8
2253.243	509.8
2257.175	517.8
2261.104	513.8
2265.029	497.8
2268.95	493.8
2272.868	484.8
2276.783	488.8
2280.694	471.8
2284.601	473.8
2288.505	461.8
2292.405	461.8
2296.302	459.8
2300.195	440.8
2304.085	426.8
2307.971	426.8
2311.854	425.8
2315.734	421.8
2319.609	414.8
2323.482	424.8
2327.351	427.8
2331.216	415.8
2335.078	431.8
2338.937	417.8
2342.792	404.8
2346.643	389.8
2350.492	394.8
2354.336	389.8
2358.178	388.8
2362.015	393.8
2365.85	398.8
2369.681	394.8
2373.508	395.8
2377.333	393.8
2381.153	397.8
2384.971	402.8
2388.785	392.8
2392.595	378.8
2396.402	376.8
2400.206	383.8
2404.007	375.8
2407.804	381.8
2411.597	375.8
2415.388	369.8
2419.174	355.8
2422.958	357.8
2426.738	362.8
2430.515	369.8
2434.289	355.8
2438.059	354.8
2441.825	345.8
2445.589	345.8
2449.349	329.8
2453.106	331.8
2456.859	327.8
2460.61	334.8
2464.356	337.8
2468.1	318.8
2471.84	329.8
2475.577	311.8
2479.311	305.8
2483.041	308.8
2486.768	313.8
2490.492	307.8
2494.213	304.8
2497.93	298.8
2501.644	303.8
2505.355	297.8
2509.062	297.8
2512.766	291.8
2516.467	282.8
2520.165	279.8
2523.859	288.8
2527.551	283.8
2531.239	263.8
2534.923	267.8
2538.605	260.8
2542.283	262.8
2545.958	270.8
2549.63	263.8
2553.299	251.8
2556.964	253.8
2560.626	256.8
2564.285	249.8
2567.941	249.8
2571.594	246.8
2575.243	248.8
2578.89	234.8
2582.533	236.8
2586.173	232.8
2589.809	223.8
2593.443	227.8
2597.073	222.8
2600.701	199.8
2604.325	216.8
2607.946	211.8
2611.564	206.8
2615.178	218.8
2618.79	208.8
2622.398	207.8
2626.004	208.8
2629.606	202.8
2633.205	200.8
2636.801	201.8
2640.394	194.8
2643.983	201.8
2647.57	190.8
2651.153	195.8
2654.734	191.8
2658.311	179.8
2661.885	180.8
2665.456	180.8
2669.025	193.8
2672.589	183.8
2676.151	181.8
2679.71	186.8
2683.266	169.8
2686.819	169.8
2690.368	162.8
2693.915	163.8
2697.458	159.8
2700.999	162.8
2704.536	164.8
2708.071	150.8
2711.602	149.8
2715.13	147.8
2718.656	142.8
2722.178	138.8
2725.697	139.8
2729.214	141.8
2732.727	141.8
2736.237	148.8
2739.744	133.8
2743.249	131.8
2746.75	130.8
2750.248	129.8
2753.743	130.8
2757.236	129.8
2760.725	126.8
2764.211	127.8
2767.695	114.8
2771.175	105.8
2774.652	106.8
2778.127	113.8
2781.598	110.8
2785.067	111.8
2788.532	116.8
2791.995	108.8
2795.455	113.8
2798.911	106.8
2802.365	121.8
2805.816	122.8
2809.264	115.8
2812.709	127.8
2816.151	122.8
2819.59	111.8
2823.026	108.8
2826.46	107.8
2829.89	111.8
2833.318	119.8
2836.742	115.8
2840.164	116.8
2843.583	124.8
2846.999	121.8
2850.412	120.8
2853.822	119.8
2857.229	115.8
2860.634	132.8
2864.035	123.8
2867.434	133.8
2870.83	136.8
2874.223	141.8
2877.613	142.8
2881	149.8
2884.385	161.8
2887.766	148.8
2891.145	155.8
2894.521	153.8
2897.894	164.8
2901.264	161.8
2904.631	159.8
2907.996	159.8
2911.358	165.8
2914.717	162.8
2918.073	171.8
2921.426	168.8
2924.777	176.8
2928.124	183.8
2931.469	185.8
2934.811	189.8
2938.15	189.8
2941.487	193.8
2944.821	199.8
2948.152	201.8
2951.48	207.8
2954.805	210.8
2958.128	213.8
2961.447	192.8
2964.765	196.8
2968.079	189.8
2971.39	201.8
2974.699	197.8
2978.005	196.8
2981.308	207.8
2984.609	203.8
2987.907	202.8
2991.202	207.8
2994.494	209.8
2997.784	202.8
3001.07	217.8
3004.355	232.8
3007.636	217.8
3010.915	221.8
3014.191	224.8
3017.464	234.8
3020.734	231.8
3024.002	235.8
3027.267	249.8
3030.53	248.8
3033.789	251.8
3037.046	257.8
3040.301	253.8
3043.552	271.8
3046.801	283.8
3050.048	296.8
3053.291	292.8
3056.532	302.8
3059.771	326.8
3063.006	323.8
3066.239	346.8
3069.469	347.8
3072.697	357.8
3075.922	368.8
3079.144	381.8
3082.364	386.8
3085.581	400.8
3088.795	401.8
3092.007	406.8
3095.216	411.8
3098.423	431.8
3101.627	438.8
3104.828	449.8
3108.026	468.8
3111.222	470.8
3114.416	473.8
3117.607	490.8
3120.795	503.8
3123.98	505.8
3127.163	521.8
3130.344	546.8
3133.521	553.8
3136.696	572.8
3139.869	558.8
3143.039	588.8
3146.206	588.8
3149.371	602.8
3152.533	612.8
3155.693	616.8
3158.85	611.8
3162.005	613.8
3165.157	636.8
3168.306	635.8
3171.453	623.8
3174.597	635.8
3177.739	636.8
3180.878	658.8
3184.014	652.8
3187.149	652.8
3190.28	653.8
3193.409	650.8
3196.536	653.8
3199.659	647.8
3202.781	658.8
3205.9	666.8
3209.016	666.8
3212.13	654.8
3215.241	650.8
3218.35	653.8
3221.456	644.8
3224.56	638.8
3227.661	627.8
3230.76	627.8
3233.856	621.8
3236.95	597.8
3240.041	594.8
3243.13	587.8
3246.216	578.8
3249.3	561.8
3252.382	573.8
3255.46	562.8
3258.537	560.8
3261.611	552.8
3264.682	527.8
3267.751	527.8
3270.818	530.8
3273.882	536.8
3276.943	527.8
3280.002	528.8
3283.059	527.8
3286.113	508.8
3289.165	514.8
3292.214	512.8
3295.261	491.8
3298.306	492.8
3301.348	487.8
3304.387	502.8
3307.425	473.8
3310.459	486.8
3313.492	458.8
3316.521	464.8
3319.549	455.8
3322.574	449.8
3325.597	452.8
3328.617	456.8
3331.635	447.8
3334.65	444.8
3337.663	436.8
3340.674	446.8
3343.682	438.8
3346.688	438.8
3349.691	442.8
3352.692	439.8
3355.691	439.8
3358.687	426.8
3361.681	430.8
3364.673	427.8
3367.662	423.8
3370.649	409.8
3373.633	400.8
3376.615	390.8
3379.595	380.8
3382.572	384.8
3385.547	376.8
3388.52	372.8
3391.49	363.8
3394.458	356.8
3397.424	347.8
3400.387	339.8
3403.348	356.8
3406.307	340.8
3409.263	327.8
3412.217	330.8
3415.168	326.8
3418.118	318.8
3421.065	316.8
3424.009	317.8
3426.951	309.8
3429.891	295.8
3432.829	289.8
3435.764	278.8
3438.697	276.8
3441.628	266.8
3444.557	263.8
3447.483	246.8
3450.407	243.8
3453.328	221.8
3456.247	215.8
3459.164	213.8
3462.079	190.8
3464.991	192.8
3467.902	187.8
3470.809	179.8
3473.715	173.8
3476.618	164.8
3479.519	161.8
3482.418	149.8
3485.315	138.8
3488.209	127.8
3491.101	123.8
3493.99	129.8
3496.878	119.8
3499.763	120.8
3502.646	105.8
3505.527	88.8
3508.405	94.8
3511.281	87.8
3514.155	68.8
3517.027	79.8
3519.897	59.8
3522.764	55.8
3525.629	47.8
3528.492	38.8
3531.352	35.8
3534.211	31.8
3537.067	21.8
3539.921	22.8
3542.773	22.8
3545.622	7.8
3548.469	-1.2
3551.315	5.8
3554.157	-4.2
3556.998	-16.2
3559.837	-18.2
3562.673	-20.2
3565.507	-19.2
3568.339	-21.2
3571.169	-36.2
3573.996	-30.2
3576.822	-32.2
3579.645	-38.2
3582.466	-43.2
3585.285	-47.2
3588.101	-36.2
3590.916	-52.2
3593.728	-57.2
3596.538	-61.2
3599.346	-64.2
3602.152	-64.2
3604.956	-65.2
3607.757	-57.2
3610.556	-74.2
3613.354	-62.2
3616.149	-80.2
3618.942	-80.2
3621.732	-81.2
3624.521	-83.2
3627.307	-83.2
3630.092	-83.2
3632.874	-80.2
3635.654	-90.2
3638.432	-84.2
3641.208	-91.2
3643.982	-85.2
3646.753	-94.2
3649.523	-102.2
3652.29	-94.2
3655.055	-97.2
3657.818	-95.2
3660.579	-100.2
3663.338	-102.2
3666.095	-100.2
3668.849	-114.2
3671.602	-110.2
3674.352	-107.2
3677.101	-108.2
3679.847	-111.2
3682.591	-115.2
3685.333	-114.2
3688.073	-114.2
3690.811	-114.2
3693.547	-120.2
3696.281	-117.2
3699.013	-121.2
3701.742	-119.2
3704.47	-122.2
3707.195	-113.2
3709.919	-121.2
3712.64	-126.2
3715.359	-126.2
3718.076	-124.2
3720.792	-127.2
3723.505	-128.2
3726.216	-123.2
3728.925	-126.2
3731.632	-123.2
3734.336	-133.2
3737.039	-126.2
3739.74	-133.2
3742.439	-136.2
3745.136	-125.2
3747.83	-132.2
3750.523	-130.2
3753.213	-140.2
3755.902	-127.2
3758.589	-132.2
3761.273	-124.2
3763.956	-123.2
3766.636	-127.2
3769.315	-127.2
3771.991	-126.2
3774.665	-134.2
3777.338	-126.2
3780.008	-131.2
3782.677	-130.2
3785.343	-132.2
3788.007	-132.2
3790.67	-134.2
3793.33	-123.2
3795.989	-134.2
3798.645	-131.2
3801.299	-132.2
3803.952	-136.2
3806.602	-129.2
3809.251	-134.2
3811.897	-137.2
3814.542	-136.2
3817.184	-134.2
3819.825	-135.2
3822.463	-135.2
3825.1	-135.2
3827.735	-131.2
3830.367	-134.2
3832.998	-135.2
3835.627	-134.2
3838.253	-136.2
3840.878	-133.2
3843.501	-131.2
3846.122	-141.2
3848.741	-137.2
3851.358	-131.2
3853.973	-140.2
3856.586	-134.2
3859.197	-141.2
3861.806	-134.2
3864.414	-132.2
3867.019	-129.2
3869.622	-136.2
3872.224	-119.2
3874.823	-115.2
3877.421	-106.2
3880.016	-77.2
3882.61	-58.2
3885.202	-58.2
3887.792	-76.2
3890.38	-94.2
3892.966	-125.2
3895.55	-121.2
3898.132	-138.2
3900.713	-134.2
3903.291	-140.2
3905.868	-138.2
3908.442	-129.2
3911.015	-139.2
3913.586	-140.2
3916.155	-142.2
3918.722	-143.2
3921.287	-133.2
3923.85	-137.2
3926.411	-135.2
3928.971	-134.2
3931.528	-136.2
3934.084	-134.2
3936.638	-134.2
3939.19	-147.2
3941.74	-139.2
3944.288	-137.2
3946.834	-137.2
3949.378	-137.2
3951.921	-139.2
3954.462	-143.2
3957	-142.2
3959.537	-137.2
3962.072	-138.2
3964.606	-130.2
3967.137	-132.2
3969.667	-140.2
3972.194	-137.2
3974.72	-142.2
3977.244	-136.2
3979.766	-140.2
3982.286	-135.2
3984.805	-137.2
3987.321	-134.2
3989.836	-131.2
3992.349	-137.2
3994.86	-137.2
3997.369	-141.2
3999.877	-136.2
4002.382	-133.2
4004.886	-136.2
4007.388	-132.2
4009.888	-136.2
4012.386	-139.2
4014.883	-137.2
4017.377	-139.2
4019.87	-136.2
4022.361	-135.2
4024.85	-131.2
4027.338	-134.2
4029.823	-131.2
4032.307	-136.2
4034.789	-140.2
4037.269	-137.2
4039.747	-131.2
4042.224	-131.2
4044.699	-137.2
4047.172	-132.2
4049.643	-134.2
4052.112	-140.2
4054.58	-137.2
4057.046	-135.2
4059.51	-140.2
4061.972	-132.2
4064.432	-134.2
4066.891	-135.2
4069.348	-134.2
4071.803	-138.2
4074.256	-136.2
4076.708	-130.2
4079.158	-130.2
4081.606	-130.2
4084.052	-139.2
4086.497	-131.2
4088.939	-127.2
4091.38	-135.2
4093.819	-133.2
4096.257	-143.2
4098.693	-144.2
4101.127	-143.2
4103.559	-136.2
4105.989	1.8
4108.418	1.8
4110.845	3.8
4113.27	2.8
4115.694	-2.2
4118.115	-7.2
4120.535	-132.2
4122.954	-137.2
4125.37	-130.2
4127.785	-140.2
4130.198	-139.2
4132.609	-136.2
4135.019	-140.2
4137.427	-139.2
4139.833	-144.2
4142.237	-144.2
