Data from 2018-2-8_conc=0_n=9_RamanShift_02.txt Node
Date: Mon Mar 12 13:47:59 IST 2018
User: aro
Spectrometer: QEPB0276
Trigger mode: 0
Integration Time (sec): 3.000000E1
Scans to average: 1
Electric dark correction enabled: true
Nonlinearity correction enabled: false
Boxcar width: 0
XAxis mode: Raman Shifts
Number of Pixels in Spectrum: 1044
>>>>>Begin Spectral Data<<<<<
160.701	29.8
166.742	58.8
172.777	121.8
178.805	353.8
184.826	949.8
190.841	2046.8
196.849	3375.8
202.85	4440.8
208.845	4863.8
214.833	4869.8
220.815	4804.8
226.789	4784.8
232.758	4815.8
238.719	4795.8
244.674	4787.8
250.623	4760.8
256.565	4695.8
262.5	4612.8
268.429	4568.8
274.351	4546.8
280.267	4512.8
286.176	4489.8
292.079	4468.8
297.975	4466.8
303.865	4463.8
309.748	4467.8
315.625	4441.8
321.495	4439.8
327.359	4447.8
333.217	4429.8
339.068	4462.8
344.912	4489.8
350.751	4465.8
356.583	4461.8
362.408	4510.8
368.227	4492.8
374.04	4510.8
379.847	4536.8
385.647	4531.8
391.44	4561.8
397.228	4589.8
403.009	4620.8
408.784	4614.8
414.553	4666.8
420.315	4662.8
426.071	4692.8
431.821	4652.8
437.565	4641.8
443.302	4648.8
449.033	4625.8
454.758	4569.8
460.477	4561.8
466.189	4573.8
471.896	4552.8
477.596	4486.8
483.29	4445.8
488.978	4455.8
494.66	4462.8
500.335	4380.8
506.005	4253.8
511.668	4137.8
517.325	3977.8
522.977	3884.8
528.622	3776.8
534.261	3733.8
539.894	3670.8
545.521	3643.8
551.141	3618.8
556.756	3578.8
562.365	3577.8
567.968	3531.8
573.565	3515.8
579.155	3487.8
584.74	3508.8
590.319	3463.8
595.892	3475.8
601.459	3474.8
607.02	3425.8
612.575	3429.8
618.124	3379.8
623.667	3371.8
629.204	3327.8
634.735	3297.8
640.261	3291.8
645.781	3265.8
651.294	3243.8
656.802	3238.8
662.304	3237.8
667.8	3214.8
673.29	3214.8
678.775	3191.8
684.254	3176.8
689.726	3175.8
695.193	3182.8
700.655	3152.8
706.11	3142.8
711.56	3123.8
717.004	3092.8
722.442	3085.8
727.874	3077.8
733.301	3074.8
738.722	3060.8
744.137	3034.8
749.547	3028.8
754.951	3039.8
760.349	3030.8
765.741	3039.8
771.128	3050.8
776.509	3066.8
781.885	3098.8
787.254	3089.8
792.618	3096.8
797.977	3096.8
803.33	3079.8
808.677	3045.8
814.019	3021.8
819.355	3007.8
824.686	2991.8
830.011	2965.8
835.33	2961.8
840.644	2948.8
845.952	2958.8
851.255	2940.8
856.552	2944.8
861.844	2892.8
867.13	2900.8
872.41	2871.8
877.686	2871.8
882.955	2842.8
888.219	2832.8
893.478	2783.8
898.731	2741.8
903.979	2713.8
909.221	2672.8
914.458	2679.8
919.69	2635.8
924.916	2668.8
930.136	2658.8
935.351	2680.8
940.561	2693.8
945.766	2667.8
950.965	2675.8
956.158	2626.8
961.347	2610.8
966.529	2562.8
971.707	2534.8
976.879	2509.8
982.046	2490.8
987.208	2458.8
992.364	2487.8
997.515	2494.8
1002.66	2501.8
1007.801	2532.8
1012.936	2565.8
1018.066	2549.8
1023.19	2549.8
1028.309	2558.8
1033.423	2556.8
1038.532	2561.8
1043.636	2539.8
1048.734	2511.8
1053.827	2493.8
1058.915	2475.8
1063.998	2427.8
1069.075	2430.8
1074.147	2435.8
1079.214	2433.8
1084.276	2430.8
1089.333	2429.8
1094.385	2489.8
1099.431	2455.8
1104.472	2444.8
1109.509	2451.8
1114.54	2404.8
1119.565	2404.8
1124.586	2330.8
1129.602	2317.8
1134.613	2294.8
1139.618	2257.8
1144.619	2273.8
1149.614	2259.8
1154.604	2278.8
1159.589	2287.8
1164.57	2290.8
1169.545	2289.8
1174.515	2293.8
1179.48	2266.8
1184.44	2266.8
1189.395	2250.8
1194.345	2240.8
1199.29	2211.8
1204.23	2217.8
1209.165	2233.8
1214.095	2231.8
1219.021	2242.8
1223.941	2252.8
1228.856	2280.8
1233.766	2281.8
1238.672	2280.8
1243.572	2258.8
1248.467	2266.8
1253.358	2219.8
1258.244	2191.8
1263.124	2183.8
1268	2132.8
1272.871	2087.8
1277.737	2077.8
1282.599	2070.8
1287.455	2060.8
1292.306	2077.8
1297.153	2073.8
1301.995	2099.8
1306.832	2093.8
1311.664	2121.8
1316.491	2108.8
1321.314	2111.8
1326.132	2112.8
1330.945	2061.8
1335.753	2060.8
1340.556	2031.8
1345.354	1979.8
1350.148	1949.8
1354.937	1925.8
1359.722	1867.8
1364.501	1852.8
1369.276	1804.8
1374.046	1789.8
1378.811	1767.8
1383.572	1773.8
1388.327	1761.8
1393.079	1757.8
1397.825	1768.8
1402.567	1779.8
1407.304	1770.8
1412.036	1770.8
1416.764	1776.8
1421.487	1769.8
1426.205	1790.8
1430.919	1779.8
1435.628	1803.8
1440.333	1817.8
1445.032	1823.8
1449.727	1832.8
1454.418	1864.8
1459.104	1835.8
1463.785	1816.8
1468.462	1794.8
1473.134	1763.8
1477.802	1690.8
1482.465	1675.8
1487.123	1630.8
1491.777	1629.8
1496.426	1596.8
1501.071	1581.8
1505.711	1577.8
1510.347	1574.8
1514.978	1557.8
1519.604	1562.8
1524.226	1571.8
1528.844	1558.8
1533.457	1531.8
1538.065	1542.8
1542.669	1532.8
1547.269	1539.8
1551.864	1538.8
1556.454	1558.8
1561.041	1569.8
1565.622	1587.8
1570.199	1568.8
1574.772	1587.8
1579.34	1618.8
1583.904	1643.8
1588.464	1639.8
1593.019	1654.8
1597.569	1646.8
1602.115	1647.8
1606.657	1638.8
1611.195	1634.8
1615.728	1614.8
1620.256	1619.8
1624.78	1622.8
1629.3	1627.8
1633.816	1638.8
1638.327	1633.8
1642.834	1657.8
1647.336	1652.8
1651.834	1653.8
1656.328	1654.8
1660.817	1642.8
1665.302	1612.8
1669.783	1590.8
1674.259	1569.8
1678.732	1518.8
1683.199	1489.8
1687.663	1436.8
1692.122	1370.8
1696.577	1327.8
1701.028	1262.8
1705.474	1231.8
1709.917	1173.8
1714.355	1156.8
1718.788	1165.8
1723.218	1159.8
1727.643	1156.8
1732.064	1169.8
1736.481	1159.8
1740.893	1126.8
1745.301	1106.8
1749.705	1074.8
1754.105	1057.8
1758.501	1042.8
1762.893	1029.8
1767.28	1012.8
1771.663	1022.8
1776.042	999.8
1780.417	985.8
1784.787	963.8
1789.154	962.8
1793.516	957.8
1797.874	945.8
1802.228	911.8
1806.578	920.8
1810.924	913.8
1815.266	880.8
1819.603	898.8
1823.937	889.8
1828.266	880.8
1832.591	884.8
1836.913	893.8
1841.23	905.8
1845.543	893.8
1849.852	906.8
1854.156	898.8
1858.457	912.8
1862.754	898.8
1867.047	907.8
1871.335	910.8
1875.62	912.8
1879.9	906.8
1884.177	884.8
1888.449	875.8
1892.718	857.8
1896.982	850.8
1901.243	848.8
1905.499	828.8
1909.752	813.8
1914	811.8
1918.245	789.8
1922.485	788.8
1926.722	783.8
1930.954	782.8
1935.183	773.8
1939.408	777.8
1943.628	769.8
1947.845	758.8
1952.058	752.8
1956.267	753.8
1960.472	737.8
1964.673	746.8
1968.87	729.8
1973.063	717.8
1977.252	713.8
1981.438	718.8
1985.619	715.8
1989.797	711.8
1993.971	730.8
1998.14	722.8
2002.306	707.8
2006.469	733.8
2010.627	727.8
2014.781	738.8
2018.932	726.8
2023.078	726.8
2027.221	717.8
2031.36	708.8
2035.495	699.8
2039.627	690.8
2043.754	670.8
2047.878	681.8
2051.998	686.8
2056.114	673.8
2060.226	663.8
2064.334	662.8
2068.439	667.8
2072.54	669.8
2076.637	649.8
2080.73	641.8
2084.82	656.8
2088.906	646.8
2092.988	641.8
2097.066	634.8
2101.14	624.8
2105.211	610.8
2109.278	597.8
2113.342	606.8
2117.401	599.8
2121.457	584.8
2125.509	597.8
2129.558	585.8
2133.602	582.8
2137.643	589.8
2141.681	591.8
2145.714	579.8
2149.744	579.8
2153.77	588.8
2157.793	585.8
2161.812	582.8
2165.827	570.8
2169.838	566.8
2173.846	550.8
2177.851	533.8
2181.851	539.8
2185.848	538.8
2189.841	540.8
2193.831	526.8
2197.817	527.8
2201.799	520.8
2205.778	520.8
2209.753	509.8
2213.725	513.8
2217.693	518.8
2221.657	521.8
2225.618	515.8
2229.575	513.8
2233.529	508.8
2237.479	506.8
2241.425	490.8
2245.368	491.8
2249.307	477.8
2253.243	471.8
2257.175	475.8
2261.104	462.8
2265.029	459.8
2268.95	450.8
2272.868	442.8
2276.783	438.8
2280.694	433.8
2284.601	434.8
2288.505	432.8
2292.405	424.8
2296.302	419.8
2300.195	408.8
2304.085	406.8
2307.971	396.8
2311.854	395.8
2315.734	390.8
2319.609	386.8
2323.482	386.8
2327.351	377.8
2331.216	402.8
2335.078	405.8
2338.937	396.8
2342.792	376.8
2346.643	370.8
2350.492	374.8
2354.336	370.8
2358.178	373.8
2362.015	378.8
2365.85	375.8
2369.681	368.8
2373.508	381.8
2377.333	369.8
2381.153	377.8
2384.971	388.8
2388.785	371.8
2392.595	373.8
2396.402	360.8
2400.206	359.8
2404.007	353.8
2407.804	355.8
2411.597	363.8
2415.388	351.8
2419.174	359.8
2422.958	347.8
2426.738	355.8
2430.515	355.8
2434.289	349.8
2438.059	329.8
2441.825	339.8
2445.589	335.8
2449.349	326.8
2453.106	332.8
2456.859	326.8
2460.61	319.8
2464.356	308.8
2468.1	308.8
2471.84	303.8
2475.577	310.8
2479.311	291.8
2483.041	296.8
2486.768	294.8
2490.492	290.8
2494.213	295.8
2497.93	292.8
2501.644	288.8
2505.355	290.8
2509.062	278.8
2512.766	278.8
2516.467	267.8
2520.165	268.8
2523.859	264.8
2527.551	263.8
2531.239	246.8
2534.923	248.8
2538.605	253.8
2542.283	251.8
2545.958	238.8
2549.63	245.8
2553.299	234.8
2556.964	248.8
2560.626	236.8
2564.285	236.8
2567.941	231.8
2571.594	230.8
2575.243	231.8
2578.89	222.8
2582.533	221.8
2586.173	210.8
2589.809	211.8
2593.443	216.8
2597.073	205.8
2600.701	199.8
2604.325	197.8
2607.946	198.8
2611.564	205.8
2615.178	213.8
2618.79	205.8
2622.398	198.8
2626.004	197.8
2629.606	200.8
2633.205	189.8
2636.801	188.8
2640.394	187.8
2643.983	193.8
2647.57	188.8
2651.153	187.8
2654.734	180.8
2658.311	176.8
2661.885	171.8
2665.456	177.8
2669.025	182.8
2672.589	168.8
2676.151	176.8
2679.71	170.8
2683.266	173.8
2686.819	168.8
2690.368	159.8
2693.915	153.8
2697.458	160.8
2700.999	154.8
2704.536	153.8
2708.071	140.8
2711.602	134.8
2715.13	145.8
2718.656	136.8
2722.178	130.8
2725.697	138.8
2729.214	132.8
2732.727	141.8
2736.237	135.8
2739.744	132.8
2743.249	126.8
2746.75	126.8
2750.248	112.8
2753.743	110.8
2757.236	120.8
2760.725	107.8
2764.211	105.8
2767.695	110.8
2771.175	93.8
2774.652	95.8
2778.127	99.8
2781.598	99.8
2785.067	101.8
2788.532	108.8
2791.995	101.8
2795.455	109.8
2798.911	101.8
2802.365	110.8
2805.816	111.8
2809.264	107.8
2812.709	108.8
2816.151	113.8
2819.59	112.8
2823.026	108.8
2826.46	108.8
2829.89	104.8
2833.318	99.8
2836.742	115.8
2840.164	104.8
2843.583	107.8
2846.999	119.8
2850.412	115.8
2853.822	104.8
2857.229	112.8
2860.634	119.8
2864.035	127.8
2867.434	123.8
2870.83	123.8
2874.223	133.8
2877.613	143.8
2881	143.8
2884.385	151.8
2887.766	137.8
2891.145	139.8
2894.521	144.8
2897.894	148.8
2901.264	144.8
2904.631	138.8
2907.996	149.8
2911.358	143.8
2914.717	148.8
2918.073	159.8
2921.426	163.8
2924.777	173.8
2928.124	171.8
2931.469	183.8
2934.811	176.8
2938.15	177.8
2941.487	189.8
2944.821	189.8
2948.152	185.8
2951.48	173.8
2954.805	184.8
2958.128	178.8
2961.447	169.8
2964.765	178.8
2968.079	174.8
2971.39	184.8
2974.699	185.8
2978.005	178.8
2981.308	180.8
2984.609	181.8
2987.907	175.8
2991.202	178.8
2994.494	186.8
2997.784	174.8
3001.07	191.8
3004.355	200.8
3007.636	187.8
3010.915	180.8
3014.191	192.8
3017.464	201.8
3020.734	192.8
3024.002	191.8
3027.267	206.8
3030.53	211.8
3033.789	218.8
3037.046	218.8
3040.301	227.8
3043.552	226.8
3046.801	239.8
3050.048	244.8
3053.291	256.8
3056.532	261.8
3059.771	277.8
3063.006	280.8
3066.239	296.8
3069.469	292.8
3072.697	304.8
3075.922	320.8
3079.144	321.8
3082.364	337.8
3085.581	355.8
3088.795	344.8
3092.007	356.8
3095.216	362.8
3098.423	360.8
3101.627	371.8
3104.828	402.8
3108.026	395.8
3111.222	403.8
3114.416	406.8
3117.607	437.8
3120.795	428.8
3123.98	425.8
3127.163	454.8
3130.344	471.8
3133.521	477.8
3136.696	498.8
3139.869	488.8
3143.039	498.8
3146.206	489.8
3149.371	507.8
3152.533	514.8
3155.693	522.8
3158.85	516.8
3162.005	538.8
3165.157	535.8
3168.306	527.8
3171.453	524.8
3174.597	533.8
3177.739	544.8
3180.878	546.8
3184.014	566.8
3187.149	551.8
3190.28	552.8
3193.409	551.8
3196.536	547.8
3199.659	559.8
3202.781	568.8
3205.9	558.8
3209.016	555.8
3212.13	563.8
3215.241	556.8
3218.35	552.8
3221.456	534.8
3224.56	536.8
3227.661	528.8
3230.76	523.8
3233.856	525.8
3236.95	503.8
3240.041	505.8
3243.13	492.8
3246.216	491.8
3249.3	476.8
3252.382	476.8
3255.46	476.8
3258.537	458.8
3261.611	459.8
3264.682	455.8
3267.751	456.8
3270.818	455.8
3273.882	446.8
3276.943	443.8
3280.002	439.8
3283.059	432.8
3286.113	433.8
3289.165	427.8
3292.214	436.8
3295.261	418.8
3298.306	411.8
3301.348	393.8
3304.387	388.8
3307.425	403.8
3310.459	399.8
3313.492	391.8
3316.521	393.8
3319.549	389.8
3322.574	376.8
3325.597	375.8
3328.617	381.8
3331.635	374.8
3334.65	376.8
3337.663	360.8
3340.674	374.8
3343.682	380.8
3346.688	365.8
3349.691	362.8
3352.692	364.8
3355.691	366.8
3358.687	351.8
3361.681	356.8
3364.673	350.8
3367.662	355.8
3370.649	343.8
3373.633	336.8
3376.615	333.8
3379.595	322.8
3382.572	319.8
3385.547	318.8
3388.52	313.8
3391.49	299.8
3394.458	297.8
3397.424	291.8
3400.387	283.8
3403.348	282.8
3406.307	271.8
3409.263	285.8
3412.217	266.8
3415.168	270.8
3418.118	272.8
3421.065	259.8
3424.009	260.8
3426.951	258.8
3429.891	248.8
3432.829	238.8
3435.764	233.8
3438.697	216.8
3441.628	216.8
3444.557	213.8
3447.483	202.8
3450.407	184.8
3453.328	188.8
3456.247	167.8
3459.164	167.8
3462.079	157.8
3464.991	151.8
3467.902	142.8
3470.809	141.8
3473.715	130.8
3476.618	124.8
3479.519	122.8
3482.418	109.8
3485.315	93.8
3488.209	91.8
3491.101	90.8
3493.99	101.8
3496.878	86.8
3499.763	78.8
3502.646	71.8
3505.527	59.8
3508.405	66.8
3511.281	58.8
3514.155	49.8
3517.027	48.8
3519.897	43.8
3522.764	35.8
3525.629	23.8
3528.492	22.8
3531.352	13.8
3534.211	6.8
3537.067	2.8
3539.921	4.8
3542.773	-4.2
3545.622	-11.2
3548.469	-16.2
3551.315	-18.2
3554.157	-31.2
3556.998	-28.2
3559.837	-34.2
3562.673	-33.2
3565.507	-26.2
3568.339	-36.2
3571.169	-44.2
3573.996	-42.2
3576.822	-46.2
3579.645	-52.2
3582.466	-49.2
3585.285	-57.2
3588.101	-40.2
3590.916	-60.2
3593.728	-66.2
3596.538	-67.2
3599.346	-62.2
3602.152	-75.2
3604.956	-70.2
3607.757	-67.2
3610.556	-76.2
3613.354	-72.2
3616.149	-86.2
3618.942	-88.2
3621.732	-83.2
3624.521	-85.2
3627.307	-93.2
3630.092	-79.2
3632.874	-79.2
3635.654	-88.2
3638.432	-88.2
3641.208	-89.2
3643.982	-98.2
3646.753	-100.2
3649.523	-101.2
3652.29	-95.2
3655.055	-96.2
3657.818	-97.2
3660.579	-99.2
3663.338	-99.2
3666.095	-103.2
3668.849	-106.2
3671.602	-108.2
3674.352	-107.2
3677.101	-113.2
3679.847	-112.2
3682.591	-111.2
3685.333	-109.2
3688.073	-110.2
3690.811	-120.2
3693.547	-125.2
3696.281	-114.2
3699.013	-118.2
3701.742	-117.2
3704.47	-115.2
3707.195	-116.2
3709.919	-119.2
3712.64	-125.2
3715.359	-123.2
3718.076	-122.2
3720.792	-123.2
3723.505	-121.2
3726.216	-120.2
3728.925	-123.2
3731.632	-121.2
3734.336	-133.2
3737.039	-124.2
3739.74	-129.2
3742.439	-133.2
3745.136	-120.2
3747.83	-127.2
3750.523	-127.2
3753.213	-134.2
3755.902	-127.2
3758.589	-134.2
3761.273	-124.2
3763.956	-119.2
3766.636	-131.2
3769.315	-120.2
3771.991	-126.2
3774.665	-127.2
3777.338	-127.2
3780.008	-131.2
3782.677	-132.2
3785.343	-128.2
3788.007	-131.2
3790.67	-133.2
3793.33	-133.2
3795.989	-133.2
3798.645	-129.2
3801.299	-131.2
3803.952	-134.2
3806.602	-120.2
3809.251	-137.2
3811.897	-133.2
3814.542	-136.2
3817.184	-126.2
3819.825	-125.2
3822.463	-132.2
3825.1	-131.2
3827.735	-131.2
3830.367	-130.2
3832.998	-138.2
3835.627	-129.2
3838.253	-129.2
3840.878	-134.2
3843.501	-132.2
3846.122	-134.2
3848.741	-134.2
3851.358	-130.2
3853.973	-131.2
3856.586	-133.2
3859.197	-138.2
3861.806	-130.2
3864.414	-136.2
3867.019	-129.2
3869.622	-129.2
3872.224	-113.2
3874.823	-106.2
3877.421	-85.2
3880.016	-51.2
3882.61	-24.2
3885.202	-30.2
3887.792	-49.2
3890.38	-85.2
3892.966	-112.2
3895.55	-124.2
3898.132	-125.2
3900.713	-129.2
3903.291	-136.2
3905.868	-137.2
3908.442	-130.2
3911.015	-133.2
3913.586	-134.2
3916.155	-134.2
3918.722	-136.2
3921.287	-135.2
3923.85	-140.2
3926.411	-139.2
3928.971	-132.2
3931.528	-136.2
3934.084	-134.2
3936.638	-134.2
3939.19	-140.2
3941.74	-139.2
3944.288	-139.2
3946.834	-133.2
3949.378	-129.2
3951.921	-132.2
3954.462	-140.2
3957	-136.2
3959.537	-125.2
3962.072	-135.2
3964.606	-133.2
3967.137	-136.2
3969.667	-134.2
3972.194	-135.2
3974.72	-132.2
3977.244	-137.2
3979.766	-137.2
3982.286	-136.2
3984.805	-135.2
3987.321	-133.2
3989.836	-124.2
3992.349	-129.2
3994.86	-139.2
3997.369	-136.2
3999.877	-134.2
4002.382	-131.2
4004.886	-138.2
4007.388	-129.2
4009.888	-129.2
4012.386	-138.2
4014.883	-137.2
4017.377	-138.2
4019.87	-136.2
4022.361	-136.2
4024.85	-133.2
4027.338	-133.2
4029.823	-130.2
4032.307	-132.2
4034.789	-136.2
4037.269	-130.2
4039.747	-132.2
4042.224	-132.2
4044.699	-134.2
4047.172	-129.2
4049.643	-128.2
4052.112	-132.2
4054.58	-134.2
4057.046	-136.2
4059.51	-136.2
4061.972	-133.2
4064.432	-130.2
4066.891	-131.2
4069.348	-131.2
4071.803	-135.2
4074.256	-137.2
4076.708	-134.2
4079.158	-135.2
4081.606	-124.2
4084.052	-139.2
4086.497	-131.2
4088.939	-124.2
4091.38	-133.2
4093.819	-136.2
4096.257	-138.2
4098.693	-137.2
4101.127	-139.2
4103.559	-139.2
4105.989	26.8
4108.418	32.8
4110.845	27.8
4113.27	22.8
4115.694	12.8
4118.115	16.8
4120.535	-136.2
4122.954	-137.2
4125.37	-133.2
4127.785	-133.2
4130.198	-132.2
4132.609	-132.2
4135.019	-136.2
4137.427	-142.2
4139.833	-145.2
4142.237	-140.2
