Data from 2018-2-8_conc=4_n=1_RamanShift_04.txt Node
Date: Mon Mar 12 15:09:58 IST 2018
User: aro
Spectrometer: QEPB0276
Trigger mode: 0
Integration Time (sec): 3.000000E1
Scans to average: 1
Electric dark correction enabled: true
Nonlinearity correction enabled: false
Boxcar width: 0
XAxis mode: Raman Shifts
Number of Pixels in Spectrum: 1044
>>>>>Begin Spectral Data<<<<<
160.701	28.8
166.742	44.8
172.777	139.8
178.805	413.8
184.826	1136.8
190.841	2449.8
196.849	4045.8
202.85	5233.8
208.845	5720.8
214.833	5711.8
220.815	5667.8
226.789	5616.8
232.758	5642.8
238.719	5637.8
244.674	5584.8
250.623	5514.8
256.565	5424.8
262.5	5342.8
268.429	5293.8
274.351	5229.8
280.267	5203.8
286.176	5166.8
292.079	5168.8
297.975	5087.8
303.865	5094.8
309.748	5068.8
315.625	5057.8
321.495	5038.8
327.359	5020.8
333.217	5055.8
339.068	5062.8
344.912	5042.8
350.751	5068.8
356.583	5077.8
362.408	5047.8
368.227	5097.8
374.04	5090.8
379.847	5157.8
385.647	5112.8
391.44	5168.8
397.228	5180.8
403.009	5194.8
408.784	5219.8
414.553	5282.8
420.315	5274.8
426.071	5278.8
431.821	5245.8
437.565	5249.8
443.302	5245.8
449.033	5246.8
454.758	5186.8
460.477	5162.8
466.189	5170.8
471.896	5116.8
477.596	5075.8
483.29	5085.8
488.978	5055.8
494.66	5040.8
500.335	4989.8
506.005	4880.8
511.668	4716.8
517.325	4588.8
522.977	4488.8
528.622	4430.8
534.261	4356.8
539.894	4296.8
545.521	4279.8
551.141	4206.8
556.756	4219.8
562.365	4164.8
567.968	4177.8
573.565	4136.8
579.155	4096.8
584.74	4068.8
590.319	4066.8
595.892	4062.8
601.459	4050.8
607.02	4008.8
612.575	3994.8
618.124	3985.8
623.667	3942.8
629.204	3911.8
634.735	3869.8
640.261	3831.8
645.781	3843.8
651.294	3826.8
656.802	3806.8
662.304	3796.8
667.8	3785.8
673.29	3785.8
678.775	3766.8
684.254	3763.8
689.726	3778.8
695.193	3734.8
700.655	3731.8
706.11	3672.8
711.56	3673.8
717.004	3624.8
722.442	3649.8
727.874	3597.8
733.301	3588.8
738.722	3566.8
744.137	3584.8
749.547	3560.8
754.951	3571.8
760.349	3573.8
765.741	3575.8
771.128	3590.8
776.509	3600.8
781.885	3643.8
787.254	3644.8
792.618	3640.8
797.977	3622.8
803.33	3587.8
808.677	3578.8
814.019	3527.8
819.355	3512.8
824.686	3498.8
830.011	3489.8
835.33	3447.8
840.644	3500.8
845.952	3443.8
851.255	3441.8
856.552	3430.8
861.844	3399.8
867.13	3421.8
872.41	3371.8
877.686	3331.8
882.955	3327.8
888.219	3293.8
893.478	3259.8
898.731	3221.8
903.979	3194.8
909.221	3155.8
914.458	3146.8
919.69	3150.8
924.916	3128.8
930.136	3137.8
935.351	3149.8
940.561	3145.8
945.766	3143.8
950.965	3118.8
956.158	3116.8
961.347	3074.8
966.529	3045.8
971.707	2998.8
976.879	2968.8
982.046	2933.8
987.208	2894.8
992.364	2903.8
997.515	2929.8
1002.66	2954.8
1007.801	2981.8
1012.936	3009.8
1018.066	3002.8
1023.19	3010.8
1028.309	2997.8
1033.423	2998.8
1038.532	3003.8
1043.636	2944.8
1048.734	2938.8
1053.827	2922.8
1058.915	2847.8
1063.998	2838.8
1069.075	2833.8
1074.147	2829.8
1079.214	2848.8
1084.276	2848.8
1089.333	2885.8
1094.385	2860.8
1099.431	2882.8
1104.472	2866.8
1109.509	2847.8
1114.54	2822.8
1119.565	2772.8
1124.586	2740.8
1129.602	2707.8
1134.613	2675.8
1139.618	2656.8
1144.619	2652.8
1149.614	2646.8
1154.604	2671.8
1159.589	2684.8
1164.57	2707.8
1169.545	2709.8
1174.515	2701.8
1179.48	2685.8
1184.44	2659.8
1189.395	2633.8
1194.345	2609.8
1199.29	2594.8
1204.23	2596.8
1209.165	2608.8
1214.095	2613.8
1219.021	2600.8
1223.941	2641.8
1228.856	2626.8
1233.766	2642.8
1238.672	2668.8
1243.572	2648.8
1248.467	2640.8
1253.358	2606.8
1258.244	2578.8
1263.124	2528.8
1268	2472.8
1272.871	2459.8
1277.737	2438.8
1282.599	2436.8
1287.455	2435.8
1292.306	2431.8
1297.153	2439.8
1301.995	2468.8
1306.832	2456.8
1311.664	2483.8
1316.491	2485.8
1321.314	2480.8
1326.132	2468.8
1330.945	2447.8
1335.753	2411.8
1340.556	2358.8
1345.354	2325.8
1350.148	2284.8
1354.937	2255.8
1359.722	2232.8
1364.501	2208.8
1369.276	2164.8
1374.046	2126.8
1378.811	2110.8
1383.572	2099.8
1388.327	2094.8
1393.079	2093.8
1397.825	2074.8
1402.567	2097.8
1407.304	2088.8
1412.036	2078.8
1416.764	2090.8
1421.487	2108.8
1426.205	2093.8
1430.919	2104.8
1435.628	2103.8
1440.333	2132.8
1445.032	2163.8
1449.727	2182.8
1454.418	2167.8
1459.104	2165.8
1463.785	2126.8
1468.462	2099.8
1473.134	2060.8
1477.802	2016.8
1482.465	1981.8
1487.123	1930.8
1491.777	1917.8
1496.426	1888.8
1501.071	1878.8
1505.711	1875.8
1510.347	1878.8
1514.978	1874.8
1519.604	1872.8
1524.226	1868.8
1528.844	1850.8
1533.457	1828.8
1538.065	1828.8
1542.669	1859.8
1547.269	1840.8
1551.864	1839.8
1556.454	1856.8
1561.041	1865.8
1565.622	1868.8
1570.199	1888.8
1574.772	1913.8
1579.34	1926.8
1583.904	1956.8
1588.464	1977.8
1593.019	1956.8
1597.569	1959.8
1602.115	1976.8
1606.657	1953.8
1611.195	1956.8
1615.728	1969.8
1620.256	1942.8
1624.78	1961.8
1629.3	1958.8
1633.816	1971.8
1638.327	1967.8
1642.834	1972.8
1647.336	1991.8
1651.834	1978.8
1656.328	1959.8
1660.817	1969.8
1665.302	1951.8
1669.783	1929.8
1674.259	1875.8
1678.732	1836.8
1683.199	1788.8
1687.663	1737.8
1692.122	1678.8
1696.577	1613.8
1701.028	1549.8
1705.474	1493.8
1709.917	1449.8
1714.355	1418.8
1718.788	1406.8
1723.218	1410.8
1727.643	1402.8
1732.064	1401.8
1736.481	1373.8
1740.893	1338.8
1745.301	1301.8
1749.705	1294.8
1754.105	1267.8
1758.501	1269.8
1762.893	1235.8
1767.28	1217.8
1771.663	1211.8
1776.042	1205.8
1780.417	1183.8
1784.787	1170.8
1789.154	1163.8
1793.516	1175.8
1797.874	1145.8
1802.228	1128.8
1806.578	1116.8
1810.924	1118.8
1815.266	1108.8
1819.603	1089.8
1823.937	1090.8
1828.266	1090.8
1832.591	1094.8
1836.913	1086.8
1841.23	1083.8
1845.543	1087.8
1849.852	1082.8
1854.156	1067.8
1858.457	1087.8
1862.754	1098.8
1867.047	1082.8
1871.335	1063.8
1875.62	1075.8
1879.9	1076.8
1884.177	1064.8
1888.449	1045.8
1892.718	1047.8
1896.982	1029.8
1901.243	1005.8
1905.499	997.8
1909.752	992.8
1914	981.8
1918.245	981.8
1922.485	956.8
1926.722	960.8
1930.954	961.8
1935.183	947.8
1939.408	936.8
1943.628	938.8
1947.845	938.8
1952.058	923.8
1956.267	913.8
1960.472	904.8
1964.673	909.8
1968.87	885.8
1973.063	875.8
1977.252	870.8
1981.438	873.8
1985.619	880.8
1989.797	872.8
1993.971	886.8
1998.14	884.8
2002.306	877.8
2006.469	883.8
2010.627	886.8
2014.781	885.8
2018.932	875.8
2023.078	896.8
2027.221	891.8
2031.36	876.8
2035.495	872.8
2039.627	836.8
2043.754	823.8
2047.878	836.8
2051.998	826.8
2056.114	820.8
2060.226	813.8
2064.334	805.8
2068.439	805.8
2072.54	803.8
2076.637	807.8
2080.73	800.8
2084.82	805.8
2088.906	792.8
2092.988	782.8
2097.066	778.8
2101.14	763.8
2105.211	766.8
2109.278	758.8
2113.342	739.8
2117.401	740.8
2121.457	735.8
2125.509	728.8
2129.558	716.8
2133.602	719.8
2137.643	705.8
2141.681	732.8
2145.714	715.8
2149.744	703.8
2153.77	715.8
2157.793	707.8
2161.812	703.8
2165.827	690.8
2169.838	690.8
2173.846	674.8
2177.851	658.8
2181.851	645.8
2185.848	644.8
2189.841	656.8
2193.831	642.8
2197.817	639.8
2201.799	630.8
2205.778	626.8
2209.753	635.8
2213.725	625.8
2217.693	630.8
2221.657	613.8
2225.618	618.8
2229.575	627.8
2233.529	616.8
2237.479	617.8
2241.425	604.8
2245.368	588.8
2249.307	582.8
2253.243	574.8
2257.175	563.8
2261.104	557.8
2265.029	543.8
2268.95	544.8
2272.868	540.8
2276.783	519.8
2280.694	524.8
2284.601	520.8
2288.505	530.8
2292.405	507.8
2296.302	512.8
2300.195	493.8
2304.085	488.8
2307.971	469.8
2311.854	487.8
2315.734	463.8
2319.609	454.8
2323.482	445.8
2327.351	459.8
2331.216	456.8
2335.078	469.8
2338.937	447.8
2342.792	437.8
2346.643	432.8
2350.492	434.8
2354.336	442.8
2358.178	435.8
2362.015	431.8
2365.85	436.8
2369.681	437.8
2373.508	440.8
2377.333	434.8
2381.153	433.8
2384.971	442.8
2388.785	433.8
2392.595	423.8
2396.402	414.8
2400.206	419.8
2404.007	418.8
2407.804	409.8
2411.597	422.8
2415.388	402.8
2419.174	403.8
2422.958	401.8
2426.738	392.8
2430.515	391.8
2434.289	394.8
2438.059	384.8
2441.825	377.8
2445.589	388.8
2449.349	368.8
2453.106	367.8
2456.859	359.8
2460.61	370.8
2464.356	360.8
2468.1	348.8
2471.84	335.8
2475.577	340.8
2479.311	334.8
2483.041	334.8
2486.768	345.8
2490.492	333.8
2494.213	341.8
2497.93	340.8
2501.644	332.8
2505.355	325.8
2509.062	318.8
2512.766	324.8
2516.467	317.8
2520.165	318.8
2523.859	309.8
2527.551	309.8
2531.239	291.8
2534.923	289.8
2538.605	290.8
2542.283	282.8
2545.958	287.8
2549.63	283.8
2553.299	274.8
2556.964	277.8
2560.626	273.8
2564.285	266.8
2567.941	267.8
2571.594	270.8
2575.243	267.8
2578.89	252.8
2582.533	245.8
2586.173	251.8
2589.809	243.8
2593.443	252.8
2597.073	240.8
2600.701	233.8
2604.325	241.8
2607.946	242.8
2611.564	230.8
2615.178	234.8
2618.79	232.8
2622.398	236.8
2626.004	234.8
2629.606	226.8
2633.205	220.8
2636.801	222.8
2640.394	214.8
2643.983	225.8
2647.57	218.8
2651.153	212.8
2654.734	207.8
2658.311	204.8
2661.885	204.8
2665.456	208.8
2669.025	202.8
2672.589	199.8
2676.151	189.8
2679.71	191.8
2683.266	195.8
2686.819	196.8
2690.368	184.8
2693.915	177.8
2697.458	166.8
2700.999	172.8
2704.536	166.8
2708.071	161.8
2711.602	166.8
2715.13	162.8
2718.656	153.8
2722.178	169.8
2725.697	164.8
2729.214	144.8
2732.727	161.8
2736.237	154.8
2739.744	154.8
2743.249	158.8
2746.75	149.8
2750.248	143.8
2753.743	140.8
2757.236	130.8
2760.725	135.8
2764.211	127.8
2767.695	133.8
2771.175	118.8
2774.652	119.8
2778.127	130.8
2781.598	115.8
2785.067	132.8
2788.532	120.8
2791.995	132.8
2795.455	115.8
2798.911	119.8
2802.365	124.8
2805.816	134.8
2809.264	119.8
2812.709	136.8
2816.151	129.8
2819.59	128.8
2823.026	129.8
2826.46	120.8
2829.89	127.8
2833.318	115.8
2836.742	129.8
2840.164	122.8
2843.583	133.8
2846.999	134.8
2850.412	122.8
2853.822	130.8
2857.229	131.8
2860.634	144.8
2864.035	144.8
2867.434	145.8
2870.83	162.8
2874.223	163.8
2877.613	160.8
2881	179.8
2884.385	180.8
2887.766	170.8
2891.145	171.8
2894.521	173.8
2897.894	177.8
2901.264	178.8
2904.631	180.8
2907.996	183.8
2911.358	183.8
2914.717	193.8
2918.073	188.8
2921.426	199.8
2924.777	200.8
2928.124	214.8
2931.469	201.8
2934.811	220.8
2938.15	213.8
2941.487	228.8
2944.821	227.8
2948.152	231.8
2951.48	235.8
2954.805	236.8
2958.128	222.8
2961.447	218.8
2964.765	226.8
2968.079	223.8
2971.39	220.8
2974.699	226.8
2978.005	231.8
2981.308	233.8
2984.609	227.8
2987.907	230.8
2991.202	247.8
2994.494	242.8
2997.784	243.8
3001.07	250.8
3004.355	256.8
3007.636	256.8
3010.915	259.8
3014.191	259.8
3017.464	257.8
3020.734	271.8
3024.002	265.8
3027.267	275.8
3030.53	276.8
3033.789	284.8
3037.046	292.8
3040.301	289.8
3043.552	319.8
3046.801	314.8
3050.048	327.8
3053.291	334.8
3056.532	359.8
3059.771	367.8
3063.006	384.8
3066.239	401.8
3069.469	408.8
3072.697	405.8
3075.922	421.8
3079.144	430.8
3082.364	436.8
3085.581	453.8
3088.795	450.8
3092.007	467.8
3095.216	474.8
3098.423	477.8
3101.627	492.8
3104.828	508.8
3108.026	518.8
3111.222	531.8
3114.416	537.8
3117.607	553.8
3120.795	560.8
3123.98	577.8
3127.163	597.8
3130.344	611.8
3133.521	609.8
3136.696	633.8
3139.869	638.8
3143.039	648.8
3146.206	665.8
3149.371	670.8
3152.533	690.8
3155.693	685.8
3158.85	688.8
3162.005	700.8
3165.157	702.8
3168.306	700.8
3171.453	710.8
3174.597	729.8
3177.739	718.8
3180.878	723.8
3184.014	725.8
3187.149	732.8
3190.28	730.8
3193.409	730.8
3196.536	739.8
3199.659	749.8
3202.781	750.8
3205.9	751.8
3209.016	758.8
3212.13	747.8
3215.241	748.8
3218.35	727.8
3221.456	719.8
3224.56	725.8
3227.661	714.8
3230.76	703.8
3233.856	690.8
3236.95	671.8
3240.041	677.8
3243.13	654.8
3246.216	652.8
3249.3	648.8
3252.382	645.8
3255.46	639.8
3258.537	624.8
3261.611	620.8
3264.682	610.8
3267.751	622.8
3270.818	612.8
3273.882	605.8
3276.943	599.8
3280.002	600.8
3283.059	595.8
3286.113	582.8
3289.165	576.8
3292.214	576.8
3295.261	566.8
3298.306	562.8
3301.348	558.8
3304.387	558.8
3307.425	548.8
3310.459	544.8
3313.492	534.8
3316.521	521.8
3319.549	531.8
3322.574	519.8
3325.597	514.8
3328.617	521.8
3331.635	506.8
3334.65	506.8
3337.663	498.8
3340.674	503.8
3343.682	494.8
3346.688	499.8
3349.691	496.8
3352.692	489.8
3355.691	495.8
3358.687	491.8
3361.681	489.8
3364.673	488.8
3367.662	468.8
3370.649	460.8
3373.633	458.8
3376.615	441.8
3379.595	444.8
3382.572	433.8
3385.547	434.8
3388.52	417.8
3391.49	421.8
3394.458	413.8
3397.424	402.8
3400.387	392.8
3403.348	393.8
3406.307	383.8
3409.263	372.8
3412.217	362.8
3415.168	366.8
3418.118	362.8
3421.065	351.8
3424.009	360.8
3426.951	344.8
3429.891	343.8
3432.829	323.8
3435.764	332.8
3438.697	305.8
3441.628	298.8
3444.557	297.8
3447.483	279.8
3450.407	270.8
3453.328	256.8
3456.247	250.8
3459.164	242.8
3462.079	221.8
3464.991	229.8
3467.902	215.8
3470.809	208.8
3473.715	194.8
3476.618	191.8
3479.519	177.8
3482.418	173.8
3485.315	163.8
3488.209	159.8
3491.101	149.8
3493.99	148.8
3496.878	151.8
3499.763	133.8
3502.646	122.8
3505.527	112.8
3508.405	118.8
3511.281	108.8
3514.155	99.8
3517.027	84.8
3519.897	78.8
3522.764	68.8
3525.629	57.8
3528.492	56.8
3531.352	51.8
3534.211	41.8
3537.067	37.8
3539.921	36.8
3542.773	31.8
3545.622	5.8
3548.469	1.8
3551.315	3.8
3554.157	-4.2
3556.998	-11.2
3559.837	-8.2
3562.673	-13.2
3565.507	-15.2
3568.339	-19.2
3571.169	-36.2
3573.996	-37.2
3576.822	-37.2
3579.645	-34.2
3582.466	-30.2
3585.285	-38.2
3588.101	-39.2
3590.916	-54.2
3593.728	-60.2
3596.538	-60.2
3599.346	-67.2
3602.152	-55.2
3604.956	-62.2
3607.757	-58.2
3610.556	-72.2
3613.354	-69.2
3616.149	-82.2
3618.942	-82.2
3621.732	-77.2
3624.521	-78.2
3627.307	-80.2
3630.092	-82.2
3632.874	-84.2
3635.654	-92.2
3638.432	-90.2
3641.208	-89.2
3643.982	-92.2
3646.753	-98.2
3649.523	-95.2
3652.29	-96.2
3655.055	-98.2
3657.818	-104.2
3660.579	-107.2
3663.338	-101.2
3666.095	-106.2
3668.849	-109.2
3671.602	-116.2
3674.352	-110.2
3677.101	-118.2
3679.847	-118.2
3682.591	-127.2
3685.333	-120.2
3688.073	-121.2
3690.811	-118.2
3693.547	-131.2
3696.281	-130.2
3699.013	-129.2
3701.742	-122.2
3704.47	-129.2
3707.195	-121.2
3709.919	-129.2
3712.64	-130.2
3715.359	-131.2
3718.076	-135.2
3720.792	-135.2
3723.505	-136.2
3726.216	-135.2
3728.925	-137.2
3731.632	-130.2
3734.336	-144.2
3737.039	-137.2
3739.74	-136.2
3742.439	-146.2
3745.136	-130.2
3747.83	-144.2
3750.523	-141.2
3753.213	-139.2
3755.902	-136.2
3758.589	-144.2
3761.273	-138.2
3763.956	-141.2
3766.636	-142.2
3769.315	-132.2
3771.991	-138.2
3774.665	-141.2
3777.338	-139.2
3780.008	-140.2
3782.677	-145.2
3785.343	-142.2
3788.007	-141.2
3790.67	-138.2
3793.33	-137.2
3795.989	-143.2
3798.645	-136.2
3801.299	-145.2
3803.952	-146.2
3806.602	-143.2
3809.251	-144.2
3811.897	-148.2
3814.542	-143.2
3817.184	-140.2
3819.825	-148.2
3822.463	-154.2
3825.1	-145.2
3827.735	-145.2
3830.367	-146.2
3832.998	-147.2
3835.627	-145.2
3838.253	-146.2
3840.878	-145.2
3843.501	-141.2
3846.122	-145.2
3848.741	-150.2
3851.358	-143.2
3853.973	-153.2
3856.586	-146.2
3859.197	-149.2
3861.806	-142.2
3864.414	-147.2
3867.019	-141.2
3869.622	-145.2
3872.224	-134.2
3874.823	-124.2
3877.421	-110.2
3880.016	-83.2
3882.61	-64.2
3885.202	-57.2
3887.792	-77.2
3890.38	-107.2
3892.966	-134.2
3895.55	-136.2
3898.132	-143.2
3900.713	-147.2
3903.291	-148.2
3905.868	-151.2
3908.442	-142.2
3911.015	-146.2
3913.586	-149.2
3916.155	-146.2
3918.722	-147.2
3921.287	-146.2
3923.85	-148.2
3926.411	-152.2
3928.971	-150.2
3931.528	-146.2
3934.084	-147.2
3936.638	-138.2
3939.19	-151.2
3941.74	-153.2
3944.288	-148.2
3946.834	-144.2
3949.378	-149.2
3951.921	-150.2
3954.462	-151.2
3957	-147.2
3959.537	-142.2
3962.072	-148.2
3964.606	-142.2
3967.137	-147.2
3969.667	-148.2
3972.194	-157.2
3974.72	-150.2
3977.244	-149.2
3979.766	-148.2
3982.286	-143.2
3984.805	-146.2
3987.321	-148.2
3989.836	-140.2
3992.349	-149.2
3994.86	-145.2
3997.369	-145.2
3999.877	-147.2
4002.382	-141.2
4004.886	-150.2
4007.388	-149.2
4009.888	-147.2
4012.386	-151.2
4014.883	-148.2
4017.377	-144.2
4019.87	-145.2
4022.361	-145.2
4024.85	-146.2
4027.338	-142.2
4029.823	-147.2
4032.307	-141.2
4034.789	-144.2
4037.269	-145.2
4039.747	-144.2
4042.224	-143.2
4044.699	-147.2
4047.172	-141.2
4049.643	-142.2
4052.112	-149.2
4054.58	-151.2
4057.046	-147.2
4059.51	-147.2
4061.972	-143.2
4064.432	-149.2
4066.891	-144.2
4069.348	-148.2
4071.803	-154.2
4074.256	-146.2
4076.708	-145.2
4079.158	-142.2
4081.606	-137.2
4084.052	-148.2
4086.497	-147.2
4088.939	-137.2
4091.38	-148.2
4093.819	-146.2
4096.257	-152.2
4098.693	-150.2
4101.127	-154.2
4103.559	-149.2
4105.989	9.8
4108.418	0.8
4110.845	4.8
4113.27	-0.2
4115.694	1.8
4118.115	6.8
4120.535	-152.2
4122.954	-149.2
4125.37	-140.2
4127.785	-151.2
4130.198	-144.2
4132.609	-144.2
4135.019	-152.2
4137.427	-159.2
4139.833	-157.2
4142.237	-158.2
