Data from 2018-2-8_conc=3_n=10_RamanShift_03.txt Node
Date: Mon Mar 12 14:59:58 IST 2018
User: aro
Spectrometer: QEPB0276
Trigger mode: 0
Integration Time (sec): 3.000000E1
Scans to average: 1
Electric dark correction enabled: true
Nonlinearity correction enabled: false
Boxcar width: 0
XAxis mode: Raman Shifts
Number of Pixels in Spectrum: 1044
>>>>>Begin Spectral Data<<<<<
160.701	14.6
166.742	51.6
172.777	132.6
178.805	403.6
184.826	1110.6
190.841	2409.6
196.849	4005.6
202.85	5295.6
208.845	5772.6
214.833	5758.6
220.815	5689.6
226.789	5655.6
232.758	5670.6
238.719	5621.6
244.674	5612.6
250.623	5524.6
256.565	5467.6
262.5	5380.6
268.429	5325.6
274.351	5237.6
280.267	5199.6
286.176	5180.6
292.079	5189.6
297.975	5126.6
303.865	5114.6
309.748	5099.6
315.625	5088.6
321.495	5072.6
327.359	5050.6
333.217	5070.6
339.068	5053.6
344.912	5066.6
350.751	5090.6
356.583	5104.6
362.408	5085.6
368.227	5110.6
374.04	5134.6
379.847	5142.6
385.647	5157.6
391.44	5133.6
397.228	5192.6
403.009	5209.6
408.784	5262.6
414.553	5225.6
420.315	5265.6
426.071	5264.6
431.821	5269.6
437.565	5296.6
443.302	5245.6
449.033	5248.6
454.758	5228.6
460.477	5174.6
466.189	5163.6
471.896	5139.6
477.596	5115.6
483.29	5083.6
488.978	5110.6
494.66	5047.6
500.335	5026.6
506.005	4887.6
511.668	4750.6
517.325	4583.6
522.977	4500.6
528.622	4416.6
534.261	4343.6
539.894	4328.6
545.521	4251.6
551.141	4267.6
556.756	4232.6
562.365	4192.6
567.968	4170.6
573.565	4151.6
579.155	4099.6
584.74	4095.6
590.319	4090.6
595.892	4079.6
601.459	4074.6
607.02	4057.6
612.575	4026.6
618.124	4027.6
623.667	3967.6
629.204	3926.6
634.735	3888.6
640.261	3864.6
645.781	3852.6
651.294	3803.6
656.802	3830.6
662.304	3820.6
667.8	3803.6
673.29	3788.6
678.775	3787.6
684.254	3783.6
689.726	3775.6
695.193	3769.6
700.655	3714.6
706.11	3708.6
711.56	3682.6
717.004	3654.6
722.442	3644.6
727.874	3616.6
733.301	3626.6
738.722	3583.6
744.137	3594.6
749.547	3565.6
754.951	3583.6
760.349	3575.6
765.741	3602.6
771.128	3617.6
776.509	3634.6
781.885	3643.6
787.254	3640.6
792.618	3633.6
797.977	3648.6
803.33	3623.6
808.677	3567.6
814.019	3557.6
819.355	3514.6
824.686	3510.6
830.011	3486.6
835.33	3489.6
840.644	3455.6
845.952	3454.6
851.255	3481.6
856.552	3450.6
861.844	3418.6
867.13	3408.6
872.41	3378.6
877.686	3383.6
882.955	3340.6
888.219	3318.6
893.478	3272.6
898.731	3200.6
903.979	3199.6
909.221	3155.6
914.458	3168.6
919.69	3123.6
924.916	3129.6
930.136	3180.6
935.351	3170.6
940.561	3176.6
945.766	3154.6
950.965	3130.6
956.158	3128.6
961.347	3083.6
966.529	3039.6
971.707	3015.6
976.879	2934.6
982.046	2945.6
987.208	2925.6
992.364	2951.6
997.515	2955.6
1002.66	2973.6
1007.801	3006.6
1012.936	3009.6
1018.066	3018.6
1023.19	3006.6
1028.309	3007.6
1033.423	3034.6
1038.532	3023.6
1043.636	2981.6
1048.734	2946.6
1053.827	2905.6
1058.915	2874.6
1063.998	2848.6
1069.075	2830.6
1074.147	2855.6
1079.214	2852.6
1084.276	2873.6
1089.333	2873.6
1094.385	2891.6
1099.431	2870.6
1104.472	2857.6
1109.509	2872.6
1114.54	2854.6
1119.565	2791.6
1124.586	2744.6
1129.602	2722.6
1134.613	2735.6
1139.618	2685.6
1144.619	2674.6
1149.614	2684.6
1154.604	2700.6
1159.589	2689.6
1164.57	2706.6
1169.545	2683.6
1174.515	2689.6
1179.48	2704.6
1184.44	2676.6
1189.395	2645.6
1194.345	2645.6
1199.29	2611.6
1204.23	2605.6
1209.165	2617.6
1214.095	2630.6
1219.021	2641.6
1223.941	2650.6
1228.856	2665.6
1233.766	2673.6
1238.672	2691.6
1243.572	2674.6
1248.467	2663.6
1253.358	2636.6
1258.244	2565.6
1263.124	2556.6
1268	2493.6
1272.871	2487.6
1277.737	2471.6
1282.599	2433.6
1287.455	2418.6
1292.306	2460.6
1297.153	2456.6
1301.995	2472.6
1306.832	2476.6
1311.664	2501.6
1316.491	2499.6
1321.314	2492.6
1326.132	2478.6
1330.945	2466.6
1335.753	2407.6
1340.556	2390.6
1345.354	2362.6
1350.148	2343.6
1354.937	2281.6
1359.722	2223.6
1364.501	2197.6
1369.276	2159.6
1374.046	2137.6
1378.811	2090.6
1383.572	2081.6
1388.327	2084.6
1393.079	2088.6
1397.825	2083.6
1402.567	2086.6
1407.304	2100.6
1412.036	2092.6
1416.764	2120.6
1421.487	2099.6
1426.205	2106.6
1430.919	2094.6
1435.628	2122.6
1440.333	2140.6
1445.032	2158.6
1449.727	2185.6
1454.418	2187.6
1459.104	2172.6
1463.785	2137.6
1468.462	2107.6
1473.134	2076.6
1477.802	2004.6
1482.465	1987.6
1487.123	1940.6
1491.777	1910.6
1496.426	1907.6
1501.071	1881.6
1505.711	1877.6
1510.347	1866.6
1514.978	1848.6
1519.604	1853.6
1524.226	1864.6
1528.844	1859.6
1533.457	1833.6
1538.065	1817.6
1542.669	1810.6
1547.269	1823.6
1551.864	1822.6
1556.454	1855.6
1561.041	1868.6
1565.622	1864.6
1570.199	1871.6
1574.772	1871.6
1579.34	1915.6
1583.904	1934.6
1588.464	1960.6
1593.019	1964.6
1597.569	1985.6
1602.115	1948.6
1606.657	1958.6
1611.195	1934.6
1615.728	1955.6
1620.256	1914.6
1624.78	1925.6
1629.3	1942.6
1633.816	1964.6
1638.327	1950.6
1642.834	1963.6
1647.336	1972.6
1651.834	1990.6
1656.328	1994.6
1660.817	1988.6
1665.302	1955.6
1669.783	1903.6
1674.259	1873.6
1678.732	1836.6
1683.199	1777.6
1687.663	1722.6
1692.122	1680.6
1696.577	1595.6
1701.028	1516.6
1705.474	1469.6
1709.917	1418.6
1714.355	1400.6
1718.788	1384.6
1723.218	1406.6
1727.643	1405.6
1732.064	1374.6
1736.481	1381.6
1740.893	1349.6
1745.301	1326.6
1749.705	1299.6
1754.105	1261.6
1758.501	1249.6
1762.893	1233.6
1767.28	1205.6
1771.663	1199.6
1776.042	1191.6
1780.417	1179.6
1784.787	1164.6
1789.154	1162.6
1793.516	1146.6
1797.874	1120.6
1802.228	1118.6
1806.578	1106.6
1810.924	1095.6
1815.266	1080.6
1819.603	1086.6
1823.937	1078.6
1828.266	1060.6
1832.591	1071.6
1836.913	1064.6
1841.23	1077.6
1845.543	1064.6
1849.852	1073.6
1854.156	1072.6
1858.457	1071.6
1862.754	1076.6
1867.047	1080.6
1871.335	1073.6
1875.62	1081.6
1879.9	1061.6
1884.177	1072.6
1888.449	1059.6
1892.718	1041.6
1896.982	1016.6
1901.243	1003.6
1905.499	1003.6
1909.752	982.6
1914	978.6
1918.245	964.6
1922.485	947.6
1926.722	949.6
1930.954	946.6
1935.183	933.6
1939.408	935.6
1943.628	929.6
1947.845	916.6
1952.058	908.6
1956.267	905.6
1960.472	896.6
1964.673	872.6
1968.87	882.6
1973.063	873.6
1977.252	863.6
1981.438	879.6
1985.619	860.6
1989.797	857.6
1993.971	869.6
1998.14	867.6
2002.306	872.6
2006.469	866.6
2010.627	881.6
2014.781	874.6
2018.932	865.6
2023.078	868.6
2027.221	868.6
2031.36	860.6
2035.495	859.6
2039.627	845.6
2043.754	825.6
2047.878	808.6
2051.998	819.6
2056.114	813.6
2060.226	805.6
2064.334	790.6
2068.439	799.6
2072.54	811.6
2076.637	807.6
2080.73	787.6
2084.82	786.6
2088.906	785.6
2092.988	773.6
2097.066	768.6
2101.14	753.6
2105.211	758.6
2109.278	722.6
2113.342	721.6
2117.401	734.6
2121.457	719.6
2125.509	709.6
2129.558	706.6
2133.602	726.6
2137.643	713.6
2141.681	708.6
2145.714	700.6
2149.744	712.6
2153.77	696.6
2157.793	696.6
2161.812	694.6
2165.827	687.6
2169.838	688.6
2173.846	670.6
2177.851	659.6
2181.851	646.6
2185.848	639.6
2189.841	645.6
2193.831	641.6
2197.817	637.6
2201.799	628.6
2205.778	618.6
2209.753	627.6
2213.725	614.6
2217.693	616.6
2221.657	614.6
2225.618	624.6
2229.575	613.6
2233.529	609.6
2237.479	608.6
2241.425	589.6
2245.368	585.6
2249.307	584.6
2253.243	567.6
2257.175	551.6
2261.104	558.6
2265.029	551.6
2268.95	546.6
2272.868	538.6
2276.783	530.6
2280.694	515.6
2284.601	519.6
2288.505	507.6
2292.405	504.6
2296.302	495.6
2300.195	493.6
2304.085	482.6
2307.971	475.6
2311.854	470.6
2315.734	461.6
2319.609	444.6
2323.482	452.6
2327.351	451.6
2331.216	468.6
2335.078	476.6
2338.937	465.6
2342.792	441.6
2346.643	436.6
2350.492	441.6
2354.336	438.6
2358.178	439.6
2362.015	442.6
2365.85	441.6
2369.681	439.6
2373.508	445.6
2377.333	447.6
2381.153	437.6
2384.971	459.6
2388.785	432.6
2392.595	437.6
2396.402	421.6
2400.206	417.6
2404.007	420.6
2407.804	419.6
2411.597	410.6
2415.388	420.6
2419.174	420.6
2422.958	413.6
2426.738	415.6
2430.515	407.6
2434.289	410.6
2438.059	394.6
2441.825	392.6
2445.589	395.6
2449.349	386.6
2453.106	387.6
2456.859	375.6
2460.61	371.6
2464.356	372.6
2468.1	371.6
2471.84	349.6
2475.577	344.6
2479.311	350.6
2483.041	335.6
2486.768	352.6
2490.492	346.6
2494.213	352.6
2497.93	337.6
2501.644	344.6
2505.355	333.6
2509.062	334.6
2512.766	335.6
2516.467	320.6
2520.165	323.6
2523.859	324.6
2527.551	316.6
2531.239	300.6
2534.923	301.6
2538.605	306.6
2542.283	293.6
2545.958	290.6
2549.63	291.6
2553.299	288.6
2556.964	297.6
2560.626	281.6
2564.285	282.6
2567.941	282.6
2571.594	282.6
2575.243	264.6
2578.89	264.6
2582.533	261.6
2586.173	252.6
2589.809	258.6
2593.443	253.6
2597.073	253.6
2600.701	245.6
2604.325	231.6
2607.946	245.6
2611.564	246.6
2615.178	244.6
2618.79	236.6
2622.398	241.6
2626.004	239.6
2629.606	238.6
2633.205	230.6
2636.801	234.6
2640.394	225.6
2643.983	223.6
2647.57	232.6
2651.153	226.6
2654.734	213.6
2658.311	220.6
2661.885	211.6
2665.456	217.6
2669.025	220.6
2672.589	209.6
2676.151	211.6
2679.71	202.6
2683.266	199.6
2686.819	194.6
2690.368	191.6
2693.915	190.6
2697.458	188.6
2700.999	186.6
2704.536	184.6
2708.071	182.6
2711.602	173.6
2715.13	176.6
2718.656	163.6
2722.178	174.6
2725.697	164.6
2729.214	162.6
2732.727	166.6
2736.237	165.6
2739.744	158.6
2743.249	163.6
2746.75	154.6
2750.248	145.6
2753.743	133.6
2757.236	141.6
2760.725	136.6
2764.211	135.6
2767.695	135.6
2771.175	124.6
2774.652	128.6
2778.127	126.6
2781.598	125.6
2785.067	133.6
2788.532	131.6
2791.995	131.6
2795.455	135.6
2798.911	129.6
2802.365	135.6
2805.816	138.6
2809.264	125.6
2812.709	132.6
2816.151	130.6
2819.59	131.6
2823.026	141.6
2826.46	126.6
2829.89	127.6
2833.318	134.6
2836.742	132.6
2840.164	123.6
2843.583	137.6
2846.999	131.6
2850.412	132.6
2853.822	146.6
2857.229	142.6
2860.634	146.6
2864.035	153.6
2867.434	153.6
2870.83	155.6
2874.223	174.6
2877.613	165.6
2881	181.6
2884.385	187.6
2887.766	170.6
2891.145	173.6
2894.521	182.6
2897.894	178.6
2901.264	182.6
2904.631	192.6
2907.996	183.6
2911.358	183.6
2914.717	186.6
2918.073	193.6
2921.426	196.6
2924.777	205.6
2928.124	212.6
2931.469	211.6
2934.811	223.6
2938.15	227.6
2941.487	232.6
2944.821	233.6
2948.152	220.6
2951.48	227.6
2954.805	235.6
2958.128	226.6
2961.447	224.6
2964.765	227.6
2968.079	227.6
2971.39	226.6
2974.699	235.6
2978.005	229.6
2981.308	240.6
2984.609	240.6
2987.907	236.6
2991.202	243.6
2994.494	241.6
2997.784	240.6
3001.07	245.6
3004.355	256.6
3007.636	253.6
3010.915	247.6
3014.191	258.6
3017.464	263.6
3020.734	259.6
3024.002	265.6
3027.267	271.6
3030.53	279.6
3033.789	288.6
3037.046	283.6
3040.301	293.6
3043.552	307.6
3046.801	320.6
3050.048	329.6
3053.291	332.6
3056.532	346.6
3059.771	366.6
3063.006	362.6
3066.239	387.6
3069.469	403.6
3072.697	408.6
3075.922	416.6
3079.144	421.6
3082.364	445.6
3085.581	454.6
3088.795	451.6
3092.007	465.6
3095.216	477.6
3098.423	485.6
3101.627	499.6
3104.828	511.6
3108.026	504.6
3111.222	524.6
3114.416	529.6
3117.607	558.6
3120.795	559.6
3123.98	572.6
3127.163	580.6
3130.344	608.6
3133.521	619.6
3136.696	635.6
3139.869	637.6
3143.039	651.6
3146.206	647.6
3149.371	678.6
3152.533	681.6
3155.693	690.6
3158.85	674.6
3162.005	685.6
3165.157	691.6
3168.306	694.6
3171.453	702.6
3174.597	699.6
3177.739	705.6
3180.878	721.6
3184.014	733.6
3187.149	710.6
3190.28	725.6
3193.409	722.6
3196.536	722.6
3199.659	736.6
3202.781	724.6
3205.9	735.6
3209.016	733.6
3212.13	736.6
3215.241	735.6
3218.35	712.6
3221.456	712.6
3224.56	706.6
3227.661	709.6
3230.76	688.6
3233.856	683.6
3236.95	666.6
3240.041	657.6
3243.13	662.6
3246.216	653.6
3249.3	632.6
3252.382	629.6
3255.46	621.6
3258.537	617.6
3261.611	613.6
3264.682	604.6
3267.751	594.6
3270.818	606.6
3273.882	600.6
3276.943	587.6
3280.002	583.6
3283.059	579.6
3286.113	573.6
3289.165	565.6
3292.214	571.6
3295.261	565.6
3298.306	546.6
3301.348	540.6
3304.387	536.6
3307.425	536.6
3310.459	532.6
3313.492	528.6
3316.521	519.6
3319.549	511.6
3322.574	512.6
3325.597	507.6
3328.617	510.6
3331.635	501.6
3334.65	504.6
3337.663	496.6
3340.674	496.6
3343.682	500.6
3346.688	497.6
3349.691	498.6
3352.692	494.6
3355.691	485.6
3358.687	488.6
3361.681	481.6
3364.673	478.6
3367.662	466.6
3370.649	453.6
3373.633	455.6
3376.615	438.6
3379.595	442.6
3382.572	433.6
3385.547	435.6
3388.52	430.6
3391.49	406.6
3394.458	407.6
3397.424	401.6
3400.387	380.6
3403.348	395.6
3406.307	382.6
3409.263	375.6
3412.217	381.6
3415.168	374.6
3418.118	374.6
3421.065	346.6
3424.009	354.6
3426.951	357.6
3429.891	338.6
3432.829	327.6
3435.764	330.6
3438.697	314.6
3441.628	303.6
3444.557	291.6
3447.483	288.6
3450.407	276.6
3453.328	267.6
3456.247	252.6
3459.164	239.6
3462.079	233.6
3464.991	224.6
3467.902	214.6
3470.809	211.6
3473.715	188.6
3476.618	186.6
3479.519	187.6
3482.418	179.6
3485.315	171.6
3488.209	153.6
3491.101	145.6
3493.99	146.6
3496.878	135.6
3499.763	120.6
3502.646	120.6
3505.527	111.6
3508.405	103.6
3511.281	96.6
3514.155	96.6
3517.027	93.6
3519.897	83.6
3522.764	74.6
3525.629	56.6
3528.492	54.6
3531.352	39.6
3534.211	37.6
3537.067	32.6
3539.921	31.6
3542.773	21.6
3545.622	7.6
3548.469	6.6
3551.315	8.6
3554.157	-0.4
3556.998	-14.4
3559.837	-9.4
3562.673	-8.4
3565.507	-16.4
3568.339	-20.4
3571.169	-34.4
3573.996	-30.4
3576.822	-33.4
3579.645	-30.4
3582.466	-40.4
3585.285	-44.4
3588.101	-40.4
3590.916	-50.4
3593.728	-62.4
3596.538	-56.4
3599.346	-59.4
3602.152	-57.4
3604.956	-60.4
3607.757	-61.4
3610.556	-67.4
3613.354	-69.4
3616.149	-83.4
3618.942	-80.4
3621.732	-74.4
3624.521	-80.4
3627.307	-79.4
3630.092	-84.4
3632.874	-78.4
3635.654	-94.4
3638.432	-90.4
3641.208	-87.4
3643.982	-93.4
3646.753	-98.4
3649.523	-93.4
3652.29	-95.4
3655.055	-94.4
3657.818	-104.4
3660.579	-100.4
3663.338	-104.4
3666.095	-111.4
3668.849	-102.4
3671.602	-107.4
3674.352	-109.4
3677.101	-108.4
3679.847	-111.4
3682.591	-120.4
3685.333	-114.4
3688.073	-115.4
3690.811	-117.4
3693.547	-122.4
3696.281	-117.4
3699.013	-118.4
3701.742	-121.4
3704.47	-123.4
3707.195	-121.4
3709.919	-128.4
3712.64	-131.4
3715.359	-131.4
3718.076	-126.4
3720.792	-126.4
3723.505	-136.4
3726.216	-127.4
3728.925	-134.4
3731.632	-129.4
3734.336	-135.4
3737.039	-133.4
3739.74	-135.4
3742.439	-143.4
3745.136	-133.4
3747.83	-134.4
3750.523	-137.4
3753.213	-133.4
3755.902	-133.4
3758.589	-139.4
3761.273	-132.4
3763.956	-130.4
3766.636	-133.4
3769.315	-132.4
3771.991	-133.4
3774.665	-137.4
3777.338	-129.4
3780.008	-136.4
3782.677	-140.4
3785.343	-133.4
3788.007	-143.4
3790.67	-139.4
3793.33	-139.4
3795.989	-137.4
3798.645	-143.4
3801.299	-141.4
3803.952	-138.4
3806.602	-128.4
3809.251	-141.4
3811.897	-143.4
3814.542	-142.4
3817.184	-135.4
3819.825	-140.4
3822.463	-141.4
3825.1	-140.4
3827.735	-140.4
3830.367	-139.4
3832.998	-140.4
3835.627	-137.4
3838.253	-137.4
3840.878	-139.4
3843.501	-140.4
3846.122	-140.4
3848.741	-145.4
3851.358	-134.4
3853.973	-146.4
3856.586	-136.4
3859.197	-143.4
3861.806	-140.4
3864.414	-142.4
3867.019	-139.4
3869.622	-144.4
3872.224	-130.4
3874.823	-126.4
3877.421	-105.4
3880.016	-83.4
3882.61	-63.4
3885.202	-62.4
3887.792	-82.4
3890.38	-104.4
3892.966	-124.4
3895.55	-134.4
3898.132	-140.4
3900.713	-139.4
3903.291	-144.4
3905.868	-146.4
3908.442	-136.4
3911.015	-145.4
3913.586	-144.4
3916.155	-150.4
3918.722	-146.4
3921.287	-141.4
3923.85	-141.4
3926.411	-142.4
3928.971	-144.4
3931.528	-144.4
3934.084	-145.4
3936.638	-137.4
3939.19	-140.4
3941.74	-144.4
3944.288	-141.4
3946.834	-145.4
3949.378	-144.4
3951.921	-146.4
3954.462	-150.4
3957	-143.4
3959.537	-143.4
3962.072	-147.4
3964.606	-140.4
3967.137	-142.4
3969.667	-147.4
3972.194	-148.4
3974.72	-141.4
3977.244	-145.4
3979.766	-144.4
3982.286	-137.4
3984.805	-142.4
3987.321	-138.4
3989.836	-136.4
3992.349	-145.4
3994.86	-141.4
3997.369	-146.4
3999.877	-139.4
4002.382	-137.4
4004.886	-141.4
4007.388	-142.4
4009.888	-141.4
4012.386	-142.4
4014.883	-143.4
4017.377	-142.4
4019.87	-141.4
4022.361	-144.4
4024.85	-140.4
4027.338	-140.4
4029.823	-143.4
4032.307	-140.4
4034.789	-146.4
4037.269	-145.4
4039.747	-138.4
4042.224	-137.4
4044.699	-141.4
4047.172	-141.4
4049.643	-136.4
4052.112	-139.4
4054.58	-142.4
4057.046	-140.4
4059.51	-145.4
4061.972	-140.4
4064.432	-137.4
4066.891	-139.4
4069.348	-137.4
4071.803	-148.4
4074.256	-144.4
4076.708	-140.4
4079.158	-139.4
4081.606	-134.4
4084.052	-139.4
4086.497	-141.4
4088.939	-138.4
4091.38	-142.4
4093.819	-139.4
4096.257	-151.4
4098.693	-149.4
4101.127	-148.4
4103.559	-144.4
4105.989	5.6
4108.418	3.6
4110.845	0.6
4113.27	1.6
4115.694	-7.4
4118.115	-2.4
4120.535	-144.4
4122.954	-146.4
4125.37	-143.4
4127.785	-143.4
4130.198	-139.4
4132.609	-143.4
4135.019	-151.4
4137.427	-152.4
4139.833	-149.4
4142.237	-149.4
