Data from 2018-2-8_conc=4_n=8_RamanShift_02.txt Node
Date: Mon Mar 12 15:32:28 IST 2018
User: aro
Spectrometer: QEPB0276
Trigger mode: 0
Integration Time (sec): 3.000000E1
Scans to average: 1
Electric dark correction enabled: true
Nonlinearity correction enabled: false
Boxcar width: 0
XAxis mode: Raman Shifts
Number of Pixels in Spectrum: 1044
>>>>>Begin Spectral Data<<<<<
160.701	21.8
166.742	47.8
172.777	135.8
178.805	392.8
184.826	1061.8
190.841	2277.8
196.849	3757.8
202.85	4932.8
208.845	5370.8
214.833	5442.8
220.815	5315.8
226.789	5298.8
232.758	5319.8
238.719	5290.8
244.674	5271.8
250.623	5234.8
256.565	5161.8
262.5	5070.8
268.429	5015.8
274.351	4972.8
280.267	4940.8
286.176	4894.8
292.079	4882.8
297.975	4887.8
303.865	4861.8
309.748	4857.8
315.625	4817.8
321.495	4852.8
327.359	4859.8
333.217	4801.8
339.068	4821.8
344.912	4823.8
350.751	4806.8
356.583	4861.8
362.408	4876.8
368.227	4869.8
374.04	4887.8
379.847	4930.8
385.647	4916.8
391.44	4954.8
397.228	4968.8
403.009	5005.8
408.784	5024.8
414.553	5037.8
420.315	5062.8
426.071	5075.8
431.821	5052.8
437.565	5054.8
443.302	5046.8
449.033	5029.8
454.758	4996.8
460.477	4956.8
466.189	4960.8
471.896	4925.8
477.596	4903.8
483.29	4886.8
488.978	4877.8
494.66	4846.8
500.335	4750.8
506.005	4680.8
511.668	4527.8
517.325	4408.8
522.977	4288.8
528.622	4192.8
534.261	4127.8
539.894	4066.8
545.521	4014.8
551.141	4016.8
556.756	3976.8
562.365	3943.8
567.968	3935.8
573.565	3912.8
579.155	3880.8
584.74	3856.8
590.319	3859.8
595.892	3843.8
601.459	3838.8
607.02	3806.8
612.575	3781.8
618.124	3752.8
623.667	3723.8
629.204	3712.8
634.735	3658.8
640.261	3671.8
645.781	3607.8
651.294	3597.8
656.802	3587.8
662.304	3582.8
667.8	3571.8
673.29	3569.8
678.775	3581.8
684.254	3568.8
689.726	3538.8
695.193	3521.8
700.655	3497.8
706.11	3481.8
711.56	3470.8
717.004	3448.8
722.442	3450.8
727.874	3413.8
733.301	3407.8
738.722	3381.8
744.137	3383.8
749.547	3383.8
754.951	3380.8
760.349	3391.8
765.741	3395.8
771.128	3376.8
776.509	3394.8
781.885	3433.8
787.254	3444.8
792.618	3441.8
797.977	3443.8
803.33	3405.8
808.677	3391.8
814.019	3343.8
819.355	3331.8
824.686	3312.8
830.011	3291.8
835.33	3284.8
840.644	3259.8
845.952	3263.8
851.255	3266.8
856.552	3253.8
861.844	3250.8
867.13	3207.8
872.41	3198.8
877.686	3166.8
882.955	3129.8
888.219	3129.8
893.478	3088.8
898.731	3026.8
903.979	3016.8
909.221	2966.8
914.458	2996.8
919.69	2952.8
924.916	2967.8
930.136	2976.8
935.351	2971.8
940.561	2963.8
945.766	2984.8
950.965	2978.8
956.158	2942.8
961.347	2921.8
966.529	2869.8
971.707	2816.8
976.879	2791.8
982.046	2752.8
987.208	2748.8
992.364	2764.8
997.515	2765.8
1002.66	2802.8
1007.801	2807.8
1012.936	2843.8
1018.066	2841.8
1023.19	2840.8
1028.309	2841.8
1033.423	2851.8
1038.532	2840.8
1043.636	2809.8
1048.734	2788.8
1053.827	2746.8
1058.915	2707.8
1063.998	2705.8
1069.075	2666.8
1074.147	2686.8
1079.214	2683.8
1084.276	2684.8
1089.333	2715.8
1094.385	2745.8
1099.431	2714.8
1104.472	2719.8
1109.509	2692.8
1114.54	2663.8
1119.565	2618.8
1124.586	2588.8
1129.602	2570.8
1134.613	2540.8
1139.618	2528.8
1144.619	2507.8
1149.614	2538.8
1154.604	2545.8
1159.589	2542.8
1164.57	2519.8
1169.545	2553.8
1174.515	2540.8
1179.48	2534.8
1184.44	2507.8
1189.395	2493.8
1194.345	2471.8
1199.29	2466.8
1204.23	2453.8
1209.165	2470.8
1214.095	2475.8
1219.021	2502.8
1223.941	2497.8
1228.856	2506.8
1233.766	2522.8
1238.672	2518.8
1243.572	2518.8
1248.467	2479.8
1253.358	2471.8
1258.244	2437.8
1263.124	2388.8
1268	2362.8
1272.871	2332.8
1277.737	2331.8
1282.599	2290.8
1287.455	2290.8
1292.306	2288.8
1297.153	2303.8
1301.995	2319.8
1306.832	2338.8
1311.664	2344.8
1316.491	2373.8
1321.314	2341.8
1326.132	2356.8
1330.945	2320.8
1335.753	2269.8
1340.556	2250.8
1345.354	2227.8
1350.148	2192.8
1354.937	2143.8
1359.722	2110.8
1364.501	2070.8
1369.276	2057.8
1374.046	2012.8
1378.811	1989.8
1383.572	1993.8
1388.327	1988.8
1393.079	1979.8
1397.825	1979.8
1402.567	1985.8
1407.304	1979.8
1412.036	1981.8
1416.764	1995.8
1421.487	1982.8
1426.205	1984.8
1430.919	1981.8
1435.628	1995.8
1440.333	2018.8
1445.032	2030.8
1449.727	2049.8
1454.418	2064.8
1459.104	2056.8
1463.785	2031.8
1468.462	2010.8
1473.134	1981.8
1477.802	1928.8
1482.465	1899.8
1487.123	1837.8
1491.777	1818.8
1496.426	1825.8
1501.071	1797.8
1505.711	1784.8
1510.347	1798.8
1514.978	1800.8
1519.604	1806.8
1524.226	1776.8
1528.844	1781.8
1533.457	1747.8
1538.065	1734.8
1542.669	1744.8
1547.269	1752.8
1551.864	1760.8
1556.454	1769.8
1561.041	1769.8
1565.622	1781.8
1570.199	1784.8
1574.772	1801.8
1579.34	1828.8
1583.904	1846.8
1588.464	1855.8
1593.019	1858.8
1597.569	1844.8
1602.115	1841.8
1606.657	1857.8
1611.195	1838.8
1615.728	1848.8
1620.256	1829.8
1624.78	1856.8
1629.3	1848.8
1633.816	1835.8
1638.327	1855.8
1642.834	1846.8
1647.336	1874.8
1651.834	1880.8
1656.328	1902.8
1660.817	1886.8
1665.302	1848.8
1669.783	1831.8
1674.259	1776.8
1678.732	1743.8
1683.199	1712.8
1687.663	1670.8
1692.122	1620.8
1696.577	1542.8
1701.028	1492.8
1705.474	1408.8
1709.917	1381.8
1714.355	1366.8
1718.788	1344.8
1723.218	1346.8
1727.643	1342.8
1732.064	1339.8
1736.481	1319.8
1740.893	1311.8
1745.301	1262.8
1749.705	1255.8
1754.105	1217.8
1758.501	1200.8
1762.893	1186.8
1767.28	1173.8
1771.663	1170.8
1776.042	1162.8
1780.417	1144.8
1784.787	1116.8
1789.154	1130.8
1793.516	1120.8
1797.874	1098.8
1802.228	1074.8
1806.578	1075.8
1810.924	1068.8
1815.266	1044.8
1819.603	1037.8
1823.937	1043.8
1828.266	1045.8
1832.591	1039.8
1836.913	1031.8
1841.23	1048.8
1845.543	1043.8
1849.852	1030.8
1854.156	1028.8
1858.457	1044.8
1862.754	1045.8
1867.047	1049.8
1871.335	1040.8
1875.62	1049.8
1879.9	1041.8
1884.177	1031.8
1888.449	1014.8
1892.718	1008.8
1896.982	996.8
1901.243	992.8
1905.499	987.8
1909.752	963.8
1914	951.8
1918.245	938.8
1922.485	934.8
1926.722	926.8
1930.954	919.8
1935.183	929.8
1939.408	905.8
1943.628	909.8
1947.845	896.8
1952.058	894.8
1956.267	890.8
1960.472	866.8
1964.673	870.8
1968.87	847.8
1973.063	859.8
1977.252	833.8
1981.438	845.8
1985.619	842.8
1989.797	830.8
1993.971	851.8
1998.14	861.8
2002.306	842.8
2006.469	857.8
2010.627	841.8
2014.781	844.8
2018.932	847.8
2023.078	844.8
2027.221	856.8
2031.36	856.8
2035.495	826.8
2039.627	813.8
2043.754	788.8
2047.878	802.8
2051.998	787.8
2056.114	788.8
2060.226	785.8
2064.334	790.8
2068.439	774.8
2072.54	766.8
2076.637	778.8
2080.73	771.8
2084.82	774.8
2088.906	766.8
2092.988	753.8
2097.066	744.8
2101.14	736.8
2105.211	728.8
2109.278	721.8
2113.342	706.8
2117.401	700.8
2121.457	702.8
2125.509	694.8
2129.558	692.8
2133.602	686.8
2137.643	698.8
2141.681	687.8
2145.714	675.8
2149.744	686.8
2153.77	681.8
2157.793	683.8
2161.812	669.8
2165.827	663.8
2169.838	664.8
2173.846	654.8
2177.851	622.8
2181.851	629.8
2185.848	631.8
2189.841	620.8
2193.831	627.8
2197.817	605.8
2201.799	608.8
2205.778	606.8
2209.753	599.8
2213.725	596.8
2217.693	595.8
2221.657	601.8
2225.618	596.8
2229.575	594.8
2233.529	595.8
2237.479	593.8
2241.425	581.8
2245.368	559.8
2249.307	555.8
2253.243	550.8
2257.175	541.8
2261.104	538.8
2265.029	539.8
2268.95	526.8
2272.868	520.8
2276.783	505.8
2280.694	505.8
2284.601	504.8
2288.505	488.8
2292.405	487.8
2296.302	488.8
2300.195	474.8
2304.085	465.8
2307.971	451.8
2311.854	455.8
2315.734	440.8
2319.609	438.8
2323.482	442.8
2327.351	440.8
2331.216	439.8
2335.078	456.8
2338.937	436.8
2342.792	428.8
2346.643	425.8
2350.492	413.8
2354.336	424.8
2358.178	418.8
2362.015	417.8
2365.85	423.8
2369.681	419.8
2373.508	418.8
2377.333	424.8
2381.153	429.8
2384.971	421.8
2388.785	408.8
2392.595	405.8
2396.402	405.8
2400.206	406.8
2404.007	405.8
2407.804	402.8
2411.597	391.8
2415.388	389.8
2419.174	393.8
2422.958	391.8
2426.738	383.8
2430.515	386.8
2434.289	388.8
2438.059	373.8
2441.825	370.8
2445.589	379.8
2449.349	362.8
2453.106	360.8
2456.859	352.8
2460.61	363.8
2464.356	341.8
2468.1	356.8
2471.84	344.8
2475.577	337.8
2479.311	335.8
2483.041	325.8
2486.768	338.8
2490.492	331.8
2494.213	341.8
2497.93	322.8
2501.644	322.8
2505.355	316.8
2509.062	308.8
2512.766	319.8
2516.467	307.8
2520.165	323.8
2523.859	300.8
2527.551	311.8
2531.239	292.8
2534.923	283.8
2538.605	290.8
2542.283	291.8
2545.958	269.8
2549.63	289.8
2553.299	270.8
2556.964	281.8
2560.626	275.8
2564.285	263.8
2567.941	266.8
2571.594	263.8
2575.243	270.8
2578.89	258.8
2582.533	256.8
2586.173	237.8
2589.809	248.8
2593.443	244.8
2597.073	243.8
2600.701	236.8
2604.325	236.8
2607.946	240.8
2611.564	225.8
2615.178	234.8
2618.79	226.8
2622.398	236.8
2626.004	221.8
2629.606	231.8
2633.205	212.8
2636.801	221.8
2640.394	210.8
2643.983	226.8
2647.57	213.8
2651.153	204.8
2654.734	208.8
2658.311	202.8
2661.885	200.8
2665.456	199.8
2669.025	203.8
2672.589	196.8
2676.151	198.8
2679.71	187.8
2683.266	191.8
2686.819	187.8
2690.368	183.8
2693.915	185.8
2697.458	165.8
2700.999	180.8
2704.536	173.8
2708.071	165.8
2711.602	159.8
2715.13	163.8
2718.656	150.8
2722.178	152.8
2725.697	158.8
2729.214	148.8
2732.727	159.8
2736.237	146.8
2739.744	146.8
2743.249	144.8
2746.75	148.8
2750.248	141.8
2753.743	137.8
2757.236	139.8
2760.725	135.8
2764.211	131.8
2767.695	129.8
2771.175	115.8
2774.652	111.8
2778.127	129.8
2781.598	119.8
2785.067	113.8
2788.532	123.8
2791.995	126.8
2795.455	127.8
2798.911	123.8
2802.365	128.8
2805.816	136.8
2809.264	123.8
2812.709	129.8
2816.151	136.8
2819.59	131.8
2823.026	123.8
2826.46	121.8
2829.89	131.8
2833.318	119.8
2836.742	130.8
2840.164	118.8
2843.583	128.8
2846.999	138.8
2850.412	127.8
2853.822	132.8
2857.229	128.8
2860.634	141.8
2864.035	145.8
2867.434	133.8
2870.83	146.8
2874.223	158.8
2877.613	155.8
2881	160.8
2884.385	166.8
2887.766	166.8
2891.145	163.8
2894.521	161.8
2897.894	174.8
2901.264	172.8
2904.631	159.8
2907.996	168.8
2911.358	174.8
2914.717	180.8
2918.073	175.8
2921.426	193.8
2924.777	191.8
2928.124	191.8
2931.469	200.8
2934.811	190.8
2938.15	208.8
2941.487	211.8
2944.821	214.8
2948.152	209.8
2951.48	218.8
2954.805	217.8
2958.128	213.8
2961.447	205.8
2964.765	210.8
2968.079	209.8
2971.39	202.8
2974.699	220.8
2978.005	217.8
2981.308	210.8
2984.609	213.8
2987.907	213.8
2991.202	224.8
2994.494	223.8
2997.784	218.8
3001.07	229.8
3004.355	233.8
3007.636	225.8
3010.915	230.8
3014.191	236.8
3017.464	252.8
3020.734	241.8
3024.002	235.8
3027.267	254.8
3030.53	263.8
3033.789	267.8
3037.046	273.8
3040.301	267.8
3043.552	291.8
3046.801	288.8
3050.048	293.8
3053.291	307.8
3056.532	324.8
3059.771	339.8
3063.006	337.8
3066.239	356.8
3069.469	374.8
3072.697	378.8
3075.922	387.8
3079.144	396.8
3082.364	408.8
3085.581	415.8
3088.795	416.8
3092.007	434.8
3095.216	436.8
3098.423	454.8
3101.627	448.8
3104.828	473.8
3108.026	478.8
3111.222	488.8
3114.416	487.8
3117.607	512.8
3120.795	516.8
3123.98	527.8
3127.163	549.8
3130.344	560.8
3133.521	573.8
3136.696	583.8
3139.869	600.8
3143.039	601.8
3146.206	613.8
3149.371	623.8
3152.533	638.8
3155.693	625.8
3158.85	629.8
3162.005	639.8
3165.157	640.8
3168.306	644.8
3171.453	647.8
3174.597	650.8
3177.739	654.8
3180.878	650.8
3184.014	672.8
3187.149	662.8
3190.28	679.8
3193.409	669.8
3196.536	671.8
3199.659	674.8
3202.781	678.8
3205.9	678.8
3209.016	678.8
3212.13	683.8
3215.241	677.8
3218.35	667.8
3221.456	665.8
3224.56	659.8
3227.661	664.8
3230.76	636.8
3233.856	630.8
3236.95	633.8
3240.041	625.8
3243.13	602.8
3246.216	598.8
3249.3	579.8
3252.382	594.8
3255.46	583.8
3258.537	572.8
3261.611	553.8
3264.682	552.8
3267.751	559.8
3270.818	548.8
3273.882	555.8
3276.943	558.8
3280.002	546.8
3283.059	537.8
3286.113	535.8
3289.165	537.8
3292.214	525.8
3295.261	523.8
3298.306	512.8
3301.348	501.8
3304.387	493.8
3307.425	496.8
3310.459	492.8
3313.492	479.8
3316.521	480.8
3319.549	472.8
3322.574	469.8
3325.597	455.8
3328.617	456.8
3331.635	460.8
3334.65	465.8
3337.663	461.8
3340.674	455.8
3343.682	464.8
3346.688	439.8
3349.691	448.8
3352.692	450.8
3355.691	450.8
3358.687	444.8
3361.681	455.8
3364.673	428.8
3367.662	427.8
3370.649	415.8
3373.633	415.8
3376.615	393.8
3379.595	399.8
3382.572	400.8
3385.547	390.8
3388.52	387.8
3391.49	373.8
3394.458	371.8
3397.424	359.8
3400.387	350.8
3403.348	365.8
3406.307	343.8
3409.263	340.8
3412.217	340.8
3415.168	340.8
3418.118	331.8
3421.065	325.8
3424.009	320.8
3426.951	324.8
3429.891	300.8
3432.829	296.8
3435.764	296.8
3438.697	286.8
3441.628	284.8
3444.557	270.8
3447.483	255.8
3450.407	252.8
3453.328	242.8
3456.247	226.8
3459.164	216.8
3462.079	204.8
3464.991	197.8
3467.902	199.8
3470.809	192.8
3473.715	177.8
3476.618	166.8
3479.519	164.8
3482.418	153.8
3485.315	146.8
3488.209	132.8
3491.101	136.8
3493.99	137.8
3496.878	133.8
3499.763	106.8
3502.646	99.8
3505.527	100.8
3508.405	101.8
3511.281	81.8
3514.155	79.8
3517.027	73.8
3519.897	71.8
3522.764	49.8
3525.629	55.8
3528.492	35.8
3531.352	37.8
3534.211	24.8
3537.067	27.8
3539.921	17.8
3542.773	16.8
3545.622	0.8
3548.469	3.8
3551.315	-3.2
3554.157	-7.2
3556.998	-12.2
3559.837	-12.2
3562.673	-17.2
3565.507	-14.2
3568.339	-21.2
3571.169	-32.2
3573.996	-39.2
3576.822	-31.2
3579.645	-38.2
3582.466	-46.2
3585.285	-47.2
3588.101	-37.2
3590.916	-53.2
3593.728	-59.2
3596.538	-62.2
3599.346	-66.2
3602.152	-69.2
3604.956	-73.2
3607.757	-63.2
3610.556	-72.2
3613.354	-72.2
3616.149	-79.2
3618.942	-86.2
3621.732	-84.2
3624.521	-78.2
3627.307	-86.2
3630.092	-83.2
3632.874	-81.2
3635.654	-89.2
3638.432	-83.2
3641.208	-92.2
3643.982	-93.2
3646.753	-96.2
3649.523	-102.2
3652.29	-101.2
3655.055	-101.2
3657.818	-103.2
3660.579	-96.2
3663.338	-96.2
3666.095	-110.2
3668.849	-106.2
3671.602	-116.2
3674.352	-109.2
3677.101	-113.2
3679.847	-114.2
3682.591	-116.2
3685.333	-114.2
3688.073	-116.2
3690.811	-118.2
3693.547	-122.2
3696.281	-122.2
3699.013	-114.2
3701.742	-122.2
3704.47	-124.2
3707.195	-121.2
3709.919	-126.2
3712.64	-126.2
3715.359	-132.2
3718.076	-130.2
3720.792	-128.2
3723.505	-127.2
3726.216	-120.2
3728.925	-133.2
3731.632	-122.2
3734.336	-140.2
3737.039	-132.2
3739.74	-133.2
3742.439	-141.2
3745.136	-129.2
3747.83	-138.2
3750.523	-129.2
3753.213	-128.2
3755.902	-133.2
3758.589	-140.2
3761.273	-131.2
3763.956	-134.2
3766.636	-133.2
3769.315	-130.2
3771.991	-128.2
3774.665	-139.2
3777.338	-130.2
3780.008	-139.2
3782.677	-138.2
3785.343	-137.2
3788.007	-141.2
3790.67	-137.2
3793.33	-132.2
3795.989	-141.2
3798.645	-136.2
3801.299	-140.2
3803.952	-148.2
3806.602	-136.2
3809.251	-145.2
3811.897	-141.2
3814.542	-140.2
3817.184	-135.2
3819.825	-136.2
3822.463	-140.2
3825.1	-138.2
3827.735	-138.2
3830.367	-147.2
3832.998	-143.2
3835.627	-137.2
3838.253	-134.2
3840.878	-141.2
3843.501	-140.2
3846.122	-141.2
3848.741	-145.2
3851.358	-137.2
3853.973	-143.2
3856.586	-132.2
3859.197	-142.2
3861.806	-135.2
3864.414	-140.2
3867.019	-137.2
3869.622	-140.2
3872.224	-129.2
3874.823	-113.2
3877.421	-101.2
3880.016	-72.2
3882.61	-54.2
3885.202	-53.2
3887.792	-71.2
3890.38	-105.2
3892.966	-126.2
3895.55	-131.2
3898.132	-136.2
3900.713	-140.2
3903.291	-139.2
3905.868	-142.2
3908.442	-139.2
3911.015	-143.2
3913.586	-143.2
3916.155	-138.2
3918.722	-139.2
3921.287	-137.2
3923.85	-142.2
3926.411	-141.2
3928.971	-143.2
3931.528	-146.2
3934.084	-143.2
3936.638	-141.2
3939.19	-144.2
3941.74	-140.2
3944.288	-140.2
3946.834	-141.2
3949.378	-142.2
3951.921	-145.2
3954.462	-150.2
3957	-144.2
3959.537	-136.2
3962.072	-143.2
3964.606	-139.2
3967.137	-138.2
3969.667	-142.2
3972.194	-147.2
3974.72	-141.2
3977.244	-142.2
3979.766	-140.2
3982.286	-140.2
3984.805	-141.2
3987.321	-140.2
3989.836	-128.2
3992.349	-144.2
3994.86	-147.2
3997.369	-143.2
3999.877	-142.2
4002.382	-136.2
4004.886	-141.2
4007.388	-139.2
4009.888	-141.2
4012.386	-141.2
4014.883	-145.2
4017.377	-141.2
4019.87	-137.2
4022.361	-143.2
4024.85	-138.2
4027.338	-140.2
4029.823	-137.2
4032.307	-137.2
4034.789	-144.2
4037.269	-144.2
4039.747	-131.2
4042.224	-140.2
4044.699	-143.2
4047.172	-138.2
4049.643	-134.2
4052.112	-140.2
4054.58	-139.2
4057.046	-142.2
4059.51	-139.2
4061.972	-136.2
4064.432	-134.2
4066.891	-141.2
4069.348	-140.2
4071.803	-149.2
4074.256	-145.2
4076.708	-137.2
4079.158	-136.2
4081.606	-135.2
4084.052	-140.2
4086.497	-140.2
4088.939	-134.2
4091.38	-142.2
4093.819	-142.2
4096.257	-147.2
4098.693	-144.2
4101.127	-147.2
4103.559	-142.2
4105.989	15.8
4108.418	15.8
4110.845	15.8
4113.27	10.8
4115.694	7.8
4118.115	3.8
4120.535	-146.2
4122.954	-141.2
4125.37	-134.2
4127.785	-138.2
4130.198	-140.2
4132.609	-137.2
4135.019	-151.2
4137.427	-150.2
4139.833	-150.2
4142.237	-146.2
