Data from 2018-2-8_conc=5_n=10_RamanShift_05.txt Node
Date: Mon Mar 12 16:22:28 IST 2018
User: aro
Spectrometer: QEPB0276
Trigger mode: 0
Integration Time (sec): 3.000000E1
Scans to average: 1
Electric dark correction enabled: true
Nonlinearity correction enabled: false
Boxcar width: 0
XAxis mode: Raman Shifts
Number of Pixels in Spectrum: 1044
>>>>>Begin Spectral Data<<<<<
160.701	14.6
166.742	46.6
172.777	115.6
178.805	359.6
184.826	966.6
190.841	2105.6
196.849	3502.6
202.85	4615.6
208.845	5036.6
214.833	5041.6
220.815	4968.6
226.789	4944.6
232.758	4944.6
238.719	4977.6
244.674	4909.6
250.623	4883.6
256.565	4816.6
262.5	4744.6
268.429	4701.6
274.351	4644.6
280.267	4636.6
286.176	4617.6
292.079	4555.6
297.975	4536.6
303.865	4568.6
309.748	4562.6
315.625	4514.6
321.495	4512.6
327.359	4500.6
333.217	4524.6
339.068	4527.6
344.912	4552.6
350.751	4533.6
356.583	4546.6
362.408	4562.6
368.227	4564.6
374.04	4580.6
379.847	4591.6
385.647	4617.6
391.44	4631.6
397.228	4629.6
403.009	4680.6
408.784	4675.6
414.553	4719.6
420.315	4697.6
426.071	4717.6
431.821	4716.6
437.565	4736.6
443.302	4694.6
449.033	4678.6
454.758	4655.6
460.477	4630.6
466.189	4634.6
471.896	4595.6
477.596	4564.6
483.29	4583.6
488.978	4549.6
494.66	4542.6
500.335	4488.6
506.005	4371.6
511.668	4192.6
517.325	4064.6
522.977	3964.6
528.622	3868.6
534.261	3811.6
539.894	3772.6
545.521	3752.6
551.141	3719.6
556.756	3697.6
562.365	3632.6
567.968	3657.6
573.565	3611.6
579.155	3589.6
584.74	3588.6
590.319	3593.6
595.892	3588.6
601.459	3555.6
607.02	3549.6
612.575	3540.6
618.124	3487.6
623.667	3470.6
629.204	3417.6
634.735	3380.6
640.261	3355.6
645.781	3345.6
651.294	3332.6
656.802	3348.6
662.304	3322.6
667.8	3299.6
673.29	3308.6
678.775	3306.6
684.254	3300.6
689.726	3288.6
695.193	3260.6
700.655	3236.6
706.11	3229.6
711.56	3203.6
717.004	3211.6
722.442	3186.6
727.874	3179.6
733.301	3140.6
738.722	3142.6
744.137	3122.6
749.547	3150.6
754.951	3123.6
760.349	3125.6
765.741	3171.6
771.128	3156.6
776.509	3168.6
781.885	3167.6
787.254	3199.6
792.618	3190.6
797.977	3176.6
803.33	3166.6
808.677	3137.6
814.019	3093.6
819.355	3095.6
824.686	3071.6
830.011	3047.6
835.33	3037.6
840.644	3040.6
845.952	3008.6
851.255	3019.6
856.552	3013.6
861.844	2998.6
867.13	2968.6
872.41	2953.6
877.686	2935.6
882.955	2921.6
888.219	2862.6
893.478	2840.6
898.731	2811.6
903.979	2772.6
909.221	2782.6
914.458	2719.6
919.69	2729.6
924.916	2761.6
930.136	2756.6
935.351	2773.6
940.561	2747.6
945.766	2750.6
950.965	2753.6
956.158	2727.6
961.347	2690.6
966.529	2665.6
971.707	2621.6
976.879	2596.6
982.046	2552.6
987.208	2562.6
992.364	2563.6
997.515	2558.6
1002.66	2585.6
1007.801	2616.6
1012.936	2616.6
1018.066	2631.6
1023.19	2646.6
1028.309	2635.6
1033.423	2649.6
1038.532	2642.6
1043.636	2615.6
1048.734	2595.6
1053.827	2536.6
1058.915	2521.6
1063.998	2495.6
1069.075	2480.6
1074.147	2500.6
1079.214	2503.6
1084.276	2516.6
1089.333	2524.6
1094.385	2518.6
1099.431	2541.6
1104.472	2514.6
1109.509	2516.6
1114.54	2463.6
1119.565	2442.6
1124.586	2418.6
1129.602	2391.6
1134.613	2372.6
1139.618	2347.6
1144.619	2344.6
1149.614	2328.6
1154.604	2345.6
1159.589	2371.6
1164.57	2377.6
1169.545	2348.6
1174.515	2382.6
1179.48	2372.6
1184.44	2328.6
1189.395	2326.6
1194.345	2303.6
1199.29	2298.6
1204.23	2282.6
1209.165	2301.6
1214.095	2313.6
1219.021	2303.6
1223.941	2312.6
1228.856	2330.6
1233.766	2341.6
1238.672	2352.6
1243.572	2335.6
1248.467	2338.6
1253.358	2308.6
1258.244	2264.6
1263.124	2229.6
1268	2184.6
1272.871	2178.6
1277.737	2163.6
1282.599	2120.6
1287.455	2128.6
1292.306	2138.6
1297.153	2151.6
1301.995	2162.6
1306.832	2183.6
1311.664	2175.6
1316.491	2188.6
1321.314	2193.6
1326.132	2181.6
1330.945	2149.6
1335.753	2131.6
1340.556	2088.6
1345.354	2038.6
1350.148	2004.6
1354.937	2004.6
1359.722	1948.6
1364.501	1924.6
1369.276	1893.6
1374.046	1863.6
1378.811	1849.6
1383.572	1826.6
1388.327	1851.6
1393.079	1832.6
1397.825	1838.6
1402.567	1828.6
1407.304	1827.6
1412.036	1831.6
1416.764	1850.6
1421.487	1861.6
1426.205	1864.6
1430.919	1848.6
1435.628	1850.6
1440.333	1877.6
1445.032	1877.6
1449.727	1913.6
1454.418	1923.6
1459.104	1898.6
1463.785	1882.6
1468.462	1859.6
1473.134	1798.6
1477.802	1786.6
1482.465	1744.6
1487.123	1705.6
1491.777	1686.6
1496.426	1671.6
1501.071	1670.6
1505.711	1646.6
1510.347	1648.6
1514.978	1634.6
1519.604	1632.6
1524.226	1636.6
1528.844	1623.6
1533.457	1602.6
1538.065	1617.6
1542.669	1609.6
1547.269	1619.6
1551.864	1608.6
1556.454	1621.6
1561.041	1641.6
1565.622	1638.6
1570.199	1664.6
1574.772	1654.6
1579.34	1674.6
1583.904	1713.6
1588.464	1714.6
1593.019	1722.6
1597.569	1737.6
1602.115	1707.6
1606.657	1716.6
1611.195	1714.6
1615.728	1679.6
1620.256	1707.6
1624.78	1705.6
1629.3	1696.6
1633.816	1717.6
1638.327	1732.6
1642.834	1717.6
1647.336	1753.6
1651.834	1745.6
1656.328	1730.6
1660.817	1731.6
1665.302	1739.6
1669.783	1682.6
1674.259	1648.6
1678.732	1618.6
1683.199	1574.6
1687.663	1542.6
1692.122	1474.6
1696.577	1421.6
1701.028	1364.6
1705.474	1315.6
1709.917	1278.6
1714.355	1241.6
1718.788	1242.6
1723.218	1237.6
1727.643	1226.6
1732.064	1230.6
1736.481	1240.6
1740.893	1192.6
1745.301	1184.6
1749.705	1160.6
1754.105	1127.6
1758.501	1114.6
1762.893	1087.6
1767.28	1064.6
1771.663	1071.6
1776.042	1053.6
1780.417	1048.6
1784.787	1051.6
1789.154	1032.6
1793.516	1021.6
1797.874	994.6
1802.228	998.6
1806.578	970.6
1810.924	966.6
1815.266	947.6
1819.603	946.6
1823.937	965.6
1828.266	958.6
1832.591	950.6
1836.913	962.6
1841.23	959.6
1845.543	953.6
1849.852	951.6
1854.156	944.6
1858.457	960.6
1862.754	958.6
1867.047	959.6
1871.335	953.6
1875.62	956.6
1879.9	953.6
1884.177	962.6
1888.449	945.6
1892.718	920.6
1896.982	912.6
1901.243	898.6
1905.499	897.6
1909.752	873.6
1914	870.6
1918.245	866.6
1922.485	845.6
1926.722	847.6
1930.954	845.6
1935.183	838.6
1939.408	824.6
1943.628	829.6
1947.845	813.6
1952.058	818.6
1956.267	802.6
1960.472	792.6
1964.673	785.6
1968.87	795.6
1973.063	770.6
1977.252	770.6
1981.438	779.6
1985.619	783.6
1989.797	778.6
1993.971	773.6
1998.14	785.6
2002.306	772.6
2006.469	784.6
2010.627	784.6
2014.781	783.6
2018.932	784.6
2023.078	778.6
2027.221	769.6
2031.36	768.6
2035.495	766.6
2039.627	752.6
2043.754	733.6
2047.878	719.6
2051.998	722.6
2056.114	727.6
2060.226	720.6
2064.334	708.6
2068.439	710.6
2072.54	701.6
2076.637	710.6
2080.73	709.6
2084.82	689.6
2088.906	698.6
2092.988	685.6
2097.066	687.6
2101.14	668.6
2105.211	668.6
2109.278	659.6
2113.342	644.6
2117.401	647.6
2121.457	636.6
2125.509	641.6
2129.558	619.6
2133.602	636.6
2137.643	636.6
2141.681	629.6
2145.714	640.6
2149.744	631.6
2153.77	626.6
2157.793	624.6
2161.812	618.6
2165.827	610.6
2169.838	599.6
2173.846	598.6
2177.851	600.6
2181.851	577.6
2185.848	570.6
2189.841	568.6
2193.831	559.6
2197.817	560.6
2201.799	555.6
2205.778	566.6
2209.753	553.6
2213.725	552.6
2217.693	553.6
2221.657	553.6
2225.618	553.6
2229.575	551.6
2233.529	545.6
2237.479	543.6
2241.425	533.6
2245.368	517.6
2249.307	526.6
2253.243	522.6
2257.175	508.6
2261.104	500.6
2265.029	483.6
2268.95	481.6
2272.868	473.6
2276.783	471.6
2280.694	465.6
2284.601	461.6
2288.505	461.6
2292.405	449.6
2296.302	439.6
2300.195	437.6
2304.085	425.6
2307.971	425.6
2311.854	436.6
2315.734	418.6
2319.609	417.6
2323.482	405.6
2327.351	408.6
2331.216	419.6
2335.078	424.6
2338.937	410.6
2342.792	399.6
2346.643	400.6
2350.492	389.6
2354.336	392.6
2358.178	392.6
2362.015	397.6
2365.85	399.6
2369.681	393.6
2373.508	396.6
2377.333	390.6
2381.153	396.6
2384.971	390.6
2388.785	402.6
2392.595	380.6
2396.402	387.6
2400.206	375.6
2404.007	382.6
2407.804	371.6
2411.597	369.6
2415.388	359.6
2419.174	371.6
2422.958	374.6
2426.738	370.6
2430.515	369.6
2434.289	364.6
2438.059	368.6
2441.825	353.6
2445.589	351.6
2449.349	345.6
2453.106	352.6
2456.859	345.6
2460.61	345.6
2464.356	331.6
2468.1	331.6
2471.84	333.6
2475.577	330.6
2479.311	318.6
2483.041	322.6
2486.768	322.6
2490.492	309.6
2494.213	322.6
2497.93	307.6
2501.644	304.6
2505.355	305.6
2509.062	294.6
2512.766	310.6
2516.467	294.6
2520.165	294.6
2523.859	288.6
2527.551	285.6
2531.239	277.6
2534.923	275.6
2538.605	272.6
2542.283	265.6
2545.958	271.6
2549.63	263.6
2553.299	264.6
2556.964	265.6
2560.626	257.6
2564.285	258.6
2567.941	255.6
2571.594	261.6
2575.243	246.6
2578.89	244.6
2582.533	236.6
2586.173	228.6
2589.809	229.6
2593.443	242.6
2597.073	232.6
2600.701	214.6
2604.325	218.6
2607.946	222.6
2611.564	220.6
2615.178	228.6
2618.79	224.6
2622.398	222.6
2626.004	216.6
2629.606	216.6
2633.205	207.6
2636.801	204.6
2640.394	210.6
2643.983	205.6
2647.57	210.6
2651.153	199.6
2654.734	200.6
2658.311	183.6
2661.885	184.6
2665.456	183.6
2669.025	194.6
2672.589	197.6
2676.151	195.6
2679.71	191.6
2683.266	176.6
2686.819	176.6
2690.368	178.6
2693.915	173.6
2697.458	161.6
2700.999	172.6
2704.536	167.6
2708.071	157.6
2711.602	153.6
2715.13	156.6
2718.656	149.6
2722.178	144.6
2725.697	150.6
2729.214	147.6
2732.727	148.6
2736.237	153.6
2739.744	140.6
2743.249	136.6
2746.75	138.6
2750.248	130.6
2753.743	130.6
2757.236	120.6
2760.725	127.6
2764.211	119.6
2767.695	112.6
2771.175	110.6
2774.652	117.6
2778.127	105.6
2781.598	115.6
2785.067	121.6
2788.532	121.6
2791.995	108.6
2795.455	115.6
2798.911	114.6
2802.365	119.6
2805.816	128.6
2809.264	122.6
2812.709	126.6
2816.151	124.6
2819.59	119.6
2823.026	122.6
2826.46	119.6
2829.89	120.6
2833.318	130.6
2836.742	128.6
2840.164	113.6
2843.583	129.6
2846.999	125.6
2850.412	118.6
2853.822	123.6
2857.229	123.6
2860.634	134.6
2864.035	126.6
2867.434	131.6
2870.83	141.6
2874.223	155.6
2877.613	155.6
2881	166.6
2884.385	162.6
2887.766	152.6
2891.145	153.6
2894.521	163.6
2897.894	165.6
2901.264	161.6
2904.631	150.6
2907.996	164.6
2911.358	162.6
2914.717	170.6
2918.073	168.6
2921.426	167.6
2924.777	181.6
2928.124	185.6
2931.469	181.6
2934.811	194.6
2938.15	201.6
2941.487	196.6
2944.821	200.6
2948.152	200.6
2951.48	190.6
2954.805	202.6
2958.128	193.6
2961.447	194.6
2964.765	200.6
2968.079	186.6
2971.39	193.6
2974.699	205.6
2978.005	191.6
2981.308	205.6
2984.609	200.6
2987.907	196.6
2991.202	218.6
2994.494	201.6
2997.784	205.6
3001.07	205.6
3004.355	215.6
3007.636	222.6
3010.915	213.6
3014.191	221.6
3017.464	224.6
3020.734	226.6
3024.002	221.6
3027.267	238.6
3030.53	242.6
3033.789	248.6
3037.046	252.6
3040.301	250.6
3043.552	267.6
3046.801	277.6
3050.048	277.6
3053.291	281.6
3056.532	290.6
3059.771	309.6
3063.006	317.6
3066.239	330.6
3069.469	324.6
3072.697	343.6
3075.922	355.6
3079.144	357.6
3082.364	383.6
3085.581	383.6
3088.795	384.6
3092.007	388.6
3095.216	398.6
3098.423	415.6
3101.627	423.6
3104.828	436.6
3108.026	450.6
3111.222	450.6
3114.416	451.6
3117.607	476.6
3120.795	484.6
3123.98	484.6
3127.163	493.6
3130.344	520.6
3133.521	527.6
3136.696	548.6
3139.869	535.6
3143.039	546.6
3146.206	552.6
3149.371	573.6
3152.533	583.6
3155.693	577.6
3158.85	584.6
3162.005	582.6
3165.157	585.6
3168.306	581.6
3171.453	593.6
3174.597	601.6
3177.739	605.6
3180.878	616.6
3184.014	612.6
3187.149	612.6
3190.28	612.6
3193.409	611.6
3196.536	613.6
3199.659	620.6
3202.781	625.6
3205.9	635.6
3209.016	631.6
3212.13	621.6
3215.241	614.6
3218.35	623.6
3221.456	596.6
3224.56	589.6
3227.661	593.6
3230.76	587.6
3233.856	576.6
3236.95	563.6
3240.041	555.6
3243.13	540.6
3246.216	541.6
3249.3	520.6
3252.382	521.6
3255.46	521.6
3258.537	529.6
3261.611	517.6
3264.682	501.6
3267.751	512.6
3270.818	513.6
3273.882	498.6
3276.943	502.6
3280.002	494.6
3283.059	496.6
3286.113	489.6
3289.165	492.6
3292.214	465.6
3295.261	466.6
3298.306	469.6
3301.348	463.6
3304.387	447.6
3307.425	450.6
3310.459	445.6
3313.492	442.6
3316.521	423.6
3319.549	428.6
3322.574	429.6
3325.597	429.6
3328.617	429.6
3331.635	434.6
3334.65	417.6
3337.663	411.6
3340.674	421.6
3343.682	406.6
3346.688	408.6
3349.691	409.6
3352.692	414.6
3355.691	415.6
3358.687	397.6
3361.681	404.6
3364.673	400.6
3367.662	392.6
3370.649	389.6
3373.633	371.6
3376.615	365.6
3379.595	366.6
3382.572	367.6
3385.547	350.6
3388.52	346.6
3391.49	345.6
3394.458	340.6
3397.424	334.6
3400.387	324.6
3403.348	319.6
3406.307	306.6
3409.263	311.6
3412.217	311.6
3415.168	294.6
3418.118	314.6
3421.065	297.6
3424.009	298.6
3426.951	278.6
3429.891	283.6
3432.829	268.6
3435.764	263.6
3438.697	260.6
3441.628	249.6
3444.557	249.6
3447.483	232.6
3450.407	228.6
3453.328	219.6
3456.247	208.6
3459.164	192.6
3462.079	186.6
3464.991	178.6
3467.902	180.6
3470.809	172.6
3473.715	159.6
3476.618	149.6
3479.519	146.6
3482.418	147.6
3485.315	135.6
3488.209	128.6
3491.101	120.6
3493.99	122.6
3496.878	116.6
3499.763	95.6
3502.646	100.6
3505.527	90.6
3508.405	84.6
3511.281	76.6
3514.155	68.6
3517.027	69.6
3519.897	63.6
3522.764	48.6
3525.629	41.6
3528.492	39.6
3531.352	37.6
3534.211	22.6
3537.067	18.6
3539.921	22.6
3542.773	10.6
3545.622	3.6
3548.469	-8.4
3551.315	0.6
3554.157	-9.4
3556.998	-6.4
3559.837	-10.4
3562.673	-16.4
3565.507	-13.4
3568.339	-21.4
3571.169	-32.4
3573.996	-32.4
3576.822	-30.4
3579.645	-33.4
3582.466	-32.4
3585.285	-40.4
3588.101	-30.4
3590.916	-51.4
3593.728	-57.4
3596.538	-52.4
3599.346	-54.4
3602.152	-59.4
3604.956	-55.4
3607.757	-49.4
3610.556	-68.4
3613.354	-60.4
3616.149	-73.4
3618.942	-79.4
3621.732	-71.4
3624.521	-70.4
3627.307	-74.4
3630.092	-75.4
3632.874	-75.4
3635.654	-80.4
3638.432	-80.4
3641.208	-83.4
3643.982	-91.4
3646.753	-93.4
3649.523	-86.4
3652.29	-86.4
3655.055	-88.4
3657.818	-93.4
3660.579	-91.4
3663.338	-96.4
3666.095	-91.4
3668.849	-95.4
3671.602	-99.4
3674.352	-103.4
3677.101	-102.4
3679.847	-101.4
3682.591	-105.4
3685.333	-104.4
3688.073	-100.4
3690.811	-105.4
3693.547	-111.4
3696.281	-105.4
3699.013	-109.4
3701.742	-111.4
3704.47	-116.4
3707.195	-110.4
3709.919	-109.4
3712.64	-116.4
3715.359	-116.4
3718.076	-115.4
3720.792	-115.4
3723.505	-118.4
3726.216	-112.4
3728.925	-118.4
3731.632	-114.4
3734.336	-120.4
3737.039	-112.4
3739.74	-123.4
3742.439	-129.4
3745.136	-114.4
3747.83	-121.4
3750.523	-118.4
3753.213	-117.4
3755.902	-116.4
3758.589	-124.4
3761.273	-117.4
3763.956	-118.4
3766.636	-126.4
3769.315	-118.4
3771.991	-114.4
3774.665	-123.4
3777.338	-117.4
3780.008	-124.4
3782.677	-123.4
3785.343	-123.4
3788.007	-124.4
3790.67	-121.4
3793.33	-119.4
3795.989	-122.4
3798.645	-120.4
3801.299	-126.4
3803.952	-128.4
3806.602	-118.4
3809.251	-127.4
3811.897	-129.4
3814.542	-124.4
3817.184	-117.4
3819.825	-118.4
3822.463	-124.4
3825.1	-125.4
3827.735	-124.4
3830.367	-124.4
3832.998	-125.4
3835.627	-124.4
3838.253	-123.4
3840.878	-126.4
3843.501	-124.4
3846.122	-125.4
3848.741	-127.4
3851.358	-120.4
3853.973	-126.4
3856.586	-126.4
3859.197	-129.4
3861.806	-120.4
3864.414	-132.4
3867.019	-123.4
3869.622	-122.4
3872.224	-116.4
3874.823	-104.4
3877.421	-101.4
3880.016	-84.4
3882.61	-65.4
3885.202	-65.4
3887.792	-73.4
3890.38	-105.4
3892.966	-117.4
3895.55	-121.4
3898.132	-127.4
3900.713	-126.4
3903.291	-127.4
3905.868	-129.4
3908.442	-122.4
3911.015	-130.4
3913.586	-128.4
3916.155	-132.4
3918.722	-133.4
3921.287	-131.4
3923.85	-126.4
3926.411	-129.4
3928.971	-122.4
3931.528	-129.4
3934.084	-129.4
3936.638	-123.4
3939.19	-131.4
3941.74	-134.4
3944.288	-125.4
3946.834	-125.4
3949.378	-130.4
3951.921	-131.4
3954.462	-135.4
3957	-133.4
3959.537	-123.4
3962.072	-127.4
3964.606	-127.4
3967.137	-121.4
3969.667	-129.4
3972.194	-129.4
3974.72	-129.4
3977.244	-131.4
3979.766	-130.4
3982.286	-129.4
3984.805	-129.4
3987.321	-119.4
3989.836	-118.4
3992.349	-128.4
3994.86	-130.4
3997.369	-135.4
3999.877	-128.4
4002.382	-122.4
4004.886	-128.4
4007.388	-125.4
4009.888	-125.4
4012.386	-125.4
4014.883	-132.4
4017.377	-129.4
4019.87	-125.4
4022.361	-131.4
4024.85	-126.4
4027.338	-125.4
4029.823	-119.4
4032.307	-124.4
4034.789	-130.4
4037.269	-128.4
4039.747	-126.4
4042.224	-124.4
4044.699	-124.4
4047.172	-124.4
4049.643	-122.4
4052.112	-125.4
4054.58	-129.4
4057.046	-129.4
4059.51	-135.4
4061.972	-124.4
4064.432	-126.4
4066.891	-122.4
4069.348	-118.4
4071.803	-125.4
4074.256	-127.4
4076.708	-122.4
4079.158	-127.4
4081.606	-115.4
4084.052	-128.4
4086.497	-124.4
4088.939	-119.4
4091.38	-129.4
4093.819	-130.4
4096.257	-133.4
4098.693	-129.4
4101.127	-129.4
4103.559	-127.4
4105.989	4.6
4108.418	4.6
4110.845	3.6
4113.27	3.6
4115.694	-8.4
4118.115	-3.4
4120.535	-130.4
4122.954	-131.4
4125.37	-120.4
4127.785	-124.4
4130.198	-121.4
4132.609	-126.4
4135.019	-133.4
4137.427	-136.4
4139.833	-133.4
4142.237	-133.4
