Data from 2018-2-8_conc=6_n=8_RamanShift_01.txt Node
Date: Mon Mar 12 16:44:57 IST 2018
User: aro
Spectrometer: QEPB0276
Trigger mode: 0
Integration Time (sec): 3.000000E1
Scans to average: 1
Electric dark correction enabled: true
Nonlinearity correction enabled: false
Boxcar width: 0
XAxis mode: Raman Shifts
Number of Pixels in Spectrum: 1044
>>>>>Begin Spectral Data<<<<<
160.701	11.5
166.742	36.5
172.777	125.5
178.805	401.5
184.826	1099.5
190.841	2358.5
196.849	3934.5
202.85	5163.5
208.845	5648.5
214.833	5646.5
220.815	5528.5
226.789	5529.5
232.758	5503.5
238.719	5518.5
244.674	5488.5
250.623	5386.5
256.565	5328.5
262.5	5260.5
268.429	5139.5
274.351	5120.5
280.267	5084.5
286.176	5027.5
292.079	5010.5
297.975	4973.5
303.865	4947.5
309.748	4954.5
315.625	4905.5
321.495	4925.5
327.359	4936.5
333.217	4907.5
339.068	4894.5
344.912	4890.5
350.751	4903.5
356.583	4929.5
362.408	4935.5
368.227	4931.5
374.04	4933.5
379.847	4971.5
385.647	5004.5
391.44	5021.5
397.228	5048.5
403.009	5051.5
408.784	5104.5
414.553	5080.5
420.315	5122.5
426.071	5131.5
431.821	5118.5
437.565	5110.5
443.302	5100.5
449.033	5071.5
454.758	5073.5
460.477	5030.5
466.189	5008.5
471.896	4993.5
477.596	4936.5
483.29	4936.5
488.978	4963.5
494.66	4917.5
500.335	4825.5
506.005	4761.5
511.668	4613.5
517.325	4481.5
522.977	4362.5
528.622	4302.5
534.261	4239.5
539.894	4202.5
545.521	4133.5
551.141	4127.5
556.756	4106.5
562.365	4073.5
567.968	4070.5
573.565	4021.5
579.155	3985.5
584.74	3972.5
590.319	3973.5
595.892	3948.5
601.459	3960.5
607.02	3922.5
612.575	3896.5
618.124	3878.5
623.667	3840.5
629.204	3807.5
634.735	3777.5
640.261	3751.5
645.781	3726.5
651.294	3747.5
656.802	3738.5
662.304	3694.5
667.8	3707.5
673.29	3714.5
678.775	3662.5
684.254	3685.5
689.726	3650.5
695.193	3634.5
700.655	3628.5
706.11	3607.5
711.56	3591.5
717.004	3547.5
722.442	3537.5
727.874	3547.5
733.301	3531.5
738.722	3482.5
744.137	3505.5
749.547	3491.5
754.951	3491.5
760.349	3481.5
765.741	3498.5
771.128	3501.5
776.509	3518.5
781.885	3578.5
787.254	3538.5
792.618	3562.5
797.977	3542.5
803.33	3520.5
808.677	3491.5
814.019	3455.5
819.355	3418.5
824.686	3407.5
830.011	3401.5
835.33	3386.5
840.644	3364.5
845.952	3399.5
851.255	3381.5
856.552	3355.5
861.844	3325.5
867.13	3307.5
872.41	3305.5
877.686	3260.5
882.955	3239.5
888.219	3225.5
893.478	3209.5
898.731	3147.5
903.979	3109.5
909.221	3084.5
914.458	3059.5
919.69	3056.5
924.916	3063.5
930.136	3081.5
935.351	3060.5
940.561	3091.5
945.766	3082.5
950.965	3082.5
956.158	3036.5
961.347	3005.5
966.529	2967.5
971.707	2923.5
976.879	2883.5
982.046	2850.5
987.208	2856.5
992.364	2847.5
997.515	2863.5
1002.66	2891.5
1007.801	2917.5
1012.936	2943.5
1018.066	2939.5
1023.19	2941.5
1028.309	2946.5
1033.423	2944.5
1038.532	2918.5
1043.636	2918.5
1048.734	2885.5
1053.827	2866.5
1058.915	2811.5
1063.998	2783.5
1069.075	2778.5
1074.147	2781.5
1079.214	2786.5
1084.276	2775.5
1089.333	2812.5
1094.385	2840.5
1099.431	2821.5
1104.472	2823.5
1109.509	2780.5
1114.54	2763.5
1119.565	2713.5
1124.586	2688.5
1129.602	2661.5
1134.613	2646.5
1139.618	2617.5
1144.619	2598.5
1149.614	2611.5
1154.604	2610.5
1159.589	2634.5
1164.57	2635.5
1169.545	2666.5
1174.515	2644.5
1179.48	2634.5
1184.44	2608.5
1189.395	2569.5
1194.345	2560.5
1199.29	2538.5
1204.23	2537.5
1209.165	2546.5
1214.095	2561.5
1219.021	2570.5
1223.941	2596.5
1228.856	2618.5
1233.766	2627.5
1238.672	2617.5
1243.572	2581.5
1248.467	2599.5
1253.358	2564.5
1258.244	2512.5
1263.124	2496.5
1268	2449.5
1272.871	2416.5
1277.737	2392.5
1282.599	2370.5
1287.455	2376.5
1292.306	2396.5
1297.153	2410.5
1301.995	2417.5
1306.832	2419.5
1311.664	2434.5
1316.491	2445.5
1321.314	2443.5
1326.132	2430.5
1330.945	2401.5
1335.753	2352.5
1340.556	2318.5
1345.354	2289.5
1350.148	2269.5
1354.937	2220.5
1359.722	2176.5
1364.501	2173.5
1369.276	2146.5
1374.046	2093.5
1378.811	2078.5
1383.572	2043.5
1388.327	2056.5
1393.079	2041.5
1397.825	2055.5
1402.567	2070.5
1407.304	2054.5
1412.036	2071.5
1416.764	2076.5
1421.487	2066.5
1426.205	2074.5
1430.919	2064.5
1435.628	2075.5
1440.333	2102.5
1445.032	2094.5
1449.727	2128.5
1454.418	2148.5
1459.104	2133.5
1463.785	2099.5
1468.462	2081.5
1473.134	2046.5
1477.802	2005.5
1482.465	1952.5
1487.123	1916.5
1491.777	1890.5
1496.426	1871.5
1501.071	1851.5
1505.711	1865.5
1510.347	1839.5
1514.978	1851.5
1519.604	1841.5
1524.226	1843.5
1528.844	1819.5
1533.457	1816.5
1538.065	1807.5
1542.669	1812.5
1547.269	1802.5
1551.864	1801.5
1556.454	1825.5
1561.041	1842.5
1565.622	1852.5
1570.199	1850.5
1574.772	1879.5
1579.34	1894.5
1583.904	1911.5
1588.464	1930.5
1593.019	1936.5
1597.569	1946.5
1602.115	1952.5
1606.657	1928.5
1611.195	1919.5
1615.728	1925.5
1620.256	1929.5
1624.78	1901.5
1629.3	1925.5
1633.816	1923.5
1638.327	1944.5
1642.834	1950.5
1647.336	1958.5
1651.834	1966.5
1656.328	1965.5
1660.817	1966.5
1665.302	1946.5
1669.783	1913.5
1674.259	1860.5
1678.732	1809.5
1683.199	1779.5
1687.663	1711.5
1692.122	1655.5
1696.577	1593.5
1701.028	1525.5
1705.474	1474.5
1709.917	1412.5
1714.355	1409.5
1718.788	1382.5
1723.218	1387.5
1727.643	1381.5
1732.064	1376.5
1736.481	1390.5
1740.893	1333.5
1745.301	1319.5
1749.705	1277.5
1754.105	1246.5
1758.501	1245.5
1762.893	1223.5
1767.28	1208.5
1771.663	1204.5
1776.042	1198.5
1780.417	1161.5
1784.787	1166.5
1789.154	1143.5
1793.516	1144.5
1797.874	1127.5
1802.228	1103.5
1806.578	1087.5
1810.924	1089.5
1815.266	1081.5
1819.603	1080.5
1823.937	1070.5
1828.266	1075.5
1832.591	1083.5
1836.913	1062.5
1841.23	1067.5
1845.543	1078.5
1849.852	1063.5
1854.156	1060.5
1858.457	1067.5
1862.754	1066.5
1867.047	1082.5
1871.335	1061.5
1875.62	1066.5
1879.9	1058.5
1884.177	1057.5
1888.449	1041.5
1892.718	1033.5
1896.982	1033.5
1901.243	1014.5
1905.499	1008.5
1909.752	1003.5
1914	976.5
1918.245	965.5
1922.485	954.5
1926.722	955.5
1930.954	957.5
1935.183	943.5
1939.408	936.5
1943.628	932.5
1947.845	912.5
1952.058	914.5
1956.267	902.5
1960.472	885.5
1964.673	881.5
1968.87	878.5
1973.063	885.5
1977.252	879.5
1981.438	870.5
1985.619	874.5
1989.797	865.5
1993.971	878.5
1998.14	875.5
2002.306	863.5
2006.469	886.5
2010.627	878.5
2014.781	877.5
2018.932	879.5
2023.078	878.5
2027.221	878.5
2031.36	861.5
2035.495	851.5
2039.627	841.5
2043.754	825.5
2047.878	830.5
2051.998	809.5
2056.114	814.5
2060.226	812.5
2064.334	798.5
2068.439	798.5
2072.54	797.5
2076.637	798.5
2080.73	793.5
2084.82	788.5
2088.906	778.5
2092.988	773.5
2097.066	757.5
2101.14	752.5
2105.211	745.5
2109.278	746.5
2113.342	723.5
2117.401	737.5
2121.457	709.5
2125.509	708.5
2129.558	714.5
2133.602	716.5
2137.643	715.5
2141.681	732.5
2145.714	712.5
2149.744	710.5
2153.77	712.5
2157.793	716.5
2161.812	699.5
2165.827	689.5
2169.838	688.5
2173.846	683.5
2177.851	667.5
2181.851	655.5
2185.848	643.5
2189.841	641.5
2193.831	636.5
2197.817	632.5
2201.799	632.5
2205.778	626.5
2209.753	626.5
2213.725	623.5
2217.693	623.5
2221.657	625.5
2225.618	619.5
2229.575	625.5
2233.529	618.5
2237.479	615.5
2241.425	610.5
2245.368	577.5
2249.307	576.5
2253.243	579.5
2257.175	560.5
2261.104	561.5
2265.029	552.5
2268.95	549.5
2272.868	538.5
2276.783	530.5
2280.694	531.5
2284.601	525.5
2288.505	512.5
2292.405	515.5
2296.302	510.5
2300.195	498.5
2304.085	500.5
2307.971	466.5
2311.854	475.5
2315.734	467.5
2319.609	452.5
2323.482	450.5
2327.351	465.5
2331.216	467.5
2335.078	475.5
2338.937	461.5
2342.792	438.5
2346.643	430.5
2350.492	438.5
2354.336	442.5
2358.178	445.5
2362.015	447.5
2365.85	454.5
2369.681	441.5
2373.508	450.5
2377.333	442.5
2381.153	427.5
2384.971	444.5
2388.785	435.5
2392.595	428.5
2396.402	428.5
2400.206	426.5
2404.007	430.5
2407.804	418.5
2411.597	417.5
2415.388	417.5
2419.174	402.5
2422.958	406.5
2426.738	416.5
2430.515	418.5
2434.289	417.5
2438.059	390.5
2441.825	387.5
2445.589	393.5
2449.349	391.5
2453.106	388.5
2456.859	376.5
2460.61	383.5
2464.356	372.5
2468.1	365.5
2471.84	365.5
2475.577	363.5
2479.311	356.5
2483.041	345.5
2486.768	351.5
2490.492	346.5
2494.213	349.5
2497.93	350.5
2501.644	330.5
2505.355	334.5
2509.062	337.5
2512.766	349.5
2516.467	328.5
2520.165	337.5
2523.859	328.5
2527.551	318.5
2531.239	307.5
2534.923	304.5
2538.605	300.5
2542.283	294.5
2545.958	299.5
2549.63	310.5
2553.299	290.5
2556.964	294.5
2560.626	287.5
2564.285	277.5
2567.941	279.5
2571.594	280.5
2575.243	278.5
2578.89	263.5
2582.533	269.5
2586.173	268.5
2589.809	261.5
2593.443	252.5
2597.073	254.5
2600.701	254.5
2604.325	244.5
2607.946	243.5
2611.564	249.5
2615.178	237.5
2618.79	244.5
2622.398	251.5
2626.004	245.5
2629.606	239.5
2633.205	235.5
2636.801	230.5
2640.394	230.5
2643.983	228.5
2647.57	232.5
2651.153	219.5
2654.734	230.5
2658.311	224.5
2661.885	206.5
2665.456	213.5
2669.025	210.5
2672.589	214.5
2676.151	205.5
2679.71	207.5
2683.266	204.5
2686.819	203.5
2690.368	192.5
2693.915	186.5
2697.458	187.5
2700.999	187.5
2704.536	190.5
2708.071	185.5
2711.602	175.5
2715.13	175.5
2718.656	169.5
2722.178	169.5
2725.697	165.5
2729.214	155.5
2732.727	158.5
2736.237	170.5
2739.744	158.5
2743.249	161.5
2746.75	156.5
2750.248	142.5
2753.743	149.5
2757.236	135.5
2760.725	140.5
2764.211	131.5
2767.695	136.5
2771.175	124.5
2774.652	129.5
2778.127	137.5
2781.598	123.5
2785.067	136.5
2788.532	136.5
2791.995	140.5
2795.455	140.5
2798.911	130.5
2802.365	136.5
2805.816	146.5
2809.264	139.5
2812.709	142.5
2816.151	147.5
2819.59	146.5
2823.026	145.5
2826.46	139.5
2829.89	136.5
2833.318	128.5
2836.742	129.5
2840.164	144.5
2843.583	145.5
2846.999	144.5
2850.412	150.5
2853.822	142.5
2857.229	138.5
2860.634	143.5
2864.035	158.5
2867.434	159.5
2870.83	158.5
2874.223	175.5
2877.613	176.5
2881	180.5
2884.385	185.5
2887.766	177.5
2891.145	180.5
2894.521	174.5
2897.894	186.5
2901.264	186.5
2904.631	176.5
2907.996	188.5
2911.358	188.5
2914.717	189.5
2918.073	193.5
2921.426	212.5
2924.777	207.5
2928.124	218.5
2931.469	210.5
2934.811	231.5
2938.15	227.5
2941.487	234.5
2944.821	241.5
2948.152	235.5
2951.48	231.5
2954.805	244.5
2958.128	224.5
2961.447	227.5
2964.765	230.5
2968.079	224.5
2971.39	227.5
2974.699	229.5
2978.005	230.5
2981.308	234.5
2984.609	240.5
2987.907	236.5
2991.202	244.5
2994.494	246.5
2997.784	238.5
3001.07	246.5
3004.355	259.5
3007.636	254.5
3010.915	258.5
3014.191	260.5
3017.464	268.5
3020.734	269.5
3024.002	263.5
3027.267	281.5
3030.53	284.5
3033.789	301.5
3037.046	292.5
3040.301	299.5
3043.552	315.5
3046.801	323.5
3050.048	331.5
3053.291	348.5
3056.532	352.5
3059.771	369.5
3063.006	367.5
3066.239	401.5
3069.469	410.5
3072.697	415.5
3075.922	419.5
3079.144	423.5
3082.364	448.5
3085.581	465.5
3088.795	462.5
3092.007	466.5
3095.216	490.5
3098.423	501.5
3101.627	520.5
3104.828	516.5
3108.026	515.5
3111.222	541.5
3114.416	540.5
3117.607	561.5
3120.795	581.5
3123.98	574.5
3127.163	601.5
3130.344	623.5
3133.521	630.5
3136.696	629.5
3139.869	637.5
3143.039	646.5
3146.206	667.5
3149.371	680.5
3152.533	689.5
3155.693	696.5
3158.85	695.5
3162.005	712.5
3165.157	711.5
3168.306	706.5
3171.453	712.5
3174.597	719.5
3177.739	724.5
3180.878	724.5
3184.014	732.5
3187.149	734.5
3190.28	730.5
3193.409	726.5
3196.536	736.5
3199.659	749.5
3202.781	753.5
3205.9	755.5
3209.016	744.5
3212.13	755.5
3215.241	742.5
3218.35	728.5
3221.456	719.5
3224.56	717.5
3227.661	718.5
3230.76	699.5
3233.856	689.5
3236.95	680.5
3240.041	682.5
3243.13	652.5
3246.216	658.5
3249.3	631.5
3252.382	650.5
3255.46	629.5
3258.537	627.5
3261.611	615.5
3264.682	613.5
3267.751	612.5
3270.818	611.5
3273.882	596.5
3276.943	594.5
3280.002	595.5
3283.059	594.5
3286.113	596.5
3289.165	579.5
3292.214	576.5
3295.261	564.5
3298.306	548.5
3301.348	555.5
3304.387	546.5
3307.425	532.5
3310.459	543.5
3313.492	519.5
3316.521	532.5
3319.549	513.5
3322.574	531.5
3325.597	511.5
3328.617	516.5
3331.635	508.5
3334.65	510.5
3337.663	494.5
3340.674	509.5
3343.682	505.5
3346.688	498.5
3349.691	498.5
3352.692	496.5
3355.691	497.5
3358.687	485.5
3361.681	486.5
3364.673	476.5
3367.662	469.5
3370.649	456.5
3373.633	449.5
3376.615	448.5
3379.595	447.5
3382.572	445.5
3385.547	440.5
3388.52	423.5
3391.49	425.5
3394.458	418.5
3397.424	404.5
3400.387	384.5
3403.348	394.5
3406.307	381.5
3409.263	384.5
3412.217	370.5
3415.168	375.5
3418.118	373.5
3421.065	360.5
3424.009	366.5
3426.951	362.5
3429.891	344.5
3432.829	333.5
3435.764	323.5
3438.697	322.5
3441.628	307.5
3444.557	301.5
3447.483	287.5
3450.407	278.5
3453.328	262.5
3456.247	257.5
3459.164	253.5
3462.079	228.5
3464.991	223.5
3467.902	228.5
3470.809	225.5
3473.715	196.5
3476.618	185.5
3479.519	185.5
3482.418	181.5
3485.315	174.5
3488.209	157.5
3491.101	157.5
3493.99	164.5
3496.878	139.5
3499.763	132.5
3502.646	130.5
3505.527	117.5
3508.405	113.5
3511.281	112.5
3514.155	101.5
3517.027	92.5
3519.897	75.5
3522.764	78.5
3525.629	64.5
3528.492	54.5
3531.352	45.5
3534.211	41.5
3537.067	39.5
3539.921	34.5
3542.773	28.5
3545.622	15.5
3548.469	13.5
3551.315	15.5
3554.157	-2.5
3556.998	-5.5
3559.837	-8.5
3562.673	-6.5
3565.507	-8.5
3568.339	-13.5
3571.169	-28.5
3573.996	-25.5
3576.822	-19.5
3579.645	-27.5
3582.466	-27.5
3585.285	-34.5
3588.101	-29.5
3590.916	-40.5
3593.728	-49.5
3596.538	-56.5
3599.346	-53.5
3602.152	-55.5
3604.956	-62.5
3607.757	-48.5
3610.556	-62.5
3613.354	-59.5
3616.149	-74.5
3618.942	-71.5
3621.732	-74.5
3624.521	-72.5
3627.307	-78.5
3630.092	-76.5
3632.874	-78.5
3635.654	-85.5
3638.432	-78.5
3641.208	-81.5
3643.982	-86.5
3646.753	-93.5
3649.523	-88.5
3652.29	-88.5
3655.055	-90.5
3657.818	-94.5
3660.579	-96.5
3663.338	-93.5
3666.095	-104.5
3668.849	-105.5
3671.602	-109.5
3674.352	-101.5
3677.101	-111.5
3679.847	-104.5
3682.591	-112.5
3685.333	-115.5
3688.073	-106.5
3690.811	-115.5
3693.547	-121.5
3696.281	-111.5
3699.013	-120.5
3701.742	-118.5
3704.47	-118.5
3707.195	-115.5
3709.919	-124.5
3712.64	-125.5
3715.359	-125.5
3718.076	-119.5
3720.792	-123.5
3723.505	-125.5
3726.216	-121.5
3728.925	-128.5
3731.632	-121.5
3734.336	-134.5
3737.039	-127.5
3739.74	-127.5
3742.439	-136.5
3745.136	-123.5
3747.83	-133.5
3750.523	-132.5
3753.213	-123.5
3755.902	-128.5
3758.589	-130.5
3761.273	-125.5
3763.956	-125.5
3766.636	-133.5
3769.315	-126.5
3771.991	-126.5
3774.665	-136.5
3777.338	-131.5
3780.008	-126.5
3782.677	-133.5
3785.343	-126.5
3788.007	-128.5
3790.67	-129.5
3793.33	-129.5
3795.989	-137.5
3798.645	-130.5
3801.299	-130.5
3803.952	-136.5
3806.602	-129.5
3809.251	-135.5
3811.897	-140.5
3814.542	-137.5
3817.184	-129.5
3819.825	-137.5
3822.463	-134.5
3825.1	-134.5
3827.735	-134.5
3830.367	-133.5
3832.998	-137.5
3835.627	-137.5
3838.253	-134.5
3840.878	-137.5
3843.501	-131.5
3846.122	-137.5
3848.741	-138.5
3851.358	-135.5
3853.973	-141.5
3856.586	-135.5
3859.197	-143.5
3861.806	-133.5
3864.414	-136.5
3867.019	-130.5
3869.622	-136.5
3872.224	-127.5
3874.823	-117.5
3877.421	-114.5
3880.016	-95.5
3882.61	-77.5
3885.202	-86.5
3887.792	-87.5
3890.38	-114.5
3892.966	-126.5
3895.55	-136.5
3898.132	-141.5
3900.713	-141.5
3903.291	-141.5
3905.868	-137.5
3908.442	-134.5
3911.015	-138.5
3913.586	-139.5
3916.155	-143.5
3918.722	-138.5
3921.287	-139.5
3923.85	-136.5
3926.411	-139.5
3928.971	-138.5
3931.528	-136.5
3934.084	-136.5
3936.638	-136.5
3939.19	-145.5
3941.74	-143.5
3944.288	-138.5
3946.834	-131.5
3949.378	-137.5
3951.921	-138.5
3954.462	-145.5
3957	-140.5
3959.537	-138.5
3962.072	-142.5
3964.606	-134.5
3967.137	-132.5
3969.667	-137.5
3972.194	-141.5
3974.72	-138.5
3977.244	-137.5
3979.766	-146.5
3982.286	-138.5
3984.805	-139.5
3987.321	-140.5
3989.836	-129.5
3992.349	-132.5
3994.86	-137.5
3997.369	-146.5
3999.877	-135.5
4002.382	-133.5
4004.886	-141.5
4007.388	-133.5
4009.888	-133.5
4012.386	-138.5
4014.883	-144.5
4017.377	-139.5
4019.87	-136.5
4022.361	-136.5
4024.85	-133.5
4027.338	-134.5
4029.823	-130.5
4032.307	-137.5
4034.789	-143.5
4037.269	-138.5
4039.747	-136.5
4042.224	-133.5
4044.699	-136.5
4047.172	-137.5
4049.643	-131.5
4052.112	-138.5
4054.58	-137.5
4057.046	-145.5
4059.51	-139.5
4061.972	-132.5
4064.432	-135.5
4066.891	-131.5
4069.348	-134.5
4071.803	-143.5
4074.256	-134.5
4076.708	-134.5
4079.158	-138.5
4081.606	-128.5
4084.052	-138.5
4086.497	-134.5
4088.939	-129.5
4091.38	-139.5
4093.819	-136.5
4096.257	-142.5
4098.693	-140.5
4101.127	-142.5
4103.559	-140.5
4105.989	-8.5
4108.418	-10.5
4110.845	-4.5
4113.27	-10.5
4115.694	-13.5
4118.115	-15.5
4120.535	-138.5
4122.954	-139.5
4125.37	-134.5
4127.785	-137.5
4130.198	-133.5
4132.609	-137.5
4135.019	-145.5
4137.427	-142.5
4139.833	-144.5
4142.237	-142.5
