Data from 2018-2-8_conc=5_n=8_RamanShift_04.txt Node
Date: Mon Mar 12 16:15:28 IST 2018
User: aro
Spectrometer: QEPB0276
Trigger mode: 0
Integration Time (sec): 3.000000E1
Scans to average: 1
Electric dark correction enabled: true
Nonlinearity correction enabled: false
Boxcar width: 0
XAxis mode: Raman Shifts
Number of Pixels in Spectrum: 1044
>>>>>Begin Spectral Data<<<<<
160.701	15.6
166.742	38.6
172.777	111.6
178.805	343.6
184.826	942.6
190.841	2023.6
196.849	3360.6
202.85	4406.6
208.845	4790.6
214.833	4812.6
220.815	4722.6
226.789	4711.6
232.758	4734.6
238.719	4718.6
244.674	4730.6
250.623	4646.6
256.565	4559.6
262.5	4511.6
268.429	4447.6
274.351	4433.6
280.267	4405.6
286.176	4354.6
292.079	4341.6
297.975	4336.6
303.865	4313.6
309.748	4283.6
315.625	4307.6
321.495	4272.6
327.359	4299.6
333.217	4310.6
339.068	4302.6
344.912	4310.6
350.751	4281.6
356.583	4343.6
362.408	4313.6
368.227	4345.6
374.04	4334.6
379.847	4351.6
385.647	4392.6
391.44	4386.6
397.228	4402.6
403.009	4439.6
408.784	4463.6
414.553	4445.6
420.315	4476.6
426.071	4477.6
431.821	4506.6
437.565	4467.6
443.302	4488.6
449.033	4450.6
454.758	4424.6
460.477	4407.6
466.189	4388.6
471.896	4349.6
477.596	4353.6
483.29	4346.6
488.978	4358.6
494.66	4327.6
500.335	4216.6
506.005	4145.6
511.668	4005.6
517.325	3863.6
522.977	3788.6
528.622	3721.6
534.261	3672.6
539.894	3614.6
545.521	3572.6
551.141	3532.6
556.756	3523.6
562.365	3503.6
567.968	3483.6
573.565	3447.6
579.155	3457.6
584.74	3420.6
590.319	3406.6
595.892	3414.6
601.459	3407.6
607.02	3367.6
612.575	3351.6
618.124	3349.6
623.667	3311.6
629.204	3275.6
634.735	3241.6
640.261	3208.6
645.781	3198.6
651.294	3178.6
656.802	3176.6
662.304	3198.6
667.8	3148.6
673.29	3183.6
678.775	3191.6
684.254	3150.6
689.726	3132.6
695.193	3123.6
700.655	3111.6
706.11	3079.6
711.56	3055.6
717.004	3049.6
722.442	3030.6
727.874	3020.6
733.301	2996.6
738.722	2984.6
744.137	2975.6
749.547	2982.6
754.951	2981.6
760.349	3003.6
765.741	2987.6
771.128	3010.6
776.509	3026.6
781.885	3058.6
787.254	3068.6
792.618	3060.6
797.977	3042.6
803.33	3007.6
808.677	3004.6
814.019	2976.6
819.355	2965.6
824.686	2944.6
830.011	2911.6
835.33	2905.6
840.644	2888.6
845.952	2900.6
851.255	2890.6
856.552	2873.6
861.844	2840.6
867.13	2845.6
872.41	2844.6
877.686	2797.6
882.955	2781.6
888.219	2764.6
893.478	2741.6
898.731	2707.6
903.979	2645.6
909.221	2632.6
914.458	2619.6
919.69	2630.6
924.916	2624.6
930.136	2644.6
935.351	2628.6
940.561	2617.6
945.766	2634.6
950.965	2623.6
956.158	2600.6
961.347	2565.6
966.529	2537.6
971.707	2513.6
976.879	2465.6
982.046	2433.6
987.208	2460.6
992.364	2438.6
997.515	2431.6
1002.66	2461.6
1007.801	2513.6
1012.936	2551.6
1018.066	2504.6
1023.19	2495.6
1028.309	2521.6
1033.423	2530.6
1038.532	2501.6
1043.636	2491.6
1048.734	2472.6
1053.827	2447.6
1058.915	2404.6
1063.998	2408.6
1069.075	2388.6
1074.147	2399.6
1079.214	2389.6
1084.276	2372.6
1089.333	2404.6
1094.385	2410.6
1099.431	2421.6
1104.472	2434.6
1109.509	2391.6
1114.54	2379.6
1119.565	2342.6
1124.586	2303.6
1129.602	2259.6
1134.613	2259.6
1139.618	2237.6
1144.619	2244.6
1149.614	2241.6
1154.604	2260.6
1159.589	2256.6
1164.57	2267.6
1169.545	2255.6
1174.515	2266.6
1179.48	2243.6
1184.44	2228.6
1189.395	2205.6
1194.345	2199.6
1199.29	2172.6
1204.23	2202.6
1209.165	2189.6
1214.095	2187.6
1219.021	2194.6
1223.941	2188.6
1228.856	2241.6
1233.766	2243.6
1238.672	2240.6
1243.572	2227.6
1248.467	2205.6
1253.358	2188.6
1258.244	2180.6
1263.124	2119.6
1268	2093.6
1272.871	2067.6
1277.737	2052.6
1282.599	2069.6
1287.455	2034.6
1292.306	2030.6
1297.153	2062.6
1301.995	2061.6
1306.832	2064.6
1311.664	2105.6
1316.491	2089.6
1321.314	2088.6
1326.132	2072.6
1330.945	2052.6
1335.753	2016.6
1340.556	2008.6
1345.354	1961.6
1350.148	1940.6
1354.937	1899.6
1359.722	1866.6
1364.501	1839.6
1369.276	1822.6
1374.046	1759.6
1378.811	1761.6
1383.572	1748.6
1388.327	1731.6
1393.079	1745.6
1397.825	1744.6
1402.567	1770.6
1407.304	1754.6
1412.036	1740.6
1416.764	1761.6
1421.487	1752.6
1426.205	1766.6
1430.919	1773.6
1435.628	1777.6
1440.333	1807.6
1445.032	1796.6
1449.727	1820.6
1454.418	1831.6
1459.104	1822.6
1463.785	1794.6
1468.462	1797.6
1473.134	1722.6
1477.802	1689.6
1482.465	1664.6
1487.123	1639.6
1491.777	1603.6
1496.426	1605.6
1501.071	1579.6
1505.711	1572.6
1510.347	1573.6
1514.978	1571.6
1519.604	1568.6
1524.226	1583.6
1528.844	1556.6
1533.457	1565.6
1538.065	1544.6
1542.669	1538.6
1547.269	1537.6
1551.864	1539.6
1556.454	1560.6
1561.041	1556.6
1565.622	1575.6
1570.199	1569.6
1574.772	1597.6
1579.34	1621.6
1583.904	1625.6
1588.464	1636.6
1593.019	1663.6
1597.569	1656.6
1602.115	1644.6
1606.657	1641.6
1611.195	1631.6
1615.728	1623.6
1620.256	1632.6
1624.78	1664.6
1629.3	1661.6
1633.816	1639.6
1638.327	1630.6
1642.834	1647.6
1647.336	1653.6
1651.834	1668.6
1656.328	1657.6
1660.817	1661.6
1665.302	1649.6
1669.783	1607.6
1674.259	1609.6
1678.732	1552.6
1683.199	1517.6
1687.663	1470.6
1692.122	1408.6
1696.577	1361.6
1701.028	1296.6
1705.474	1263.6
1709.917	1207.6
1714.355	1209.6
1718.788	1188.6
1723.218	1179.6
1727.643	1183.6
1732.064	1188.6
1736.481	1189.6
1740.893	1146.6
1745.301	1114.6
1749.705	1105.6
1754.105	1068.6
1758.501	1065.6
1762.893	1050.6
1767.28	1050.6
1771.663	1029.6
1776.042	1016.6
1780.417	1004.6
1784.787	996.6
1789.154	981.6
1793.516	977.6
1797.874	955.6
1802.228	953.6
1806.578	944.6
1810.924	940.6
1815.266	931.6
1819.603	917.6
1823.937	915.6
1828.266	909.6
1832.591	912.6
1836.913	901.6
1841.23	924.6
1845.543	909.6
1849.852	912.6
1854.156	918.6
1858.457	905.6
1862.754	921.6
1867.047	927.6
1871.335	924.6
1875.62	924.6
1879.9	921.6
1884.177	916.6
1888.449	896.6
1892.718	893.6
1896.982	879.6
1901.243	864.6
1905.499	857.6
1909.752	840.6
1914	829.6
1918.245	830.6
1922.485	816.6
1926.722	820.6
1930.954	805.6
1935.183	803.6
1939.408	803.6
1943.628	797.6
1947.845	801.6
1952.058	789.6
1956.267	785.6
1960.472	767.6
1964.673	760.6
1968.87	742.6
1973.063	745.6
1977.252	740.6
1981.438	743.6
1985.619	746.6
1989.797	737.6
1993.971	736.6
1998.14	749.6
2002.306	741.6
2006.469	747.6
2010.627	752.6
2014.781	760.6
2018.932	753.6
2023.078	747.6
2027.221	729.6
2031.36	739.6
2035.495	727.6
2039.627	712.6
2043.754	696.6
2047.878	696.6
2051.998	690.6
2056.114	695.6
2060.226	693.6
2064.334	694.6
2068.439	681.6
2072.54	678.6
2076.637	682.6
2080.73	679.6
2084.82	676.6
2088.906	676.6
2092.988	658.6
2097.066	659.6
2101.14	638.6
2105.211	648.6
2109.278	634.6
2113.342	621.6
2117.401	625.6
2121.457	624.6
2125.509	604.6
2129.558	603.6
2133.602	617.6
2137.643	605.6
2141.681	611.6
2145.714	611.6
2149.744	596.6
2153.77	606.6
2157.793	592.6
2161.812	592.6
2165.827	585.6
2169.838	586.6
2173.846	580.6
2177.851	572.6
2181.851	548.6
2185.848	547.6
2189.841	549.6
2193.831	542.6
2197.817	533.6
2201.799	536.6
2205.778	527.6
2209.753	536.6
2213.725	527.6
2217.693	539.6
2221.657	534.6
2225.618	527.6
2229.575	519.6
2233.529	530.6
2237.479	511.6
2241.425	508.6
2245.368	495.6
2249.307	490.6
2253.243	485.6
2257.175	478.6
2261.104	469.6
2265.029	467.6
2268.95	466.6
2272.868	457.6
2276.783	449.6
2280.694	447.6
2284.601	438.6
2288.505	428.6
2292.405	425.6
2296.302	428.6
2300.195	429.6
2304.085	418.6
2307.971	412.6
2311.854	413.6
2315.734	396.6
2319.609	385.6
2323.482	391.6
2327.351	388.6
2331.216	407.6
2335.078	416.6
2338.937	399.6
2342.792	377.6
2346.643	372.6
2350.492	377.6
2354.336	368.6
2358.178	374.6
2362.015	371.6
2365.85	381.6
2369.681	374.6
2373.508	383.6
2377.333	379.6
2381.153	380.6
2384.971	378.6
2388.785	384.6
2392.595	363.6
2396.402	368.6
2400.206	369.6
2404.007	370.6
2407.804	366.6
2411.597	361.6
2415.388	357.6
2419.174	347.6
2422.958	342.6
2426.738	352.6
2430.515	345.6
2434.289	348.6
2438.059	338.6
2441.825	349.6
2445.589	341.6
2449.349	332.6
2453.106	332.6
2456.859	328.6
2460.61	320.6
2464.356	311.6
2468.1	311.6
2471.84	301.6
2475.577	308.6
2479.311	303.6
2483.041	299.6
2486.768	299.6
2490.492	288.6
2494.213	304.6
2497.93	291.6
2501.644	293.6
2505.355	300.6
2509.062	287.6
2512.766	291.6
2516.467	282.6
2520.165	275.6
2523.859	273.6
2527.551	278.6
2531.239	268.6
2534.923	259.6
2538.605	257.6
2542.283	250.6
2545.958	254.6
2549.63	256.6
2553.299	255.6
2556.964	255.6
2560.626	253.6
2564.285	242.6
2567.941	246.6
2571.594	245.6
2575.243	240.6
2578.89	231.6
2582.533	219.6
2586.173	232.6
2589.809	220.6
2593.443	222.6
2597.073	219.6
2600.701	211.6
2604.325	212.6
2607.946	211.6
2611.564	208.6
2615.178	217.6
2618.79	205.6
2622.398	208.6
2626.004	204.6
2629.606	198.6
2633.205	199.6
2636.801	201.6
2640.394	196.6
2643.983	197.6
2647.57	194.6
2651.153	193.6
2654.734	191.6
2658.311	178.6
2661.885	177.6
2665.456	188.6
2669.025	183.6
2672.589	181.6
2676.151	180.6
2679.71	168.6
2683.266	167.6
2686.819	165.6
2690.368	174.6
2693.915	162.6
2697.458	169.6
2700.999	162.6
2704.536	154.6
2708.071	152.6
2711.602	155.6
2715.13	151.6
2718.656	140.6
2722.178	141.6
2725.697	137.6
2729.214	139.6
2732.727	148.6
2736.237	137.6
2739.744	136.6
2743.249	137.6
2746.75	132.6
2750.248	133.6
2753.743	131.6
2757.236	124.6
2760.725	117.6
2764.211	122.6
2767.695	116.6
2771.175	109.6
2774.652	97.6
2778.127	111.6
2781.598	112.6
2785.067	114.6
2788.532	117.6
2791.995	113.6
2795.455	114.6
2798.911	112.6
2802.365	119.6
2805.816	119.6
2809.264	117.6
2812.709	117.6
2816.151	116.6
2819.59	127.6
2823.026	111.6
2826.46	112.6
2829.89	115.6
2833.318	115.6
2836.742	113.6
2840.164	111.6
2843.583	119.6
2846.999	121.6
2850.412	118.6
2853.822	127.6
2857.229	117.6
2860.634	121.6
2864.035	122.6
2867.434	129.6
2870.83	138.6
2874.223	154.6
2877.613	147.6
2881	154.6
2884.385	153.6
2887.766	145.6
2891.145	144.6
2894.521	154.6
2897.894	159.6
2901.264	158.6
2904.631	168.6
2907.996	152.6
2911.358	157.6
2914.717	166.6
2918.073	168.6
2921.426	168.6
2924.777	174.6
2928.124	177.6
2931.469	179.6
2934.811	181.6
2938.15	183.6
2941.487	190.6
2944.821	185.6
2948.152	190.6
2951.48	194.6
2954.805	196.6
2958.128	184.6
2961.447	180.6
2964.765	189.6
2968.079	186.6
2971.39	185.6
2974.699	190.6
2978.005	190.6
2981.308	195.6
2984.609	201.6
2987.907	191.6
2991.202	199.6
2994.494	196.6
2997.784	191.6
3001.07	199.6
3004.355	212.6
3007.636	211.6
3010.915	204.6
3014.191	203.6
3017.464	214.6
3020.734	214.6
3024.002	213.6
3027.267	231.6
3030.53	225.6
3033.789	233.6
3037.046	244.6
3040.301	242.6
3043.552	245.6
3046.801	256.6
3050.048	273.6
3053.291	276.6
3056.532	284.6
3059.771	303.6
3063.006	308.6
3066.239	314.6
3069.469	323.6
3072.697	341.6
3075.922	348.6
3079.144	353.6
3082.364	360.6
3085.581	365.6
3088.795	365.6
3092.007	381.6
3095.216	388.6
3098.423	401.6
3101.627	409.6
3104.828	416.6
3108.026	430.6
3111.222	431.6
3114.416	445.6
3117.607	453.6
3120.795	470.6
3123.98	466.6
3127.163	482.6
3130.344	498.6
3133.521	496.6
3136.696	522.6
3139.869	514.6
3143.039	531.6
3146.206	538.6
3149.371	544.6
3152.533	563.6
3155.693	552.6
3158.85	570.6
3162.005	576.6
3165.157	571.6
3168.306	561.6
3171.453	566.6
3174.597	578.6
3177.739	581.6
3180.878	584.6
3184.014	593.6
3187.149	587.6
3190.28	587.6
3193.409	595.6
3196.536	602.6
3199.659	588.6
3202.781	613.6
3205.9	598.6
3209.016	595.6
3212.13	591.6
3215.241	592.6
3218.35	593.6
3221.456	584.6
3224.56	584.6
3227.661	574.6
3230.76	568.6
3233.856	550.6
3236.95	542.6
3240.041	541.6
3243.13	534.6
3246.216	532.6
3249.3	515.6
3252.382	512.6
3255.46	515.6
3258.537	491.6
3261.611	487.6
3264.682	483.6
3267.751	490.6
3270.818	487.6
3273.882	488.6
3276.943	475.6
3280.002	474.6
3283.059	463.6
3286.113	468.6
3289.165	468.6
3292.214	465.6
3295.261	444.6
3298.306	454.6
3301.348	440.6
3304.387	444.6
3307.425	434.6
3310.459	424.6
3313.492	419.6
3316.521	414.6
3319.549	416.6
3322.574	409.6
3325.597	413.6
3328.617	412.6
3331.635	397.6
3334.65	402.6
3337.663	393.6
3340.674	414.6
3343.682	401.6
3346.688	406.6
3349.691	404.6
3352.692	389.6
3355.691	389.6
3358.687	386.6
3361.681	392.6
3364.673	388.6
3367.662	388.6
3370.649	370.6
3373.633	369.6
3376.615	355.6
3379.595	334.6
3382.572	354.6
3385.547	339.6
3388.52	346.6
3391.49	335.6
3394.458	338.6
3397.424	315.6
3400.387	317.6
3403.348	316.6
3406.307	311.6
3409.263	298.6
3412.217	298.6
3415.168	297.6
3418.118	302.6
3421.065	279.6
3424.009	281.6
3426.951	284.6
3429.891	270.6
3432.829	259.6
3435.764	252.6
3438.697	256.6
3441.628	244.6
3444.557	231.6
3447.483	226.6
3450.407	215.6
3453.328	206.6
3456.247	198.6
3459.164	186.6
3462.079	179.6
3464.991	182.6
3467.902	167.6
3470.809	160.6
3473.715	148.6
3476.618	140.6
3479.519	140.6
3482.418	138.6
3485.315	126.6
3488.209	120.6
3491.101	122.6
3493.99	122.6
3496.878	109.6
3499.763	93.6
3502.646	90.6
3505.527	84.6
3508.405	91.6
3511.281	77.6
3514.155	72.6
3517.027	70.6
3519.897	60.6
3522.764	56.6
3525.629	47.6
3528.492	33.6
3531.352	35.6
3534.211	31.6
3537.067	23.6
3539.921	24.6
3542.773	19.6
3545.622	3.6
3548.469	5.6
3551.315	4.6
3554.157	-0.4
3556.998	-12.4
3559.837	-8.4
3562.673	-17.4
3565.507	-14.4
3568.339	-26.4
3571.169	-30.4
3573.996	-29.4
3576.822	-25.4
3579.645	-26.4
3582.466	-34.4
3585.285	-38.4
3588.101	-36.4
3590.916	-44.4
3593.728	-51.4
3596.538	-47.4
3599.346	-50.4
3602.152	-50.4
3604.956	-47.4
3607.757	-49.4
3610.556	-62.4
3613.354	-56.4
3616.149	-69.4
3618.942	-68.4
3621.732	-65.4
3624.521	-66.4
3627.307	-76.4
3630.092	-72.4
3632.874	-69.4
3635.654	-75.4
3638.432	-74.4
3641.208	-75.4
3643.982	-77.4
3646.753	-80.4
3649.523	-85.4
3652.29	-79.4
3655.055	-85.4
3657.818	-87.4
3660.579	-90.4
3663.338	-85.4
3666.095	-90.4
3668.849	-90.4
3671.602	-95.4
3674.352	-99.4
3677.101	-93.4
3679.847	-93.4
3682.591	-97.4
3685.333	-97.4
3688.073	-92.4
3690.811	-98.4
3693.547	-103.4
3696.281	-105.4
3699.013	-106.4
3701.742	-104.4
3704.47	-103.4
3707.195	-102.4
3709.919	-103.4
3712.64	-110.4
3715.359	-115.4
3718.076	-110.4
3720.792	-113.4
3723.505	-110.4
3726.216	-107.4
3728.925	-107.4
3731.632	-106.4
3734.336	-123.4
3737.039	-107.4
3739.74	-113.4
3742.439	-119.4
3745.136	-106.4
3747.83	-110.4
3750.523	-112.4
3753.213	-111.4
3755.902	-114.4
3758.589	-117.4
3761.273	-113.4
3763.956	-108.4
3766.636	-114.4
3769.315	-109.4
3771.991	-112.4
3774.665	-120.4
3777.338	-111.4
3780.008	-113.4
3782.677	-118.4
3785.343	-111.4
3788.007	-119.4
3790.67	-113.4
3793.33	-112.4
3795.989	-119.4
3798.645	-111.4
3801.299	-115.4
3803.952	-119.4
3806.602	-115.4
3809.251	-118.4
3811.897	-118.4
3814.542	-115.4
3817.184	-115.4
3819.825	-122.4
3822.463	-117.4
3825.1	-116.4
3827.735	-117.4
3830.367	-122.4
3832.998	-119.4
3835.627	-117.4
3838.253	-117.4
3840.878	-116.4
3843.501	-116.4
3846.122	-116.4
3848.741	-120.4
3851.358	-114.4
3853.973	-121.4
3856.586	-119.4
3859.197	-129.4
3861.806	-114.4
3864.414	-119.4
3867.019	-115.4
3869.622	-116.4
3872.224	-105.4
3874.823	-100.4
3877.421	-92.4
3880.016	-73.4
3882.61	-56.4
3885.202	-55.4
3887.792	-74.4
3890.38	-93.4
3892.966	-112.4
3895.55	-115.4
3898.132	-115.4
3900.713	-118.4
3903.291	-118.4
3905.868	-122.4
3908.442	-113.4
3911.015	-121.4
3913.586	-121.4
3916.155	-125.4
3918.722	-120.4
3921.287	-116.4
3923.85	-114.4
3926.411	-120.4
3928.971	-120.4
3931.528	-126.4
3934.084	-124.4
3936.638	-113.4
3939.19	-126.4
3941.74	-123.4
3944.288	-123.4
3946.834	-116.4
3949.378	-119.4
3951.921	-124.4
3954.462	-128.4
3957	-121.4
3959.537	-118.4
3962.072	-123.4
3964.606	-117.4
3967.137	-121.4
3969.667	-125.4
3972.194	-125.4
3974.72	-115.4
3977.244	-118.4
3979.766	-120.4
3982.286	-118.4
3984.805	-121.4
3987.321	-116.4
3989.836	-115.4
3992.349	-118.4
3994.86	-121.4
3997.369	-126.4
3999.877	-118.4
4002.382	-116.4
4004.886	-123.4
4007.388	-124.4
4009.888	-121.4
4012.386	-124.4
4014.883	-121.4
4017.377	-123.4
4019.87	-117.4
4022.361	-120.4
4024.85	-118.4
4027.338	-117.4
4029.823	-116.4
4032.307	-119.4
4034.789	-120.4
4037.269	-119.4
4039.747	-119.4
4042.224	-120.4
4044.699	-119.4
4047.172	-118.4
4049.643	-116.4
4052.112	-120.4
4054.58	-119.4
4057.046	-123.4
4059.51	-120.4
4061.972	-113.4
4064.432	-113.4
4066.891	-116.4
4069.348	-119.4
4071.803	-127.4
4074.256	-118.4
4076.708	-112.4
4079.158	-116.4
4081.606	-110.4
4084.052	-123.4
4086.497	-122.4
4088.939	-114.4
4091.38	-118.4
4093.819	-124.4
4096.257	-127.4
4098.693	-124.4
4101.127	-122.4
4103.559	-123.4
4105.989	0.6
4108.418	-4.4
4110.845	1.6
4113.27	4.6
4115.694	-10.4
4118.115	-4.4
4120.535	-121.4
4122.954	-118.4
4125.37	-113.4
4127.785	-118.4
4130.198	-117.4
4132.609	-115.4
4135.019	-126.4
4137.427	-130.4
4139.833	-126.4
4142.237	-126.4
