Data from 2018-2-8_conc=2_n=9_RamanShift_02.txt Node
Date: Mon Mar 12 14:22:28 IST 2018
User: aro
Spectrometer: QEPB0276
Trigger mode: 0
Integration Time (sec): 3.000000E1
Scans to average: 1
Electric dark correction enabled: true
Nonlinearity correction enabled: false
Boxcar width: 0
XAxis mode: Raman Shifts
Number of Pixels in Spectrum: 1044
>>>>>Begin Spectral Data<<<<<
160.701	22.6
166.742	49.6
172.777	119.6
178.805	369.6
184.826	1001.6
190.841	2173.6
196.849	3620.6
202.85	4730.6
208.845	5174.6
214.833	5186.6
220.815	5115.6
226.789	5098.6
232.758	5071.6
238.719	5096.6
244.674	5048.6
250.623	5003.6
256.565	4922.6
262.5	4852.6
268.429	4785.6
274.351	4766.6
280.267	4722.6
286.176	4713.6
292.079	4713.6
297.975	4650.6
303.865	4646.6
309.748	4666.6
315.625	4605.6
321.495	4635.6
327.359	4640.6
333.217	4606.6
339.068	4610.6
344.912	4631.6
350.751	4626.6
356.583	4672.6
362.408	4613.6
368.227	4660.6
374.04	4672.6
379.847	4676.6
385.647	4679.6
391.44	4692.6
397.228	4727.6
403.009	4781.6
408.784	4786.6
414.553	4815.6
420.315	4845.6
426.071	4824.6
431.821	4804.6
437.565	4818.6
443.302	4823.6
449.033	4782.6
454.758	4772.6
460.477	4765.6
466.189	4702.6
471.896	4691.6
477.596	4652.6
483.29	4648.6
488.978	4622.6
494.66	4644.6
500.335	4565.6
506.005	4453.6
511.668	4262.6
517.325	4194.6
522.977	4054.6
528.622	3985.6
534.261	3921.6
539.894	3904.6
545.521	3873.6
551.141	3845.6
556.756	3826.6
562.365	3785.6
567.968	3753.6
573.565	3739.6
579.155	3731.6
584.74	3719.6
590.319	3696.6
595.892	3680.6
601.459	3673.6
607.02	3676.6
612.575	3645.6
618.124	3584.6
623.667	3590.6
629.204	3519.6
634.735	3506.6
640.261	3454.6
645.781	3460.6
651.294	3480.6
656.802	3456.6
662.304	3420.6
667.8	3419.6
673.29	3408.6
678.775	3413.6
684.254	3397.6
689.726	3388.6
695.193	3373.6
700.655	3355.6
706.11	3341.6
711.56	3329.6
717.004	3312.6
722.442	3293.6
727.874	3290.6
733.301	3280.6
738.722	3275.6
744.137	3243.6
749.547	3226.6
754.951	3241.6
760.349	3216.6
765.741	3226.6
771.128	3220.6
776.509	3271.6
781.885	3285.6
787.254	3284.6
792.618	3298.6
797.977	3274.6
803.33	3259.6
808.677	3225.6
814.019	3218.6
819.355	3171.6
824.686	3167.6
830.011	3134.6
835.33	3123.6
840.644	3123.6
845.952	3122.6
851.255	3119.6
856.552	3113.6
861.844	3106.6
867.13	3076.6
872.41	3059.6
877.686	3038.6
882.955	3006.6
888.219	2991.6
893.478	2955.6
898.731	2921.6
903.979	2872.6
909.221	2860.6
914.458	2823.6
919.69	2834.6
924.916	2819.6
930.136	2865.6
935.351	2828.6
940.561	2856.6
945.766	2834.6
950.965	2843.6
956.158	2789.6
961.347	2787.6
966.529	2748.6
971.707	2699.6
976.879	2667.6
982.046	2636.6
987.208	2643.6
992.364	2654.6
997.515	2634.6
1002.66	2666.6
1007.801	2706.6
1012.936	2705.6
1018.066	2716.6
1023.19	2700.6
1028.309	2711.6
1033.423	2730.6
1038.532	2693.6
1043.636	2669.6
1048.734	2650.6
1053.827	2648.6
1058.915	2581.6
1063.998	2569.6
1069.075	2565.6
1074.147	2562.6
1079.214	2547.6
1084.276	2588.6
1089.333	2598.6
1094.385	2626.6
1099.431	2602.6
1104.472	2602.6
1109.509	2561.6
1114.54	2552.6
1119.565	2518.6
1124.586	2452.6
1129.602	2444.6
1134.613	2434.6
1139.618	2405.6
1144.619	2416.6
1149.614	2399.6
1154.604	2440.6
1159.589	2419.6
1164.57	2406.6
1169.545	2431.6
1174.515	2429.6
1179.48	2410.6
1184.44	2388.6
1189.395	2383.6
1194.345	2361.6
1199.29	2341.6
1204.23	2357.6
1209.165	2369.6
1214.095	2379.6
1219.021	2389.6
1223.941	2375.6
1228.856	2415.6
1233.766	2379.6
1238.672	2421.6
1243.572	2407.6
1248.467	2396.6
1253.358	2375.6
1258.244	2329.6
1263.124	2302.6
1268	2238.6
1272.871	2223.6
1277.737	2187.6
1282.599	2191.6
1287.455	2182.6
1292.306	2168.6
1297.153	2210.6
1301.995	2224.6
1306.832	2226.6
1311.664	2271.6
1316.491	2245.6
1321.314	2241.6
1326.132	2228.6
1330.945	2225.6
1335.753	2175.6
1340.556	2156.6
1345.354	2120.6
1350.148	2078.6
1354.937	2059.6
1359.722	1992.6
1364.501	1986.6
1369.276	1937.6
1374.046	1916.6
1378.811	1881.6
1383.572	1855.6
1388.327	1856.6
1393.079	1874.6
1397.825	1858.6
1402.567	1878.6
1407.304	1896.6
1412.036	1881.6
1416.764	1876.6
1421.487	1875.6
1426.205	1881.6
1430.919	1875.6
1435.628	1884.6
1440.333	1914.6
1445.032	1936.6
1449.727	1955.6
1454.418	1960.6
1459.104	1965.6
1463.785	1923.6
1468.462	1891.6
1473.134	1852.6
1477.802	1819.6
1482.465	1771.6
1487.123	1735.6
1491.777	1704.6
1496.426	1697.6
1501.071	1685.6
1505.711	1671.6
1510.347	1693.6
1514.978	1676.6
1519.604	1684.6
1524.226	1666.6
1528.844	1652.6
1533.457	1637.6
1538.065	1633.6
1542.669	1630.6
1547.269	1637.6
1551.864	1629.6
1556.454	1665.6
1561.041	1667.6
1565.622	1689.6
1570.199	1670.6
1574.772	1688.6
1579.34	1723.6
1583.904	1745.6
1588.464	1772.6
1593.019	1754.6
1597.569	1759.6
1602.115	1767.6
1606.657	1764.6
1611.195	1734.6
1615.728	1730.6
1620.256	1711.6
1624.78	1742.6
1629.3	1741.6
1633.816	1743.6
1638.327	1772.6
1642.834	1751.6
1647.336	1758.6
1651.834	1766.6
1656.328	1769.6
1660.817	1760.6
1665.302	1759.6
1669.783	1699.6
1674.259	1673.6
1678.732	1631.6
1683.199	1606.6
1687.663	1533.6
1692.122	1494.6
1696.577	1427.6
1701.028	1375.6
1705.474	1319.6
1709.917	1283.6
1714.355	1243.6
1718.788	1235.6
1723.218	1242.6
1727.643	1261.6
1732.064	1239.6
1736.481	1237.6
1740.893	1203.6
1745.301	1165.6
1749.705	1152.6
1754.105	1125.6
1758.501	1111.6
1762.893	1096.6
1767.28	1092.6
1771.663	1077.6
1776.042	1067.6
1780.417	1059.6
1784.787	1054.6
1789.154	1037.6
1793.516	1014.6
1797.874	1010.6
1802.228	1004.6
1806.578	985.6
1810.924	983.6
1815.266	965.6
1819.603	954.6
1823.937	953.6
1828.266	962.6
1832.591	965.6
1836.913	963.6
1841.23	978.6
1845.543	948.6
1849.852	958.6
1854.156	952.6
1858.457	970.6
1862.754	972.6
1867.047	952.6
1871.335	961.6
1875.62	969.6
1879.9	962.6
1884.177	953.6
1888.449	938.6
1892.718	940.6
1896.982	922.6
1901.243	906.6
1905.499	892.6
1909.752	890.6
1914	874.6
1918.245	865.6
1922.485	849.6
1926.722	839.6
1930.954	842.6
1935.183	828.6
1939.408	838.6
1943.628	832.6
1947.845	834.6
1952.058	816.6
1956.267	794.6
1960.472	801.6
1964.673	784.6
1968.87	790.6
1973.063	774.6
1977.252	779.6
1981.438	785.6
1985.619	783.6
1989.797	782.6
1993.971	787.6
1998.14	778.6
2002.306	764.6
2006.469	796.6
2010.627	787.6
2014.781	791.6
2018.932	779.6
2023.078	791.6
2027.221	769.6
2031.36	768.6
2035.495	755.6
2039.627	739.6
2043.754	731.6
2047.878	729.6
2051.998	732.6
2056.114	733.6
2060.226	726.6
2064.334	728.6
2068.439	717.6
2072.54	711.6
2076.637	710.6
2080.73	709.6
2084.82	701.6
2088.906	702.6
2092.988	677.6
2097.066	688.6
2101.14	673.6
2105.211	668.6
2109.278	664.6
2113.342	641.6
2117.401	635.6
2121.457	640.6
2125.509	644.6
2129.558	639.6
2133.602	644.6
2137.643	634.6
2141.681	620.6
2145.714	636.6
2149.744	643.6
2153.77	621.6
2157.793	623.6
2161.812	626.6
2165.827	620.6
2169.838	605.6
2173.846	605.6
2177.851	591.6
2181.851	572.6
2185.848	572.6
2189.841	577.6
2193.831	570.6
2197.817	557.6
2201.799	543.6
2205.778	554.6
2209.753	544.6
2213.725	554.6
2217.693	549.6
2221.657	551.6
2225.618	560.6
2229.575	542.6
2233.529	533.6
2237.479	538.6
2241.425	531.6
2245.368	511.6
2249.307	524.6
2253.243	513.6
2257.175	512.6
2261.104	494.6
2265.029	476.6
2268.95	485.6
2272.868	480.6
2276.783	468.6
2280.694	469.6
2284.601	462.6
2288.505	453.6
2292.405	441.6
2296.302	443.6
2300.195	443.6
2304.085	435.6
2307.971	423.6
2311.854	423.6
2315.734	409.6
2319.609	406.6
2323.482	406.6
2327.351	402.6
2331.216	411.6
2335.078	416.6
2338.937	410.6
2342.792	390.6
2346.643	388.6
2350.492	395.6
2354.336	399.6
2358.178	390.6
2362.015	393.6
2365.85	395.6
2369.681	390.6
2373.508	390.6
2377.333	391.6
2381.153	399.6
2384.971	392.6
2388.785	397.6
2392.595	385.6
2396.402	382.6
2400.206	388.6
2404.007	377.6
2407.804	374.6
2411.597	368.6
2415.388	377.6
2419.174	370.6
2422.958	368.6
2426.738	365.6
2430.515	363.6
2434.289	357.6
2438.059	353.6
2441.825	343.6
2445.589	350.6
2449.349	346.6
2453.106	333.6
2456.859	340.6
2460.61	335.6
2464.356	319.6
2468.1	329.6
2471.84	313.6
2475.577	325.6
2479.311	312.6
2483.041	303.6
2486.768	318.6
2490.492	302.6
2494.213	313.6
2497.93	309.6
2501.644	302.6
2505.355	305.6
2509.062	298.6
2512.766	294.6
2516.467	291.6
2520.165	291.6
2523.859	282.6
2527.551	277.6
2531.239	267.6
2534.923	283.6
2538.605	263.6
2542.283	265.6
2545.958	258.6
2549.63	256.6
2553.299	247.6
2556.964	258.6
2560.626	244.6
2564.285	237.6
2567.941	245.6
2571.594	240.6
2575.243	242.6
2578.89	227.6
2582.533	224.6
2586.173	227.6
2589.809	226.6
2593.443	232.6
2597.073	226.6
2600.701	212.6
2604.325	211.6
2607.946	221.6
2611.564	214.6
2615.178	218.6
2618.79	217.6
2622.398	216.6
2626.004	209.6
2629.606	206.6
2633.205	198.6
2636.801	194.6
2640.394	194.6
2643.983	196.6
2647.57	206.6
2651.153	202.6
2654.734	191.6
2658.311	174.6
2661.885	178.6
2665.456	184.6
2669.025	183.6
2672.589	185.6
2676.151	193.6
2679.71	182.6
2683.266	178.6
2686.819	177.6
2690.368	164.6
2693.915	165.6
2697.458	170.6
2700.999	164.6
2704.536	166.6
2708.071	149.6
2711.602	155.6
2715.13	145.6
2718.656	141.6
2722.178	151.6
2725.697	140.6
2729.214	141.6
2732.727	141.6
2736.237	138.6
2739.744	138.6
2743.249	137.6
2746.75	128.6
2750.248	128.6
2753.743	123.6
2757.236	126.6
2760.725	131.6
2764.211	115.6
2767.695	114.6
2771.175	108.6
2774.652	110.6
2778.127	105.6
2781.598	110.6
2785.067	116.6
2788.532	113.6
2791.995	115.6
2795.455	115.6
2798.911	116.6
2802.365	116.6
2805.816	116.6
2809.264	115.6
2812.709	126.6
2816.151	126.6
2819.59	116.6
2823.026	113.6
2826.46	107.6
2829.89	109.6
2833.318	116.6
2836.742	121.6
2840.164	118.6
2843.583	123.6
2846.999	117.6
2850.412	107.6
2853.822	124.6
2857.229	116.6
2860.634	126.6
2864.035	137.6
2867.434	125.6
2870.83	147.6
2874.223	151.6
2877.613	148.6
2881	156.6
2884.385	158.6
2887.766	146.6
2891.145	153.6
2894.521	158.6
2897.894	160.6
2901.264	159.6
2904.631	161.6
2907.996	159.6
2911.358	167.6
2914.717	167.6
2918.073	171.6
2921.426	181.6
2924.777	185.6
2928.124	180.6
2931.469	184.6
2934.811	192.6
2938.15	198.6
2941.487	211.6
2944.821	201.6
2948.152	202.6
2951.48	202.6
2954.805	202.6
2958.128	200.6
2961.447	189.6
2964.765	194.6
2968.079	190.6
2971.39	198.6
2974.699	200.6
2978.005	185.6
2981.308	204.6
2984.609	200.6
2987.907	196.6
2991.202	210.6
2994.494	205.6
2997.784	208.6
3001.07	218.6
3004.355	218.6
3007.636	215.6
3010.915	209.6
3014.191	211.6
3017.464	224.6
3020.734	224.6
3024.002	222.6
3027.267	242.6
3030.53	239.6
3033.789	256.6
3037.046	252.6
3040.301	247.6
3043.552	271.6
3046.801	277.6
3050.048	282.6
3053.291	289.6
3056.532	295.6
3059.771	313.6
3063.006	312.6
3066.239	328.6
3069.469	349.6
3072.697	350.6
3075.922	363.6
3079.144	365.6
3082.364	380.6
3085.581	390.6
3088.795	382.6
3092.007	401.6
3095.216	411.6
3098.423	419.6
3101.627	427.6
3104.828	434.6
3108.026	441.6
3111.222	460.6
3114.416	454.6
3117.607	477.6
3120.795	481.6
3123.98	487.6
3127.163	493.6
3130.344	520.6
3133.521	527.6
3136.696	547.6
3139.869	559.6
3143.039	559.6
3146.206	569.6
3149.371	575.6
3152.533	587.6
3155.693	590.6
3158.85	595.6
3162.005	607.6
3165.157	602.6
3168.306	596.6
3171.453	610.6
3174.597	614.6
3177.739	609.6
3180.878	611.6
3184.014	628.6
3187.149	627.6
3190.28	625.6
3193.409	634.6
3196.536	618.6
3199.659	624.6
3202.781	638.6
3205.9	636.6
3209.016	641.6
3212.13	634.6
3215.241	638.6
3218.35	624.6
3221.456	618.6
3224.56	618.6
3227.661	602.6
3230.76	597.6
3233.856	592.6
3236.95	591.6
3240.041	575.6
3243.13	568.6
3246.216	559.6
3249.3	552.6
3252.382	540.6
3255.46	538.6
3258.537	537.6
3261.611	530.6
3264.682	522.6
3267.751	514.6
3270.818	515.6
3273.882	509.6
3276.943	515.6
3280.002	510.6
3283.059	503.6
3286.113	503.6
3289.165	511.6
3292.214	488.6
3295.261	485.6
3298.306	480.6
3301.348	469.6
3304.387	457.6
3307.425	454.6
3310.459	456.6
3313.492	450.6
3316.521	463.6
3319.549	435.6
3322.574	445.6
3325.597	428.6
3328.617	439.6
3331.635	445.6
3334.65	433.6
3337.663	424.6
3340.674	438.6
3343.682	430.6
3346.688	423.6
3349.691	426.6
3352.692	415.6
3355.691	416.6
3358.687	417.6
3361.681	419.6
3364.673	414.6
3367.662	406.6
3370.649	394.6
3373.633	385.6
3376.615	379.6
3379.595	383.6
3382.572	374.6
3385.547	371.6
3388.52	367.6
3391.49	356.6
3394.458	358.6
3397.424	341.6
3400.387	333.6
3403.348	333.6
3406.307	325.6
3409.263	324.6
3412.217	316.6
3415.168	327.6
3418.118	318.6
3421.065	302.6
3424.009	308.6
3426.951	285.6
3429.891	292.6
3432.829	276.6
3435.764	277.6
3438.697	278.6
3441.628	259.6
3444.557	258.6
3447.483	244.6
3450.407	229.6
3453.328	221.6
3456.247	214.6
3459.164	213.6
3462.079	202.6
3464.991	188.6
3467.902	183.6
3470.809	187.6
3473.715	165.6
3476.618	156.6
3479.519	148.6
3482.418	143.6
3485.315	135.6
3488.209	126.6
3491.101	122.6
3493.99	129.6
3496.878	119.6
3499.763	109.6
3502.646	102.6
3505.527	82.6
3508.405	95.6
3511.281	81.6
3514.155	74.6
3517.027	71.6
3519.897	64.6
3522.764	53.6
3525.629	46.6
3528.492	41.6
3531.352	39.6
3534.211	29.6
3537.067	22.6
3539.921	15.6
3542.773	14.6
3545.622	-1.4
3548.469	1.6
3551.315	6.6
3554.157	-9.4
3556.998	-11.4
3559.837	-14.4
3562.673	-19.4
3565.507	-18.4
3568.339	-20.4
3571.169	-40.4
3573.996	-34.4
3576.822	-31.4
3579.645	-37.4
3582.466	-32.4
3585.285	-43.4
3588.101	-38.4
3590.916	-53.4
3593.728	-53.4
3596.538	-59.4
3599.346	-61.4
3602.152	-60.4
3604.956	-62.4
3607.757	-54.4
3610.556	-70.4
3613.354	-65.4
3616.149	-76.4
3618.942	-81.4
3621.732	-76.4
3624.521	-76.4
3627.307	-80.4
3630.092	-73.4
3632.874	-75.4
3635.654	-83.4
3638.432	-80.4
3641.208	-84.4
3643.982	-94.4
3646.753	-96.4
3649.523	-90.4
3652.29	-90.4
3655.055	-92.4
3657.818	-94.4
3660.579	-95.4
3663.338	-96.4
3666.095	-103.4
3668.849	-106.4
3671.602	-100.4
3674.352	-102.4
3677.101	-102.4
3679.847	-103.4
3682.591	-106.4
3685.333	-104.4
3688.073	-104.4
3690.811	-113.4
3693.547	-115.4
3696.281	-109.4
3699.013	-113.4
3701.742	-112.4
3704.47	-118.4
3707.195	-112.4
3709.919	-117.4
3712.64	-113.4
3715.359	-122.4
3718.076	-112.4
3720.792	-115.4
3723.505	-125.4
3726.216	-112.4
3728.925	-125.4
3731.632	-120.4
3734.336	-128.4
3737.039	-120.4
3739.74	-122.4
3742.439	-125.4
3745.136	-118.4
3747.83	-130.4
3750.523	-124.4
3753.213	-125.4
3755.902	-124.4
3758.589	-131.4
3761.273	-116.4
3763.956	-114.4
3766.636	-124.4
3769.315	-121.4
3771.991	-124.4
3774.665	-131.4
3777.338	-124.4
3780.008	-123.4
3782.677	-124.4
3785.343	-121.4
3788.007	-124.4
3790.67	-128.4
3793.33	-127.4
3795.989	-136.4
3798.645	-121.4
3801.299	-129.4
3803.952	-133.4
3806.602	-123.4
3809.251	-129.4
3811.897	-127.4
3814.542	-130.4
3817.184	-125.4
3819.825	-128.4
3822.463	-130.4
3825.1	-124.4
3827.735	-124.4
3830.367	-128.4
3832.998	-131.4
3835.627	-128.4
3838.253	-130.4
3840.878	-126.4
3843.501	-126.4
3846.122	-129.4
3848.741	-134.4
3851.358	-125.4
3853.973	-132.4
3856.586	-125.4
3859.197	-136.4
3861.806	-128.4
3864.414	-129.4
3867.019	-126.4
3869.622	-126.4
3872.224	-118.4
3874.823	-108.4
3877.421	-95.4
3880.016	-77.4
3882.61	-50.4
3885.202	-54.4
3887.792	-63.4
3890.38	-92.4
3892.966	-123.4
3895.55	-126.4
3898.132	-131.4
3900.713	-129.4
3903.291	-132.4
3905.868	-134.4
3908.442	-120.4
3911.015	-133.4
3913.586	-128.4
3916.155	-134.4
3918.722	-136.4
3921.287	-136.4
3923.85	-133.4
3926.411	-135.4
3928.971	-128.4
3931.528	-131.4
3934.084	-132.4
3936.638	-130.4
3939.19	-135.4
3941.74	-136.4
3944.288	-137.4
3946.834	-128.4
3949.378	-132.4
3951.921	-130.4
3954.462	-138.4
3957	-132.4
3959.537	-128.4
3962.072	-131.4
3964.606	-130.4
3967.137	-129.4
3969.667	-129.4
3972.194	-132.4
3974.72	-132.4
3977.244	-134.4
3979.766	-130.4
3982.286	-133.4
3984.805	-130.4
3987.321	-126.4
3989.836	-121.4
3992.349	-130.4
3994.86	-130.4
3997.369	-129.4
3999.877	-131.4
4002.382	-124.4
4004.886	-133.4
4007.388	-126.4
4009.888	-129.4
4012.386	-128.4
4014.883	-133.4
4017.377	-130.4
4019.87	-132.4
4022.361	-131.4
4024.85	-132.4
4027.338	-123.4
4029.823	-123.4
4032.307	-129.4
4034.789	-135.4
4037.269	-132.4
4039.747	-127.4
4042.224	-128.4
4044.699	-129.4
4047.172	-121.4
4049.643	-126.4
4052.112	-131.4
4054.58	-130.4
4057.046	-138.4
4059.51	-131.4
4061.972	-127.4
4064.432	-128.4
4066.891	-130.4
4069.348	-124.4
4071.803	-135.4
4074.256	-133.4
4076.708	-128.4
4079.158	-126.4
4081.606	-124.4
4084.052	-132.4
4086.497	-129.4
4088.939	-119.4
4091.38	-131.4
4093.819	-131.4
4096.257	-138.4
4098.693	-135.4
4101.127	-137.4
4103.559	-135.4
4105.989	12.6
4108.418	10.6
4110.845	-2.4
4113.27	-2.4
4115.694	-2.4
4118.115	-9.4
4120.535	-132.4
4122.954	-132.4
4125.37	-125.4
4127.785	-129.4
4130.198	-126.4
4132.609	-130.4
4135.019	-137.4
4137.427	-141.4
4139.833	-141.4
4142.237	-141.4
