Data from 2018-2-8_conc=3_n=8_RamanShift_04.txt Node
Date: Mon Mar 12 14:53:58 IST 2018
User: aro
Spectrometer: QEPB0276
Trigger mode: 0
Integration Time (sec): 3.000000E1
Scans to average: 1
Electric dark correction enabled: true
Nonlinearity correction enabled: false
Boxcar width: 0
XAxis mode: Raman Shifts
Number of Pixels in Spectrum: 1044
>>>>>Begin Spectral Data<<<<<
160.701	9.2
166.742	39.2
172.777	117.2
178.805	396.2
184.826	1075.2
190.841	2330.2
196.849	3873.2
202.85	5081.2
208.845	5581.2
214.833	5573.2
220.815	5496.2
226.789	5448.2
232.758	5474.2
238.719	5486.2
244.674	5414.2
250.623	5342.2
256.565	5277.2
262.5	5195.2
268.429	5139.2
274.351	5075.2
280.267	5017.2
286.176	5009.2
292.079	4948.2
297.975	4902.2
303.865	4929.2
309.748	4883.2
315.625	4880.2
321.495	4875.2
327.359	4851.2
333.217	4862.2
339.068	4842.2
344.912	4881.2
350.751	4875.2
356.583	4887.2
362.408	4872.2
368.227	4885.2
374.04	4866.2
379.847	4941.2
385.647	4921.2
391.44	4979.2
397.228	4963.2
403.009	4994.2
408.784	5016.2
414.553	5016.2
420.315	5025.2
426.071	5043.2
431.821	5039.2
437.565	5031.2
443.302	5039.2
449.033	5016.2
454.758	4992.2
460.477	4975.2
466.189	4954.2
471.896	4913.2
477.596	4883.2
483.29	4889.2
488.978	4875.2
494.66	4834.2
500.335	4798.2
506.005	4675.2
511.668	4553.2
517.325	4431.2
522.977	4323.2
528.622	4231.2
534.261	4187.2
539.894	4142.2
545.521	4114.2
551.141	4087.2
556.756	4044.2
562.365	4044.2
567.968	4010.2
573.565	3989.2
579.155	3949.2
584.74	3965.2
590.319	3952.2
595.892	3901.2
601.459	3925.2
607.02	3903.2
612.575	3872.2
618.124	3843.2
623.667	3798.2
629.204	3756.2
634.735	3734.2
640.261	3730.2
645.781	3684.2
651.294	3700.2
656.802	3696.2
662.304	3685.2
667.8	3663.2
673.29	3660.2
678.775	3658.2
684.254	3648.2
689.726	3643.2
695.193	3613.2
700.655	3584.2
706.11	3577.2
711.56	3555.2
717.004	3534.2
722.442	3506.2
727.874	3480.2
733.301	3453.2
738.722	3495.2
744.137	3470.2
749.547	3433.2
754.951	3449.2
760.349	3461.2
765.741	3466.2
771.128	3466.2
776.509	3475.2
781.885	3496.2
787.254	3501.2
792.618	3532.2
797.977	3488.2
803.33	3474.2
808.677	3448.2
814.019	3439.2
819.355	3394.2
824.686	3372.2
830.011	3372.2
835.33	3359.2
840.644	3358.2
845.952	3334.2
851.255	3351.2
856.552	3350.2
861.844	3321.2
867.13	3298.2
872.41	3281.2
877.686	3271.2
882.955	3235.2
888.219	3180.2
893.478	3186.2
898.731	3105.2
903.979	3077.2
909.221	3065.2
914.458	3067.2
919.69	3044.2
924.916	3042.2
930.136	3042.2
935.351	3057.2
940.561	3055.2
945.766	3041.2
950.965	3063.2
956.158	3040.2
961.347	2978.2
966.529	2973.2
971.707	2904.2
976.879	2846.2
982.046	2835.2
987.208	2831.2
992.364	2832.2
997.515	2841.2
1002.66	2893.2
1007.801	2893.2
1012.936	2901.2
1018.066	2899.2
1023.19	2937.2
1028.309	2926.2
1033.423	2919.2
1038.532	2914.2
1043.636	2876.2
1048.734	2879.2
1053.827	2799.2
1058.915	2794.2
1063.998	2778.2
1069.075	2752.2
1074.147	2776.2
1079.214	2754.2
1084.276	2785.2
1089.333	2781.2
1094.385	2807.2
1099.431	2799.2
1104.472	2803.2
1109.509	2775.2
1114.54	2759.2
1119.565	2709.2
1124.586	2670.2
1129.602	2617.2
1134.613	2613.2
1139.618	2604.2
1144.619	2594.2
1149.614	2620.2
1154.604	2603.2
1159.589	2609.2
1164.57	2624.2
1169.545	2635.2
1174.515	2640.2
1179.48	2601.2
1184.44	2603.2
1189.395	2587.2
1194.345	2560.2
1199.29	2526.2
1204.23	2526.2
1209.165	2521.2
1214.095	2562.2
1219.021	2553.2
1223.941	2548.2
1228.856	2584.2
1233.766	2586.2
1238.672	2618.2
1243.572	2592.2
1248.467	2598.2
1253.358	2581.2
1258.244	2476.2
1263.124	2469.2
1268	2425.2
1272.871	2390.2
1277.737	2395.2
1282.599	2371.2
1287.455	2377.2
1292.306	2380.2
1297.153	2406.2
1301.995	2414.2
1306.832	2428.2
1311.664	2443.2
1316.491	2428.2
1321.314	2430.2
1326.132	2428.2
1330.945	2392.2
1335.753	2356.2
1340.556	2313.2
1345.354	2288.2
1350.148	2252.2
1354.937	2211.2
1359.722	2170.2
1364.501	2141.2
1369.276	2109.2
1374.046	2058.2
1378.811	2045.2
1383.572	2029.2
1388.327	2014.2
1393.079	2023.2
1397.825	2035.2
1402.567	2013.2
1407.304	2023.2
1412.036	2035.2
1416.764	2047.2
1421.487	2030.2
1426.205	2052.2
1430.919	2059.2
1435.628	2048.2
1440.333	2084.2
1445.032	2103.2
1449.727	2116.2
1454.418	2153.2
1459.104	2119.2
1463.785	2082.2
1468.462	2049.2
1473.134	2012.2
1477.802	1961.2
1482.465	1913.2
1487.123	1878.2
1491.777	1875.2
1496.426	1851.2
1501.071	1836.2
1505.711	1809.2
1510.347	1817.2
1514.978	1812.2
1519.604	1812.2
1524.226	1815.2
1528.844	1789.2
1533.457	1775.2
1538.065	1765.2
1542.669	1775.2
1547.269	1762.2
1551.864	1745.2
1556.454	1782.2
1561.041	1809.2
1565.622	1813.2
1570.199	1826.2
1574.772	1843.2
1579.34	1866.2
1583.904	1887.2
1588.464	1898.2
1593.019	1886.2
1597.569	1913.2
1602.115	1895.2
1606.657	1899.2
1611.195	1887.2
1615.728	1895.2
1620.256	1889.2
1624.78	1894.2
1629.3	1895.2
1633.816	1905.2
1638.327	1913.2
1642.834	1914.2
1647.336	1912.2
1651.834	1919.2
1656.328	1939.2
1660.817	1920.2
1665.302	1901.2
1669.783	1856.2
1674.259	1828.2
1678.732	1770.2
1683.199	1732.2
1687.663	1672.2
1692.122	1616.2
1696.577	1562.2
1701.028	1494.2
1705.474	1427.2
1709.917	1371.2
1714.355	1366.2
1718.788	1345.2
1723.218	1349.2
1727.643	1369.2
1732.064	1345.2
1736.481	1348.2
1740.893	1314.2
1745.301	1270.2
1749.705	1249.2
1754.105	1231.2
1758.501	1196.2
1762.893	1173.2
1767.28	1174.2
1771.663	1161.2
1776.042	1158.2
1780.417	1143.2
1784.787	1134.2
1789.154	1111.2
1793.516	1105.2
1797.874	1089.2
1802.228	1062.2
1806.578	1049.2
1810.924	1041.2
1815.266	1049.2
1819.603	1030.2
1823.937	1042.2
1828.266	1028.2
1832.591	1033.2
1836.913	1047.2
1841.23	1044.2
1845.543	1029.2
1849.852	1039.2
1854.156	1040.2
1858.457	1056.2
1862.754	1042.2
1867.047	1047.2
1871.335	1056.2
1875.62	1035.2
1879.9	1037.2
1884.177	1033.2
1888.449	1017.2
1892.718	1010.2
1896.982	992.2
1901.243	981.2
1905.499	970.2
1909.752	958.2
1914	936.2
1918.245	948.2
1922.485	919.2
1926.722	910.2
1930.954	900.2
1935.183	903.2
1939.408	916.2
1943.628	894.2
1947.845	891.2
1952.058	884.2
1956.267	877.2
1960.472	860.2
1964.673	863.2
1968.87	852.2
1973.063	831.2
1977.252	836.2
1981.438	834.2
1985.619	834.2
1989.797	846.2
1993.971	846.2
1998.14	860.2
2002.306	852.2
2006.469	854.2
2010.627	853.2
2014.781	846.2
2018.932	848.2
2023.078	843.2
2027.221	840.2
2031.36	847.2
2035.495	827.2
2039.627	822.2
2043.754	802.2
2047.878	798.2
2051.998	785.2
2056.114	791.2
2060.226	783.2
2064.334	783.2
2068.439	783.2
2072.54	777.2
2076.637	776.2
2080.73	784.2
2084.82	774.2
2088.906	755.2
2092.988	759.2
2097.066	750.2
2101.14	738.2
2105.211	728.2
2109.278	718.2
2113.342	701.2
2117.401	703.2
2121.457	707.2
2125.509	693.2
2129.558	690.2
2133.602	685.2
2137.643	686.2
2141.681	679.2
2145.714	679.2
2149.744	687.2
2153.77	693.2
2157.793	685.2
2161.812	680.2
2165.827	666.2
2169.838	659.2
2173.846	651.2
2177.851	636.2
2181.851	634.2
2185.848	629.2
2189.841	620.2
2193.831	634.2
2197.817	623.2
2201.799	615.2
2205.778	608.2
2209.753	614.2
2213.725	609.2
2217.693	614.2
2221.657	608.2
2225.618	604.2
2229.575	608.2
2233.529	598.2
2237.479	602.2
2241.425	587.2
2245.368	569.2
2249.307	565.2
2253.243	560.2
2257.175	542.2
2261.104	548.2
2265.029	541.2
2268.95	533.2
2272.868	514.2
2276.783	516.2
2280.694	514.2
2284.601	496.2
2288.505	506.2
2292.405	504.2
2296.302	500.2
2300.195	476.2
2304.085	468.2
2307.971	459.2
2311.854	477.2
2315.734	454.2
2319.609	455.2
2323.482	447.2
2327.351	447.2
2331.216	463.2
2335.078	461.2
2338.937	459.2
2342.792	440.2
2346.643	432.2
2350.492	431.2
2354.336	439.2
2358.178	432.2
2362.015	445.2
2365.85	446.2
2369.681	446.2
2373.508	448.2
2377.333	436.2
2381.153	431.2
2384.971	442.2
2388.785	448.2
2392.595	426.2
2396.402	433.2
2400.206	420.2
2404.007	422.2
2407.804	426.2
2411.597	419.2
2415.388	415.2
2419.174	415.2
2422.958	406.2
2426.738	429.2
2430.515	413.2
2434.289	409.2
2438.059	408.2
2441.825	399.2
2445.589	400.2
2449.349	388.2
2453.106	388.2
2456.859	373.2
2460.61	378.2
2464.356	364.2
2468.1	367.2
2471.84	354.2
2475.577	362.2
2479.311	359.2
2483.041	355.2
2486.768	360.2
2490.492	341.2
2494.213	352.2
2497.93	344.2
2501.644	341.2
2505.355	339.2
2509.062	338.2
2512.766	332.2
2516.467	330.2
2520.165	324.2
2523.859	332.2
2527.551	312.2
2531.239	313.2
2534.923	309.2
2538.605	304.2
2542.283	300.2
2545.958	295.2
2549.63	310.2
2553.299	287.2
2556.964	301.2
2560.626	299.2
2564.285	282.2
2567.941	284.2
2571.594	279.2
2575.243	275.2
2578.89	264.2
2582.533	264.2
2586.173	271.2
2589.809	254.2
2593.443	258.2
2597.073	255.2
2600.701	251.2
2604.325	239.2
2607.946	251.2
2611.564	246.2
2615.178	252.2
2618.79	245.2
2622.398	250.2
2626.004	240.2
2629.606	249.2
2633.205	230.2
2636.801	240.2
2640.394	226.2
2643.983	226.2
2647.57	234.2
2651.153	223.2
2654.734	226.2
2658.311	222.2
2661.885	217.2
2665.456	213.2
2669.025	224.2
2672.589	204.2
2676.151	222.2
2679.71	208.2
2683.266	208.2
2686.819	207.2
2690.368	202.2
2693.915	200.2
2697.458	192.2
2700.999	190.2
2704.536	182.2
2708.071	191.2
2711.602	180.2
2715.13	174.2
2718.656	172.2
2722.178	169.2
2725.697	165.2
2729.214	163.2
2732.727	175.2
2736.237	171.2
2739.744	166.2
2743.249	161.2
2746.75	160.2
2750.248	152.2
2753.743	157.2
2757.236	149.2
2760.725	147.2
2764.211	137.2
2767.695	138.2
2771.175	127.2
2774.652	132.2
2778.127	127.2
2781.598	125.2
2785.067	139.2
2788.532	138.2
2791.995	130.2
2795.455	137.2
2798.911	134.2
2802.365	133.2
2805.816	136.2
2809.264	133.2
2812.709	141.2
2816.151	138.2
2819.59	138.2
2823.026	136.2
2826.46	131.2
2829.89	136.2
2833.318	141.2
2836.742	145.2
2840.164	143.2
2843.583	143.2
2846.999	145.2
2850.412	140.2
2853.822	144.2
2857.229	143.2
2860.634	153.2
2864.035	158.2
2867.434	156.2
2870.83	165.2
2874.223	181.2
2877.613	180.2
2881	184.2
2884.385	181.2
2887.766	176.2
2891.145	180.2
2894.521	183.2
2897.894	187.2
2901.264	177.2
2904.631	185.2
2907.996	180.2
2911.358	186.2
2914.717	200.2
2918.073	195.2
2921.426	208.2
2924.777	219.2
2928.124	217.2
2931.469	207.2
2934.811	227.2
2938.15	232.2
2941.487	235.2
2944.821	231.2
2948.152	231.2
2951.48	233.2
2954.805	236.2
2958.128	235.2
2961.447	229.2
2964.765	222.2
2968.079	230.2
2971.39	222.2
2974.699	233.2
2978.005	231.2
2981.308	242.2
2984.609	231.2
2987.907	231.2
2991.202	244.2
2994.494	245.2
2997.784	238.2
3001.07	245.2
3004.355	257.2
3007.636	254.2
3010.915	251.2
3014.191	255.2
3017.464	266.2
3020.734	265.2
3024.002	261.2
3027.267	278.2
3030.53	271.2
3033.789	285.2
3037.046	292.2
3040.301	290.2
3043.552	310.2
3046.801	315.2
3050.048	328.2
3053.291	333.2
3056.532	343.2
3059.771	367.2
3063.006	354.2
3066.239	379.2
3069.469	392.2
3072.697	404.2
3075.922	416.2
3079.144	428.2
3082.364	440.2
3085.581	434.2
3088.795	441.2
3092.007	460.2
3095.216	466.2
3098.423	473.2
3101.627	490.2
3104.828	504.2
3108.026	506.2
3111.222	517.2
3114.416	528.2
3117.607	554.2
3120.795	551.2
3123.98	559.2
3127.163	560.2
3130.344	596.2
3133.521	611.2
3136.696	630.2
3139.869	630.2
3143.039	639.2
3146.206	651.2
3149.371	662.2
3152.533	670.2
3155.693	676.2
3158.85	672.2
3162.005	679.2
3165.157	695.2
3168.306	679.2
3171.453	679.2
3174.597	685.2
3177.739	694.2
3180.878	699.2
3184.014	708.2
3187.149	710.2
3190.28	713.2
3193.409	704.2
3196.536	714.2
3199.659	707.2
3202.781	718.2
3205.9	718.2
3209.016	722.2
3212.13	725.2
3215.241	711.2
3218.35	710.2
3221.456	704.2
3224.56	690.2
3227.661	679.2
3230.76	668.2
3233.856	670.2
3236.95	656.2
3240.041	638.2
3243.13	631.2
3246.216	631.2
3249.3	615.2
3252.382	616.2
3255.46	604.2
3258.537	607.2
3261.611	600.2
3264.682	590.2
3267.751	606.2
3270.818	592.2
3273.882	591.2
3276.943	581.2
3280.002	581.2
3283.059	577.2
3286.113	571.2
3289.165	566.2
3292.214	562.2
3295.261	553.2
3298.306	546.2
3301.348	525.2
3304.387	519.2
3307.425	527.2
3310.459	519.2
3313.492	507.2
3316.521	509.2
3319.549	514.2
3322.574	508.2
3325.597	486.2
3328.617	496.2
3331.635	491.2
3334.65	498.2
3337.663	480.2
3340.674	481.2
3343.682	482.2
3346.688	486.2
3349.691	479.2
3352.692	483.2
3355.691	482.2
3358.687	474.2
3361.681	474.2
3364.673	460.2
3367.662	456.2
3370.649	459.2
3373.633	433.2
3376.615	436.2
3379.595	426.2
3382.572	433.2
3385.547	422.2
3388.52	423.2
3391.49	406.2
3394.458	405.2
3397.424	381.2
3400.387	386.2
3403.348	380.2
3406.307	369.2
3409.263	366.2
3412.217	373.2
3415.168	377.2
3418.118	363.2
3421.065	347.2
3424.009	350.2
3426.951	347.2
3429.891	334.2
3432.829	318.2
3435.764	320.2
3438.697	311.2
3441.628	298.2
3444.557	289.2
3447.483	271.2
3450.407	274.2
3453.328	253.2
3456.247	255.2
3459.164	235.2
3462.079	227.2
3464.991	215.2
3467.902	214.2
3470.809	212.2
3473.715	195.2
3476.618	182.2
3479.519	188.2
3482.418	169.2
3485.315	169.2
3488.209	153.2
3491.101	154.2
3493.99	151.2
3496.878	143.2
3499.763	127.2
3502.646	124.2
3505.527	116.2
3508.405	111.2
3511.281	105.2
3514.155	97.2
3517.027	91.2
3519.897	79.2
3522.764	70.2
3525.629	65.2
3528.492	50.2
3531.352	49.2
3534.211	46.2
3537.067	34.2
3539.921	34.2
3542.773	26.2
3545.622	17.2
3548.469	7.2
3551.315	8.2
3554.157	7.2
3556.998	0.2
3559.837	-4.8
3562.673	-10.8
3565.507	-8.8
3568.339	-20.8
3571.169	-29.8
3573.996	-24.8
3576.822	-23.8
3579.645	-23.8
3582.466	-27.8
3585.285	-36.8
3588.101	-30.8
3590.916	-44.8
3593.728	-57.8
3596.538	-54.8
3599.346	-53.8
3602.152	-54.8
3604.956	-54.8
3607.757	-56.8
3610.556	-63.8
3613.354	-59.8
3616.149	-73.8
3618.942	-77.8
3621.732	-70.8
3624.521	-71.8
3627.307	-70.8
3630.092	-71.8
3632.874	-72.8
3635.654	-80.8
3638.432	-83.8
3641.208	-84.8
3643.982	-85.8
3646.753	-90.8
3649.523	-87.8
3652.29	-86.8
3655.055	-93.8
3657.818	-92.8
3660.579	-92.8
3663.338	-93.8
3666.095	-99.8
3668.849	-103.8
3671.602	-102.8
3674.352	-99.8
3677.101	-104.8
3679.847	-102.8
3682.591	-108.8
3685.333	-104.8
3688.073	-109.8
3690.811	-108.8
3693.547	-111.8
3696.281	-108.8
3699.013	-108.8
3701.742	-114.8
3704.47	-114.8
3707.195	-114.8
3709.919	-114.8
3712.64	-120.8
3715.359	-121.8
3718.076	-115.8
3720.792	-118.8
3723.505	-123.8
3726.216	-117.8
3728.925	-123.8
3731.632	-121.8
3734.336	-129.8
3737.039	-123.8
3739.74	-126.8
3742.439	-130.8
3745.136	-116.8
3747.83	-132.8
3750.523	-128.8
3753.213	-134.8
3755.902	-123.8
3758.589	-131.8
3761.273	-121.8
3763.956	-121.8
3766.636	-129.8
3769.315	-124.8
3771.991	-121.8
3774.665	-131.8
3777.338	-122.8
3780.008	-124.8
3782.677	-132.8
3785.343	-127.8
3788.007	-129.8
3790.67	-128.8
3793.33	-124.8
3795.989	-133.8
3798.645	-123.8
3801.299	-131.8
3803.952	-134.8
3806.602	-127.8
3809.251	-132.8
3811.897	-133.8
3814.542	-136.8
3817.184	-127.8
3819.825	-131.8
3822.463	-129.8
3825.1	-128.8
3827.735	-131.8
3830.367	-129.8
3832.998	-129.8
3835.627	-128.8
3838.253	-129.8
3840.878	-131.8
3843.501	-125.8
3846.122	-125.8
3848.741	-138.8
3851.358	-128.8
3853.973	-135.8
3856.586	-132.8
3859.197	-135.8
3861.806	-133.8
3864.414	-133.8
3867.019	-125.8
3869.622	-132.8
3872.224	-120.8
3874.823	-117.8
3877.421	-105.8
3880.016	-96.8
3882.61	-64.8
3885.202	-73.8
3887.792	-80.8
3890.38	-105.8
3892.966	-123.8
3895.55	-130.8
3898.132	-127.8
3900.713	-130.8
3903.291	-136.8
3905.868	-130.8
3908.442	-125.8
3911.015	-131.8
3913.586	-134.8
3916.155	-140.8
3918.722	-132.8
3921.287	-135.8
3923.85	-134.8
3926.411	-135.8
3928.971	-136.8
3931.528	-135.8
3934.084	-133.8
3936.638	-128.8
3939.19	-142.8
3941.74	-135.8
3944.288	-131.8
3946.834	-132.8
3949.378	-136.8
3951.921	-133.8
3954.462	-137.8
3957	-138.8
3959.537	-128.8
3962.072	-138.8
3964.606	-133.8
3967.137	-133.8
3969.667	-133.8
3972.194	-137.8
3974.72	-130.8
3977.244	-137.8
3979.766	-135.8
3982.286	-135.8
3984.805	-132.8
3987.321	-135.8
3989.836	-123.8
3992.349	-132.8
3994.86	-134.8
3997.369	-130.8
3999.877	-130.8
4002.382	-128.8
4004.886	-132.8
4007.388	-130.8
4009.888	-128.8
4012.386	-135.8
4014.883	-133.8
4017.377	-135.8
4019.87	-129.8
4022.361	-132.8
4024.85	-132.8
4027.338	-127.8
4029.823	-129.8
4032.307	-129.8
4034.789	-140.8
4037.269	-130.8
4039.747	-135.8
4042.224	-127.8
4044.699	-133.8
4047.172	-127.8
4049.643	-128.8
4052.112	-134.8
4054.58	-134.8
4057.046	-137.8
4059.51	-134.8
4061.972	-129.8
4064.432	-131.8
4066.891	-130.8
4069.348	-132.8
4071.803	-133.8
4074.256	-134.8
4076.708	-130.8
4079.158	-129.8
4081.606	-124.8
4084.052	-131.8
4086.497	-132.8
4088.939	-123.8
4091.38	-131.8
4093.819	-130.8
4096.257	-137.8
4098.693	-135.8
4101.127	-140.8
4103.559	-137.8
4105.989	-11.8
4108.418	-12.8
4110.845	-9.8
4113.27	-14.8
4115.694	-19.8
4118.115	-16.8
4120.535	-138.8
4122.954	-132.8
4125.37	-129.8
4127.785	-132.8
4130.198	-129.8
4132.609	-130.8
4135.019	-141.8
4137.427	-140.8
4139.833	-141.8
4142.237	-137.8
