Data from 2018-2-8_conc=5_n=5_RamanShift_03.txt Node
Date: Mon Mar 12 16:05:28 IST 2018
User: aro
Spectrometer: QEPB0276
Trigger mode: 0
Integration Time (sec): 3.000000E1
Scans to average: 1
Electric dark correction enabled: true
Nonlinearity correction enabled: false
Boxcar width: 0
XAxis mode: Raman Shifts
Number of Pixels in Spectrum: 1044
>>>>>Begin Spectral Data<<<<<
160.701	18.2
166.742	37.2
172.777	98.2
178.805	315.2
184.826	834.2
190.841	1820.2
196.849	3010.2
202.85	3919.2
208.845	4278.2
214.833	4295.2
220.815	4257.2
226.789	4206.2
232.758	4250.2
238.719	4227.2
244.674	4230.2
250.623	4150.2
256.565	4141.2
262.5	4075.2
268.429	4044.2
274.351	4003.2
280.267	4000.2
286.176	3972.2
292.079	3926.2
297.975	3941.2
303.865	3920.2
309.748	3923.2
315.625	3933.2
321.495	3925.2
327.359	3899.2
333.217	3927.2
339.068	3932.2
344.912	3939.2
350.751	3947.2
356.583	3968.2
362.408	3946.2
368.227	3954.2
374.04	3975.2
379.847	3982.2
385.647	4031.2
391.44	4024.2
397.228	4050.2
403.009	4080.2
408.784	4113.2
414.553	4072.2
420.315	4107.2
426.071	4125.2
431.821	4110.2
437.565	4098.2
443.302	4084.2
449.033	4107.2
454.758	4054.2
460.477	4046.2
466.189	4001.2
471.896	3980.2
477.596	3986.2
483.29	3932.2
488.978	3961.2
494.66	3914.2
500.335	3826.2
506.005	3730.2
511.668	3643.2
517.325	3488.2
522.977	3422.2
528.622	3305.2
534.261	3290.2
539.894	3243.2
545.521	3200.2
551.141	3188.2
556.756	3163.2
562.365	3123.2
567.968	3114.2
573.565	3089.2
579.155	3080.2
584.74	3068.2
590.319	3071.2
595.892	3054.2
601.459	3031.2
607.02	3041.2
612.575	3008.2
618.124	2988.2
623.667	2945.2
629.204	2925.2
634.735	2884.2
640.261	2877.2
645.781	2866.2
651.294	2855.2
656.802	2842.2
662.304	2833.2
667.8	2821.2
673.29	2833.2
678.775	2834.2
684.254	2821.2
689.726	2784.2
695.193	2792.2
700.655	2785.2
706.11	2735.2
711.56	2736.2
717.004	2726.2
722.442	2717.2
727.874	2708.2
733.301	2684.2
738.722	2680.2
744.137	2656.2
749.547	2663.2
754.951	2669.2
760.349	2672.2
765.741	2674.2
771.128	2663.2
776.509	2719.2
781.885	2735.2
787.254	2721.2
792.618	2718.2
797.977	2715.2
803.33	2709.2
808.677	2672.2
814.019	2685.2
819.355	2656.2
824.686	2632.2
830.011	2600.2
835.33	2618.2
840.644	2614.2
845.952	2611.2
851.255	2578.2
856.552	2565.2
861.844	2555.2
867.13	2528.2
872.41	2519.2
877.686	2522.2
882.955	2476.2
888.219	2464.2
893.478	2428.2
898.731	2398.2
903.979	2387.2
909.221	2346.2
914.458	2351.2
919.69	2336.2
924.916	2341.2
930.136	2368.2
935.351	2361.2
940.561	2381.2
945.766	2342.2
950.965	2335.2
956.158	2333.2
961.347	2289.2
966.529	2275.2
971.707	2242.2
976.879	2205.2
982.046	2189.2
987.208	2188.2
992.364	2190.2
997.515	2170.2
1002.66	2210.2
1007.801	2231.2
1012.936	2242.2
1018.066	2239.2
1023.19	2249.2
1028.309	2255.2
1033.423	2277.2
1038.532	2222.2
1043.636	2230.2
1048.734	2208.2
1053.827	2188.2
1058.915	2175.2
1063.998	2119.2
1069.075	2141.2
1074.147	2144.2
1079.214	2152.2
1084.276	2158.2
1089.333	2151.2
1094.385	2169.2
1099.431	2157.2
1104.472	2136.2
1109.509	2147.2
1114.54	2129.2
1119.565	2089.2
1124.586	2053.2
1129.602	2026.2
1134.613	2010.2
1139.618	2000.2
1144.619	2009.2
1149.614	1996.2
1154.604	2018.2
1159.589	2025.2
1164.57	2028.2
1169.545	2017.2
1174.515	2014.2
1179.48	2017.2
1184.44	1999.2
1189.395	1978.2
1194.345	1973.2
1199.29	1962.2
1204.23	1942.2
1209.165	1972.2
1214.095	1970.2
1219.021	1987.2
1223.941	1996.2
1228.856	2011.2
1233.766	1986.2
1238.672	2004.2
1243.572	1986.2
1248.467	1989.2
1253.358	1963.2
1258.244	1939.2
1263.124	1917.2
1268	1868.2
1272.871	1851.2
1277.737	1825.2
1282.599	1813.2
1287.455	1818.2
1292.306	1828.2
1297.153	1843.2
1301.995	1857.2
1306.832	1839.2
1311.664	1868.2
1316.491	1876.2
1321.314	1868.2
1326.132	1865.2
1330.945	1830.2
1335.753	1813.2
1340.556	1774.2
1345.354	1767.2
1350.148	1735.2
1354.937	1702.2
1359.722	1673.2
1364.501	1655.2
1369.276	1635.2
1374.046	1595.2
1378.811	1570.2
1383.572	1564.2
1388.327	1553.2
1393.079	1570.2
1397.825	1566.2
1402.567	1586.2
1407.304	1547.2
1412.036	1566.2
1416.764	1578.2
1421.487	1561.2
1426.205	1572.2
1430.919	1590.2
1435.628	1581.2
1440.333	1601.2
1445.032	1630.2
1449.727	1634.2
1454.418	1634.2
1459.104	1635.2
1463.785	1601.2
1468.462	1590.2
1473.134	1563.2
1477.802	1535.2
1482.465	1487.2
1487.123	1471.2
1491.777	1440.2
1496.426	1449.2
1501.071	1418.2
1505.711	1410.2
1510.347	1424.2
1514.978	1416.2
1519.604	1405.2
1524.226	1413.2
1528.844	1382.2
1533.457	1392.2
1538.065	1378.2
1542.669	1374.2
1547.269	1387.2
1551.864	1378.2
1556.454	1382.2
1561.041	1413.2
1565.622	1406.2
1570.199	1412.2
1574.772	1420.2
1579.34	1457.2
1583.904	1466.2
1588.464	1475.2
1593.019	1466.2
1597.569	1480.2
1602.115	1483.2
1606.657	1459.2
1611.195	1450.2
1615.728	1435.2
1620.256	1462.2
1624.78	1444.2
1629.3	1452.2
1633.816	1449.2
1638.327	1451.2
1642.834	1468.2
1647.336	1468.2
1651.834	1470.2
1656.328	1481.2
1660.817	1476.2
1665.302	1460.2
1669.783	1440.2
1674.259	1398.2
1678.732	1371.2
1683.199	1331.2
1687.663	1302.2
1692.122	1267.2
1696.577	1197.2
1701.028	1160.2
1705.474	1127.2
1709.917	1084.2
1714.355	1076.2
1718.788	1058.2
1723.218	1066.2
1727.643	1055.2
1732.064	1052.2
1736.481	1062.2
1740.893	1026.2
1745.301	1019.2
1749.705	985.2
1754.105	972.2
1758.501	955.2
1762.893	938.2
1767.28	920.2
1771.663	922.2
1776.042	915.2
1780.417	912.2
1784.787	896.2
1789.154	890.2
1793.516	881.2
1797.874	853.2
1802.228	851.2
1806.578	845.2
1810.924	845.2
1815.266	820.2
1819.603	821.2
1823.937	826.2
1828.266	816.2
1832.591	812.2
1836.913	818.2
1841.23	823.2
1845.543	814.2
1849.852	819.2
1854.156	815.2
1858.457	841.2
1862.754	832.2
1867.047	818.2
1871.335	810.2
1875.62	821.2
1879.9	827.2
1884.177	818.2
1888.449	810.2
1892.718	792.2
1896.982	799.2
1901.243	791.2
1905.499	776.2
1909.752	760.2
1914	737.2
1918.245	741.2
1922.485	726.2
1926.722	734.2
1930.954	731.2
1935.183	717.2
1939.408	725.2
1943.628	703.2
1947.845	707.2
1952.058	701.2
1956.267	690.2
1960.472	686.2
1964.673	687.2
1968.87	678.2
1973.063	686.2
1977.252	673.2
1981.438	676.2
1985.619	679.2
1989.797	674.2
1993.971	672.2
1998.14	674.2
2002.306	666.2
2006.469	673.2
2010.627	660.2
2014.781	686.2
2018.932	668.2
2023.078	680.2
2027.221	662.2
2031.36	657.2
2035.495	643.2
2039.627	646.2
2043.754	635.2
2047.878	631.2
2051.998	620.2
2056.114	613.2
2060.226	621.2
2064.334	622.2
2068.439	611.2
2072.54	609.2
2076.637	610.2
2080.73	618.2
2084.82	613.2
2088.906	606.2
2092.988	584.2
2097.066	593.2
2101.14	581.2
2105.211	575.2
2109.278	563.2
2113.342	567.2
2117.401	556.2
2121.457	553.2
2125.509	542.2
2129.558	537.2
2133.602	551.2
2137.643	549.2
2141.681	534.2
2145.714	543.2
2149.744	556.2
2153.77	543.2
2157.793	538.2
2161.812	539.2
2165.827	528.2
2169.838	527.2
2173.846	513.2
2177.851	510.2
2181.851	502.2
2185.848	482.2
2189.841	501.2
2193.831	494.2
2197.817	489.2
2201.799	481.2
2205.778	471.2
2209.753	484.2
2213.725	475.2
2217.693	473.2
2221.657	490.2
2225.618	485.2
2229.575	468.2
2233.529	467.2
2237.479	462.2
2241.425	458.2
2245.368	452.2
2249.307	441.2
2253.243	443.2
2257.175	425.2
2261.104	419.2
2265.029	419.2
2268.95	418.2
2272.868	406.2
2276.783	397.2
2280.694	404.2
2284.601	396.2
2288.505	401.2
2292.405	388.2
2296.302	381.2
2300.195	380.2
2304.085	373.2
2307.971	358.2
2311.854	373.2
2315.734	361.2
2319.609	351.2
2323.482	360.2
2327.351	357.2
2331.216	353.2
2335.078	369.2
2338.937	368.2
2342.792	352.2
2346.643	336.2
2350.492	341.2
2354.336	335.2
2358.178	338.2
2362.015	334.2
2365.85	339.2
2369.681	341.2
2373.508	338.2
2377.333	346.2
2381.153	344.2
2384.971	347.2
2388.785	338.2
2392.595	324.2
2396.402	332.2
2400.206	327.2
2404.007	325.2
2407.804	333.2
2411.597	332.2
2415.388	331.2
2419.174	328.2
2422.958	315.2
2426.738	316.2
2430.515	318.2
2434.289	318.2
2438.059	305.2
2441.825	306.2
2445.589	299.2
2449.349	300.2
2453.106	301.2
2456.859	296.2
2460.61	294.2
2464.356	290.2
2468.1	278.2
2471.84	274.2
2475.577	288.2
2479.311	271.2
2483.041	279.2
2486.768	276.2
2490.492	271.2
2494.213	286.2
2497.93	270.2
2501.644	263.2
2505.355	256.2
2509.062	258.2
2512.766	255.2
2516.467	255.2
2520.165	253.2
2523.859	252.2
2527.551	249.2
2531.239	230.2
2534.923	231.2
2538.605	235.2
2542.283	230.2
2545.958	233.2
2549.63	229.2
2553.299	236.2
2556.964	229.2
2560.626	226.2
2564.285	217.2
2567.941	218.2
2571.594	223.2
2575.243	218.2
2578.89	209.2
2582.533	204.2
2586.173	213.2
2589.809	197.2
2593.443	204.2
2597.073	198.2
2600.701	195.2
2604.325	182.2
2607.946	196.2
2611.564	189.2
2615.178	187.2
2618.79	191.2
2622.398	182.2
2626.004	191.2
2629.606	197.2
2633.205	180.2
2636.801	180.2
2640.394	177.2
2643.983	175.2
2647.57	174.2
2651.153	168.2
2654.734	173.2
2658.311	166.2
2661.885	164.2
2665.456	164.2
2669.025	170.2
2672.589	165.2
2676.151	164.2
2679.71	163.2
2683.266	162.2
2686.819	156.2
2690.368	153.2
2693.915	147.2
2697.458	137.2
2700.999	148.2
2704.536	144.2
2708.071	139.2
2711.602	130.2
2715.13	140.2
2718.656	129.2
2722.178	123.2
2725.697	125.2
2729.214	122.2
2732.727	127.2
2736.237	129.2
2739.744	131.2
2743.249	123.2
2746.75	116.2
2750.248	115.2
2753.743	112.2
2757.236	116.2
2760.725	107.2
2764.211	108.2
2767.695	96.2
2771.175	95.2
2774.652	92.2
2778.127	95.2
2781.598	92.2
2785.067	111.2
2788.532	99.2
2791.995	107.2
2795.455	105.2
2798.911	92.2
2802.365	103.2
2805.816	109.2
2809.264	108.2
2812.709	113.2
2816.151	106.2
2819.59	109.2
2823.026	99.2
2826.46	96.2
2829.89	98.2
2833.318	94.2
2836.742	113.2
2840.164	104.2
2843.583	109.2
2846.999	101.2
2850.412	103.2
2853.822	107.2
2857.229	107.2
2860.634	105.2
2864.035	115.2
2867.434	116.2
2870.83	124.2
2874.223	130.2
2877.613	124.2
2881	140.2
2884.385	136.2
2887.766	121.2
2891.145	132.2
2894.521	128.2
2897.894	143.2
2901.264	132.2
2904.631	128.2
2907.996	135.2
2911.358	137.2
2914.717	141.2
2918.073	144.2
2921.426	145.2
2924.777	151.2
2928.124	162.2
2931.469	151.2
2934.811	153.2
2938.15	169.2
2941.487	167.2
2944.821	166.2
2948.152	165.2
2951.48	161.2
2954.805	171.2
2958.128	146.2
2961.447	159.2
2964.765	159.2
2968.079	152.2
2971.39	162.2
2974.699	168.2
2978.005	166.2
2981.308	165.2
2984.609	163.2
2987.907	166.2
2991.202	171.2
2994.494	166.2
2997.784	163.2
3001.07	177.2
3004.355	181.2
3007.636	180.2
3010.915	182.2
3014.191	172.2
3017.464	193.2
3020.734	182.2
3024.002	186.2
3027.267	192.2
3030.53	199.2
3033.789	198.2
3037.046	203.2
3040.301	201.2
3043.552	223.2
3046.801	218.2
3050.048	229.2
3053.291	233.2
3056.532	249.2
3059.771	252.2
3063.006	257.2
3066.239	271.2
3069.469	273.2
3072.697	284.2
3075.922	301.2
3079.144	309.2
3082.364	306.2
3085.581	318.2
3088.795	310.2
3092.007	318.2
3095.216	331.2
3098.423	341.2
3101.627	349.2
3104.828	351.2
3108.026	355.2
3111.222	371.2
3114.416	379.2
3117.607	388.2
3120.795	391.2
3123.98	406.2
3127.163	410.2
3130.344	434.2
3133.521	432.2
3136.696	448.2
3139.869	450.2
3143.039	459.2
3146.206	455.2
3149.371	473.2
3152.533	480.2
3155.693	475.2
3158.85	479.2
3162.005	490.2
3165.157	479.2
3168.306	478.2
3171.453	477.2
3174.597	488.2
3177.739	500.2
3180.878	496.2
3184.014	510.2
3187.149	492.2
3190.28	500.2
3193.409	489.2
3196.536	499.2
3199.659	499.2
3202.781	501.2
3205.9	504.2
3209.016	511.2
3212.13	518.2
3215.241	509.2
3218.35	502.2
3221.456	501.2
3224.56	494.2
3227.661	483.2
3230.76	470.2
3233.856	475.2
3236.95	460.2
3240.041	445.2
3243.13	442.2
3246.216	435.2
3249.3	441.2
3252.382	431.2
3255.46	428.2
3258.537	427.2
3261.611	418.2
3264.682	416.2
3267.751	411.2
3270.818	406.2
3273.882	401.2
3276.943	414.2
3280.002	413.2
3283.059	402.2
3286.113	385.2
3289.165	400.2
3292.214	386.2
3295.261	378.2
3298.306	370.2
3301.348	370.2
3304.387	367.2
3307.425	362.2
3310.459	368.2
3313.492	358.2
3316.521	342.2
3319.549	350.2
3322.574	346.2
3325.597	349.2
3328.617	351.2
3331.635	347.2
3334.65	342.2
3337.663	332.2
3340.674	335.2
3343.682	334.2
3346.688	326.2
3349.691	339.2
3352.692	338.2
3355.691	335.2
3358.687	325.2
3361.681	324.2
3364.673	327.2
3367.662	318.2
3370.649	301.2
3373.633	302.2
3376.615	294.2
3379.595	294.2
3382.572	295.2
3385.547	287.2
3388.52	281.2
3391.49	279.2
3394.458	273.2
3397.424	267.2
3400.387	263.2
3403.348	265.2
3406.307	255.2
3409.263	253.2
3412.217	254.2
3415.168	247.2
3418.118	247.2
3421.065	235.2
3424.009	238.2
3426.951	242.2
3429.891	216.2
3432.829	218.2
3435.764	216.2
3438.697	209.2
3441.628	202.2
3444.557	202.2
3447.483	182.2
3450.407	184.2
3453.328	164.2
3456.247	162.2
3459.164	152.2
3462.079	149.2
3464.991	138.2
3467.902	138.2
3470.809	140.2
3473.715	122.2
3476.618	117.2
3479.519	113.2
3482.418	109.2
3485.315	91.2
3488.209	100.2
3491.101	97.2
3493.99	95.2
3496.878	88.2
3499.763	75.2
3502.646	67.2
3505.527	69.2
3508.405	65.2
3511.281	59.2
3514.155	53.2
3517.027	49.2
3519.897	45.2
3522.764	35.2
3525.629	33.2
3528.492	28.2
3531.352	20.2
3534.211	11.2
3537.067	18.2
3539.921	19.2
3542.773	13.2
3545.622	-0.8
3548.469	-6.8
3551.315	-7.8
3554.157	-10.8
3556.998	-18.8
3559.837	-13.8
3562.673	-23.8
3565.507	-18.8
3568.339	-23.8
3571.169	-34.8
3573.996	-29.8
3576.822	-25.8
3579.645	-30.8
3582.466	-31.8
3585.285	-37.8
3588.101	-34.8
3590.916	-47.8
3593.728	-52.8
3596.538	-48.8
3599.346	-49.8
3602.152	-53.8
3604.956	-54.8
3607.757	-47.8
3610.556	-58.8
3613.354	-54.8
3616.149	-63.8
3618.942	-66.8
3621.732	-68.8
3624.521	-65.8
3627.307	-62.8
3630.092	-68.8
3632.874	-62.8
3635.654	-73.8
3638.432	-69.8
3641.208	-77.8
3643.982	-77.8
3646.753	-78.8
3649.523	-81.8
3652.29	-76.8
3655.055	-75.8
3657.818	-80.8
3660.579	-78.8
3663.338	-84.8
3666.095	-84.8
3668.849	-85.8
3671.602	-86.8
3674.352	-84.8
3677.101	-90.8
3679.847	-90.8
3682.591	-88.8
3685.333	-92.8
3688.073	-93.8
3690.811	-96.8
3693.547	-94.8
3696.281	-90.8
3699.013	-97.8
3701.742	-103.8
3704.47	-97.8
3707.195	-98.8
3709.919	-101.8
3712.64	-98.8
3715.359	-101.8
3718.076	-101.8
3720.792	-100.8
3723.505	-103.8
3726.216	-99.8
3728.925	-104.8
3731.632	-95.8
3734.336	-110.8
3737.039	-103.8
3739.74	-105.8
3742.439	-108.8
3745.136	-99.8
3747.83	-113.8
3750.523	-110.8
3753.213	-109.8
3755.902	-101.8
3758.589	-110.8
3761.273	-100.8
3763.956	-101.8
3766.636	-105.8
3769.315	-102.8
3771.991	-104.8
3774.665	-108.8
3777.338	-103.8
3780.008	-106.8
3782.677	-107.8
3785.343	-111.8
3788.007	-107.8
3790.67	-111.8
3793.33	-106.8
3795.989	-107.8
3798.645	-104.8
3801.299	-109.8
3803.952	-111.8
3806.602	-106.8
3809.251	-114.8
3811.897	-114.8
3814.542	-109.8
3817.184	-101.8
3819.825	-103.8
3822.463	-106.8
3825.1	-110.8
3827.735	-106.8
3830.367	-107.8
3832.998	-114.8
3835.627	-106.8
3838.253	-110.8
3840.878	-109.8
3843.501	-102.8
3846.122	-112.8
3848.741	-111.8
3851.358	-110.8
3853.973	-114.8
3856.586	-104.8
3859.197	-115.8
3861.806	-108.8
3864.414	-108.8
3867.019	-108.8
3869.622	-109.8
3872.224	-101.8
3874.823	-96.8
3877.421	-86.8
3880.016	-64.8
3882.61	-44.8
3885.202	-44.8
3887.792	-59.8
3890.38	-81.8
3892.966	-96.8
3895.55	-104.8
3898.132	-105.8
3900.713	-107.8
3903.291	-112.8
3905.868	-112.8
3908.442	-109.8
3911.015	-111.8
3913.586	-108.8
3916.155	-112.8
3918.722	-114.8
3921.287	-110.8
3923.85	-111.8
3926.411	-113.8
3928.971	-111.8
3931.528	-114.8
3934.084	-107.8
3936.638	-103.8
3939.19	-114.8
3941.74	-115.8
3944.288	-114.8
3946.834	-110.8
3949.378	-112.8
3951.921	-109.8
3954.462	-118.8
3957	-109.8
3959.537	-107.8
3962.072	-116.8
3964.606	-108.8
3967.137	-109.8
3969.667	-112.8
3972.194	-109.8
3974.72	-112.8
3977.244	-108.8
3979.766	-109.8
3982.286	-109.8
3984.805	-116.8
3987.321	-108.8
3989.836	-100.8
3992.349	-107.8
3994.86	-114.8
3997.369	-116.8
3999.877	-110.8
4002.382	-105.8
4004.886	-112.8
4007.388	-105.8
4009.888	-105.8
4012.386	-109.8
4014.883	-113.8
4017.377	-110.8
4019.87	-112.8
4022.361	-120.8
4024.85	-106.8
4027.338	-105.8
4029.823	-107.8
4032.307	-107.8
4034.789	-112.8
4037.269	-110.8
4039.747	-110.8
4042.224	-105.8
4044.699	-110.8
4047.172	-109.8
4049.643	-99.8
4052.112	-107.8
4054.58	-109.8
4057.046	-108.8
4059.51	-114.8
4061.972	-109.8
4064.432	-112.8
4066.891	-110.8
4069.348	-108.8
4071.803	-109.8
4074.256	-115.8
4076.708	-105.8
4079.158	-112.8
4081.606	-101.8
4084.052	-112.8
4086.497	-106.8
4088.939	-100.8
4091.38	-108.8
4093.819	-106.8
4096.257	-116.8
4098.693	-113.8
4101.127	-116.8
4103.559	-109.8
4105.989	8.2
4108.418	7.2
4110.845	8.2
4113.27	2.2
4115.694	-5.8
4118.115	-7.8
4120.535	-111.8
4122.954	-115.8
4125.37	-110.8
4127.785	-113.8
4130.198	-105.8
4132.609	-107.8
4135.019	-115.8
4137.427	-116.8
4139.833	-118.8
4142.237	-117.8
