Data from 2018-2-8_conc=0_n=10_RamanShift_02.txt Node
Date: Mon Mar 12 13:51:28 IST 2018
User: aro
Spectrometer: QEPB0276
Trigger mode: 0
Integration Time (sec): 3.000000E1
Scans to average: 1
Electric dark correction enabled: true
Nonlinearity correction enabled: false
Boxcar width: 0
XAxis mode: Raman Shifts
Number of Pixels in Spectrum: 1044
>>>>>Begin Spectral Data<<<<<
160.701	30.6
166.742	54.6
172.777	119.6
178.805	358.6
184.826	968.6
190.841	2050.6
196.849	3407.6
202.85	4471.6
208.845	4872.6
214.833	4883.6
220.815	4819.6
226.789	4825.6
232.758	4794.6
238.719	4826.6
244.674	4788.6
250.623	4752.6
256.565	4679.6
262.5	4627.6
268.429	4581.6
274.351	4541.6
280.267	4529.6
286.176	4494.6
292.079	4510.6
297.975	4478.6
303.865	4465.6
309.748	4462.6
315.625	4472.6
321.495	4451.6
327.359	4456.6
333.217	4446.6
339.068	4456.6
344.912	4465.6
350.751	4451.6
356.583	4457.6
362.408	4471.6
368.227	4485.6
374.04	4542.6
379.847	4493.6
385.647	4551.6
391.44	4569.6
397.228	4598.6
403.009	4617.6
408.784	4608.6
414.553	4643.6
420.315	4659.6
426.071	4666.6
431.821	4692.6
437.565	4647.6
443.302	4641.6
449.033	4623.6
454.758	4600.6
460.477	4563.6
466.189	4532.6
471.896	4539.6
477.596	4500.6
483.29	4472.6
488.978	4473.6
494.66	4474.6
500.335	4368.6
506.005	4268.6
511.668	4116.6
517.325	3991.6
522.977	3900.6
528.622	3809.6
534.261	3742.6
539.894	3721.6
545.521	3668.6
551.141	3630.6
556.756	3614.6
562.365	3580.6
567.968	3560.6
573.565	3535.6
579.155	3517.6
584.74	3486.6
590.319	3488.6
595.892	3506.6
601.459	3486.6
607.02	3462.6
612.575	3439.6
618.124	3413.6
623.667	3361.6
629.204	3336.6
634.735	3338.6
640.261	3287.6
645.781	3294.6
651.294	3256.6
656.802	3280.6
662.304	3248.6
667.8	3232.6
673.29	3255.6
678.775	3221.6
684.254	3195.6
689.726	3203.6
695.193	3183.6
700.655	3192.6
706.11	3156.6
711.56	3141.6
717.004	3120.6
722.442	3111.6
727.874	3100.6
733.301	3084.6
738.722	3061.6
744.137	3052.6
749.547	3033.6
754.951	3041.6
760.349	3042.6
765.741	3033.6
771.128	3064.6
776.509	3111.6
781.885	3113.6
787.254	3120.6
792.618	3157.6
797.977	3122.6
803.33	3108.6
808.677	3072.6
814.019	3044.6
819.355	3028.6
824.686	3024.6
830.011	2989.6
835.33	2988.6
840.644	2997.6
845.952	2973.6
851.255	2948.6
856.552	2949.6
861.844	2929.6
867.13	2933.6
872.41	2892.6
877.686	2887.6
882.955	2884.6
888.219	2834.6
893.478	2836.6
898.731	2756.6
903.979	2727.6
909.221	2727.6
914.458	2713.6
919.69	2689.6
924.916	2684.6
930.136	2716.6
935.351	2696.6
940.561	2715.6
945.766	2700.6
950.965	2687.6
956.158	2659.6
961.347	2611.6
966.529	2614.6
971.707	2559.6
976.879	2527.6
982.046	2491.6
987.208	2501.6
992.364	2519.6
997.515	2502.6
1002.66	2534.6
1007.801	2558.6
1012.936	2579.6
1018.066	2582.6
1023.19	2572.6
1028.309	2561.6
1033.423	2577.6
1038.532	2592.6
1043.636	2555.6
1048.734	2527.6
1053.827	2509.6
1058.915	2464.6
1063.998	2453.6
1069.075	2447.6
1074.147	2449.6
1079.214	2468.6
1084.276	2463.6
1089.333	2473.6
1094.385	2497.6
1099.431	2478.6
1104.472	2496.6
1109.509	2461.6
1114.54	2417.6
1119.565	2396.6
1124.586	2351.6
1129.602	2332.6
1134.613	2312.6
1139.618	2298.6
1144.619	2294.6
1149.614	2278.6
1154.604	2312.6
1159.589	2302.6
1164.57	2308.6
1169.545	2321.6
1174.515	2322.6
1179.48	2286.6
1184.44	2288.6
1189.395	2283.6
1194.345	2244.6
1199.29	2237.6
1204.23	2230.6
1209.165	2260.6
1214.095	2269.6
1219.021	2260.6
1223.941	2268.6
1228.856	2273.6
1233.766	2275.6
1238.672	2267.6
1243.572	2265.6
1248.467	2278.6
1253.358	2236.6
1258.244	2231.6
1263.124	2186.6
1268	2141.6
1272.871	2129.6
1277.737	2101.6
1282.599	2092.6
1287.455	2090.6
1292.306	2070.6
1297.153	2115.6
1301.995	2103.6
1306.832	2120.6
1311.664	2142.6
1316.491	2142.6
1321.314	2130.6
1326.132	2121.6
1330.945	2101.6
1335.753	2061.6
1340.556	2033.6
1345.354	2019.6
1350.148	1966.6
1354.937	1948.6
1359.722	1898.6
1364.501	1887.6
1369.276	1824.6
1374.046	1803.6
1378.811	1805.6
1383.572	1780.6
1388.327	1788.6
1393.079	1776.6
1397.825	1780.6
1402.567	1779.6
1407.304	1784.6
1412.036	1799.6
1416.764	1793.6
1421.487	1799.6
1426.205	1806.6
1430.919	1799.6
1435.628	1832.6
1440.333	1821.6
1445.032	1848.6
1449.727	1856.6
1454.418	1875.6
1459.104	1887.6
1463.785	1855.6
1468.462	1815.6
1473.134	1776.6
1477.802	1746.6
1482.465	1702.6
1487.123	1659.6
1491.777	1645.6
1496.426	1634.6
1501.071	1618.6
1505.711	1603.6
1510.347	1603.6
1514.978	1600.6
1519.604	1590.6
1524.226	1582.6
1528.844	1585.6
1533.457	1553.6
1538.065	1551.6
1542.669	1553.6
1547.269	1559.6
1551.864	1564.6
1556.454	1583.6
1561.041	1573.6
1565.622	1595.6
1570.199	1575.6
1574.772	1610.6
1579.34	1643.6
1583.904	1655.6
1588.464	1663.6
1593.019	1676.6
1597.569	1678.6
1602.115	1659.6
1606.657	1660.6
1611.195	1655.6
1615.728	1643.6
1620.256	1661.6
1624.78	1644.6
1629.3	1655.6
1633.816	1659.6
1638.327	1668.6
1642.834	1656.6
1647.336	1681.6
1651.834	1667.6
1656.328	1688.6
1660.817	1665.6
1665.302	1671.6
1669.783	1645.6
1674.259	1583.6
1678.732	1547.6
1683.199	1511.6
1687.663	1461.6
1692.122	1411.6
1696.577	1363.6
1701.028	1293.6
1705.474	1253.6
1709.917	1213.6
1714.355	1196.6
1718.788	1188.6
1723.218	1168.6
1727.643	1200.6
1732.064	1168.6
1736.481	1179.6
1740.893	1142.6
1745.301	1130.6
1749.705	1111.6
1754.105	1084.6
1758.501	1087.6
1762.893	1053.6
1767.28	1041.6
1771.663	1030.6
1776.042	1023.6
1780.417	1003.6
1784.787	980.6
1789.154	978.6
1793.516	979.6
1797.874	964.6
1802.228	934.6
1806.578	932.6
1810.924	917.6
1815.266	913.6
1819.603	909.6
1823.937	905.6
1828.266	914.6
1832.591	906.6
1836.913	909.6
1841.23	932.6
1845.543	913.6
1849.852	911.6
1854.156	924.6
1858.457	918.6
1862.754	922.6
1867.047	912.6
1871.335	923.6
1875.62	925.6
1879.9	913.6
1884.177	911.6
1888.449	892.6
1892.718	882.6
1896.982	871.6
1901.243	876.6
1905.499	863.6
1909.752	834.6
1914	829.6
1918.245	834.6
1922.485	817.6
1926.722	811.6
1930.954	806.6
1935.183	805.6
1939.408	789.6
1943.628	781.6
1947.845	788.6
1952.058	777.6
1956.267	773.6
1960.472	750.6
1964.673	744.6
1968.87	741.6
1973.063	739.6
1977.252	726.6
1981.438	733.6
1985.619	746.6
1989.797	728.6
1993.971	744.6
1998.14	744.6
2002.306	736.6
2006.469	758.6
2010.627	751.6
2014.781	750.6
2018.932	746.6
2023.078	749.6
2027.221	738.6
2031.36	730.6
2035.495	726.6
2039.627	712.6
2043.754	690.6
2047.878	698.6
2051.998	691.6
2056.114	674.6
2060.226	687.6
2064.334	694.6
2068.439	676.6
2072.54	673.6
2076.637	683.6
2080.73	673.6
2084.82	663.6
2088.906	663.6
2092.988	666.6
2097.066	647.6
2101.14	642.6
2105.211	626.6
2109.278	618.6
2113.342	626.6
2117.401	605.6
2121.457	610.6
2125.509	605.6
2129.558	597.6
2133.602	607.6
2137.643	597.6
2141.681	594.6
2145.714	593.6
2149.744	604.6
2153.77	600.6
2157.793	584.6
2161.812	601.6
2165.827	584.6
2169.838	588.6
2173.846	567.6
2177.851	561.6
2181.851	561.6
2185.848	547.6
2189.841	551.6
2193.831	546.6
2197.817	541.6
2201.799	529.6
2205.778	533.6
2209.753	525.6
2213.725	535.6
2217.693	534.6
2221.657	526.6
2225.618	536.6
2229.575	523.6
2233.529	517.6
2237.479	524.6
2241.425	514.6
2245.368	508.6
2249.307	500.6
2253.243	490.6
2257.175	487.6
2261.104	472.6
2265.029	467.6
2268.95	470.6
2272.868	456.6
2276.783	446.6
2280.694	446.6
2284.601	460.6
2288.505	448.6
2292.405	427.6
2296.302	432.6
2300.195	424.6
2304.085	407.6
2307.971	414.6
2311.854	416.6
2315.734	391.6
2319.609	406.6
2323.482	381.6
2327.351	405.6
2331.216	407.6
2335.078	414.6
2338.937	410.6
2342.792	386.6
2346.643	382.6
2350.492	382.6
2354.336	384.6
2358.178	378.6
2362.015	385.6
2365.85	389.6
2369.681	386.6
2373.508	386.6
2377.333	382.6
2381.153	391.6
2384.971	392.6
2388.785	384.6
2392.595	370.6
2396.402	367.6
2400.206	383.6
2404.007	366.6
2407.804	368.6
2411.597	371.6
2415.388	364.6
2419.174	370.6
2422.958	352.6
2426.738	361.6
2430.515	363.6
2434.289	352.6
2438.059	358.6
2441.825	351.6
2445.589	354.6
2449.349	339.6
2453.106	341.6
2456.859	336.6
2460.61	327.6
2464.356	324.6
2468.1	320.6
2471.84	319.6
2475.577	319.6
2479.311	309.6
2483.041	318.6
2486.768	305.6
2490.492	300.6
2494.213	316.6
2497.93	306.6
2501.644	300.6
2505.355	294.6
2509.062	295.6
2512.766	286.6
2516.467	286.6
2520.165	283.6
2523.859	279.6
2527.551	282.6
2531.239	261.6
2534.923	265.6
2538.605	270.6
2542.283	259.6
2545.958	258.6
2549.63	264.6
2553.299	256.6
2556.964	253.6
2560.626	245.6
2564.285	253.6
2567.941	246.6
2571.594	246.6
2575.243	246.6
2578.89	237.6
2582.533	240.6
2586.173	221.6
2589.809	222.6
2593.443	226.6
2597.073	217.6
2600.701	216.6
2604.325	218.6
2607.946	217.6
2611.564	215.6
2615.178	220.6
2618.79	208.6
2622.398	207.6
2626.004	209.6
2629.606	207.6
2633.205	193.6
2636.801	204.6
2640.394	201.6
2643.983	195.6
2647.57	200.6
2651.153	196.6
2654.734	187.6
2658.311	181.6
2661.885	185.6
2665.456	193.6
2669.025	197.6
2672.589	186.6
2676.151	184.6
2679.71	176.6
2683.266	174.6
2686.819	166.6
2690.368	175.6
2693.915	161.6
2697.458	168.6
2700.999	161.6
2704.536	155.6
2708.071	148.6
2711.602	150.6
2715.13	145.6
2718.656	136.6
2722.178	146.6
2725.697	140.6
2729.214	139.6
2732.727	143.6
2736.237	149.6
2739.744	140.6
2743.249	131.6
2746.75	132.6
2750.248	122.6
2753.743	120.6
2757.236	120.6
2760.725	122.6
2764.211	105.6
2767.695	116.6
2771.175	101.6
2774.652	109.6
2778.127	107.6
2781.598	108.6
2785.067	112.6
2788.532	113.6
2791.995	107.6
2795.455	106.6
2798.911	107.6
2802.365	114.6
2805.816	123.6
2809.264	111.6
2812.709	121.6
2816.151	112.6
2819.59	118.6
2823.026	108.6
2826.46	110.6
2829.89	112.6
2833.318	112.6
2836.742	119.6
2840.164	118.6
2843.583	108.6
2846.999	117.6
2850.412	115.6
2853.822	108.6
2857.229	109.6
2860.634	123.6
2864.035	126.6
2867.434	128.6
2870.83	133.6
2874.223	144.6
2877.613	149.6
2881	150.6
2884.385	148.6
2887.766	144.6
2891.145	145.6
2894.521	158.6
2897.894	161.6
2901.264	151.6
2904.631	158.6
2907.996	158.6
2911.358	158.6
2914.717	161.6
2918.073	166.6
2921.426	163.6
2924.777	172.6
2928.124	181.6
2931.469	181.6
2934.811	180.6
2938.15	188.6
2941.487	192.6
2944.821	184.6
2948.152	183.6
2951.48	182.6
2954.805	190.6
2958.128	188.6
2961.447	165.6
2964.765	188.6
2968.079	176.6
2971.39	175.6
2974.699	181.6
2978.005	181.6
2981.308	182.6
2984.609	190.6
2987.907	183.6
2991.202	182.6
2994.494	178.6
2997.784	183.6
3001.07	191.6
3004.355	194.6
3007.636	197.6
3010.915	194.6
3014.191	189.6
3017.464	205.6
3020.734	189.6
3024.002	194.6
3027.267	211.6
3030.53	219.6
3033.789	215.6
3037.046	222.6
3040.301	223.6
3043.552	241.6
3046.801	238.6
3050.048	258.6
3053.291	252.6
3056.532	270.6
3059.771	284.6
3063.006	280.6
3066.239	293.6
3069.469	298.6
3072.697	304.6
3075.922	330.6
3079.144	333.6
3082.364	335.6
3085.581	341.6
3088.795	348.6
3092.007	359.6
3095.216	358.6
3098.423	381.6
3101.627	386.6
3104.828	398.6
3108.026	400.6
3111.222	401.6
3114.416	418.6
3117.607	430.6
3120.795	430.6
3123.98	441.6
3127.163	443.6
3130.344	481.6
3133.521	472.6
3136.696	483.6
3139.869	488.6
3143.039	495.6
3146.206	515.6
3149.371	526.6
3152.533	528.6
3155.693	530.6
3158.85	523.6
3162.005	529.6
3165.157	528.6
3168.306	548.6
3171.453	539.6
3174.597	546.6
3177.739	549.6
3180.878	550.6
3184.014	564.6
3187.149	555.6
3190.28	549.6
3193.409	552.6
3196.536	555.6
3199.659	552.6
3202.781	560.6
3205.9	569.6
3209.016	569.6
3212.13	560.6
3215.241	555.6
3218.35	543.6
3221.456	549.6
3224.56	534.6
3227.661	538.6
3230.76	534.6
3233.856	523.6
3236.95	504.6
3240.041	505.6
3243.13	490.6
3246.216	485.6
3249.3	463.6
3252.382	484.6
3255.46	475.6
3258.537	471.6
3261.611	462.6
3264.682	454.6
3267.751	448.6
3270.818	445.6
3273.882	447.6
3276.943	435.6
3280.002	442.6
3283.059	430.6
3286.113	443.6
3289.165	434.6
3292.214	418.6
3295.261	421.6
3298.306	411.6
3301.348	412.6
3304.387	409.6
3307.425	402.6
3310.459	398.6
3313.492	388.6
3316.521	380.6
3319.549	396.6
3322.574	379.6
3325.597	370.6
3328.617	384.6
3331.635	391.6
3334.65	378.6
3337.663	368.6
3340.674	381.6
3343.682	365.6
3346.688	374.6
3349.691	373.6
3352.692	370.6
3355.691	370.6
3358.687	368.6
3361.681	356.6
3364.673	358.6
3367.662	348.6
3370.649	350.6
3373.633	330.6
3376.615	334.6
3379.595	327.6
3382.572	324.6
3385.547	318.6
3388.52	305.6
3391.49	312.6
3394.458	310.6
3397.424	296.6
3400.387	288.6
3403.348	277.6
3406.307	276.6
3409.263	278.6
3412.217	273.6
3415.168	274.6
3418.118	273.6
3421.065	268.6
3424.009	258.6
3426.951	251.6
3429.891	245.6
3432.829	237.6
3435.764	233.6
3438.697	227.6
3441.628	223.6
3444.557	212.6
3447.483	205.6
3450.407	199.6
3453.328	176.6
3456.247	175.6
3459.164	171.6
3462.079	163.6
3464.991	142.6
3467.902	151.6
3470.809	154.6
3473.715	134.6
3476.618	127.6
3479.519	115.6
3482.418	115.6
3485.315	99.6
3488.209	91.6
3491.101	96.6
3493.99	104.6
3496.878	95.6
3499.763	79.6
3502.646	77.6
3505.527	65.6
3508.405	65.6
3511.281	53.6
3514.155	56.6
3517.027	49.6
3519.897	41.6
3522.764	31.6
3525.629	24.6
3528.492	15.6
3531.352	14.6
3534.211	10.6
3537.067	9.6
3539.921	4.6
3542.773	1.6
3545.622	-10.4
3548.469	-12.4
3551.315	-11.4
3554.157	-17.4
3556.998	-28.4
3559.837	-26.4
3562.673	-35.4
3565.507	-29.4
3568.339	-31.4
3571.169	-43.4
3573.996	-40.4
3576.822	-42.4
3579.645	-45.4
3582.466	-46.4
3585.285	-59.4
3588.101	-45.4
3590.916	-58.4
3593.728	-60.4
3596.538	-60.4
3599.346	-67.4
3602.152	-65.4
3604.956	-70.4
3607.757	-64.4
3610.556	-76.4
3613.354	-69.4
3616.149	-81.4
3618.942	-81.4
3621.732	-77.4
3624.521	-81.4
3627.307	-84.4
3630.092	-80.4
3632.874	-82.4
3635.654	-89.4
3638.432	-86.4
3641.208	-89.4
3643.982	-94.4
3646.753	-95.4
3649.523	-99.4
3652.29	-97.4
3655.055	-97.4
3657.818	-103.4
3660.579	-103.4
3663.338	-100.4
3666.095	-103.4
3668.849	-106.4
3671.602	-109.4
3674.352	-105.4
3677.101	-109.4
3679.847	-111.4
3682.591	-116.4
3685.333	-110.4
3688.073	-109.4
3690.811	-113.4
3693.547	-118.4
3696.281	-113.4
3699.013	-113.4
3701.742	-114.4
3704.47	-113.4
3707.195	-111.4
3709.919	-122.4
3712.64	-119.4
3715.359	-123.4
3718.076	-117.4
3720.792	-120.4
3723.505	-122.4
3726.216	-119.4
3728.925	-129.4
3731.632	-123.4
3734.336	-129.4
3737.039	-118.4
3739.74	-125.4
3742.439	-132.4
3745.136	-117.4
3747.83	-132.4
3750.523	-123.4
3753.213	-125.4
3755.902	-123.4
3758.589	-127.4
3761.273	-126.4
3763.956	-124.4
3766.636	-129.4
3769.315	-126.4
3771.991	-127.4
3774.665	-127.4
3777.338	-122.4
3780.008	-124.4
3782.677	-129.4
3785.343	-123.4
3788.007	-134.4
3790.67	-128.4
3793.33	-128.4
3795.989	-130.4
3798.645	-129.4
3801.299	-133.4
3803.952	-130.4
3806.602	-121.4
3809.251	-131.4
3811.897	-133.4
3814.542	-135.4
3817.184	-128.4
3819.825	-128.4
3822.463	-128.4
3825.1	-123.4
3827.735	-125.4
3830.367	-134.4
3832.998	-131.4
3835.627	-127.4
3838.253	-133.4
3840.878	-130.4
3843.501	-126.4
3846.122	-130.4
3848.741	-132.4
3851.358	-124.4
3853.973	-134.4
3856.586	-133.4
3859.197	-135.4
3861.806	-130.4
3864.414	-133.4
3867.019	-126.4
3869.622	-135.4
3872.224	-117.4
3874.823	-105.4
3877.421	-91.4
3880.016	-57.4
3882.61	-31.4
3885.202	-32.4
3887.792	-48.4
3890.38	-87.4
3892.966	-110.4
3895.55	-119.4
3898.132	-126.4
3900.713	-127.4
3903.291	-133.4
3905.868	-134.4
3908.442	-134.4
3911.015	-133.4
3913.586	-129.4
3916.155	-135.4
3918.722	-131.4
3921.287	-132.4
3923.85	-138.4
3926.411	-132.4
3928.971	-132.4
3931.528	-134.4
3934.084	-135.4
3936.638	-129.4
3939.19	-135.4
3941.74	-135.4
3944.288	-134.4
3946.834	-130.4
3949.378	-130.4
3951.921	-132.4
3954.462	-141.4
3957	-133.4
3959.537	-127.4
3962.072	-133.4
3964.606	-127.4
3967.137	-131.4
3969.667	-138.4
3972.194	-140.4
3974.72	-134.4
3977.244	-136.4
3979.766	-132.4
3982.286	-128.4
3984.805	-130.4
3987.321	-126.4
3989.836	-127.4
3992.349	-136.4
3994.86	-134.4
3997.369	-130.4
3999.877	-128.4
4002.382	-129.4
4004.886	-133.4
4007.388	-131.4
4009.888	-126.4
4012.386	-137.4
4014.883	-133.4
4017.377	-132.4
4019.87	-130.4
4022.361	-131.4
4024.85	-134.4
4027.338	-131.4
4029.823	-130.4
4032.307	-131.4
4034.789	-131.4
4037.269	-137.4
4039.747	-127.4
4042.224	-129.4
4044.699	-136.4
4047.172	-125.4
4049.643	-128.4
4052.112	-131.4
4054.58	-132.4
4057.046	-129.4
4059.51	-136.4
4061.972	-128.4
4064.432	-127.4
4066.891	-130.4
4069.348	-127.4
4071.803	-134.4
4074.256	-133.4
4076.708	-132.4
4079.158	-129.4
4081.606	-129.4
4084.052	-130.4
4086.497	-128.4
4088.939	-124.4
4091.38	-129.4
4093.819	-135.4
4096.257	-135.4
4098.693	-133.4
4101.127	-136.4
4103.559	-134.4
4105.989	26.6
4108.418	14.6
4110.845	17.6
4113.27	13.6
4115.694	6.6
4118.115	11.6
4120.535	-135.4
4122.954	-133.4
4125.37	-127.4
4127.785	-130.4
4130.198	-127.4
4132.609	-126.4
4135.019	-141.4
4137.427	-142.4
4139.833	-138.4
4142.237	-141.4
