Data from 2018-2-8_conc=5_n=4_RamanShift_02.txt Node
Date: Mon Mar 12 16:00:58 IST 2018
User: aro
Spectrometer: QEPB0276
Trigger mode: 0
Integration Time (sec): 3.000000E1
Scans to average: 1
Electric dark correction enabled: true
Nonlinearity correction enabled: false
Boxcar width: 0
XAxis mode: Raman Shifts
Number of Pixels in Spectrum: 1044
>>>>>Begin Spectral Data<<<<<
160.701	27.2
166.742	44.2
172.777	114.2
178.805	324.2
184.826	882.2
190.841	1880.2
196.849	3121.2
202.85	4088.2
208.845	4427.2
214.833	4452.2
220.815	4356.2
226.789	4355.2
232.758	4343.2
238.719	4347.2
244.674	4322.2
250.623	4294.2
256.565	4203.2
262.5	4152.2
268.429	4112.2
274.351	4028.2
280.267	4056.2
286.176	4016.2
292.079	4011.2
297.975	3987.2
303.865	3988.2
309.748	3969.2
315.625	3965.2
321.495	3946.2
327.359	3934.2
333.217	3940.2
339.068	3926.2
344.912	3971.2
350.751	3952.2
356.583	3995.2
362.408	3995.2
368.227	3984.2
374.04	3989.2
379.847	4014.2
385.647	4046.2
391.44	4045.2
397.228	4074.2
403.009	4113.2
408.784	4120.2
414.553	4124.2
420.315	4146.2
426.071	4167.2
431.821	4156.2
437.565	4139.2
443.302	4159.2
449.033	4109.2
454.758	4109.2
460.477	4088.2
466.189	4044.2
471.896	4022.2
477.596	4002.2
483.29	3987.2
488.978	3993.2
494.66	3935.2
500.335	3906.2
506.005	3765.2
511.668	3626.2
517.325	3499.2
522.977	3404.2
528.622	3311.2
534.261	3267.2
539.894	3211.2
545.521	3206.2
551.141	3163.2
556.756	3114.2
562.365	3127.2
567.968	3075.2
573.565	3065.2
579.155	3048.2
584.74	3029.2
590.319	3040.2
595.892	3027.2
601.459	2992.2
607.02	3012.2
612.575	3001.2
618.124	2964.2
623.667	2930.2
629.204	2879.2
634.735	2877.2
640.261	2859.2
645.781	2833.2
651.294	2825.2
656.802	2821.2
662.304	2801.2
667.8	2800.2
673.29	2792.2
678.775	2809.2
684.254	2772.2
689.726	2765.2
695.193	2745.2
700.655	2755.2
706.11	2732.2
711.56	2734.2
717.004	2723.2
722.442	2677.2
727.874	2668.2
733.301	2655.2
738.722	2640.2
744.137	2655.2
749.547	2655.2
754.951	2647.2
760.349	2628.2
765.741	2612.2
771.128	2655.2
776.509	2678.2
781.885	2681.2
787.254	2729.2
792.618	2731.2
797.977	2701.2
803.33	2682.2
808.677	2685.2
814.019	2660.2
819.355	2627.2
824.686	2613.2
830.011	2585.2
835.33	2604.2
840.644	2588.2
845.952	2564.2
851.255	2582.2
856.552	2572.2
861.844	2545.2
867.13	2530.2
872.41	2504.2
877.686	2492.2
882.955	2457.2
888.219	2424.2
893.478	2422.2
898.731	2385.2
903.979	2317.2
909.221	2322.2
914.458	2305.2
919.69	2316.2
924.916	2298.2
930.136	2342.2
935.351	2314.2
940.561	2312.2
945.766	2319.2
950.965	2312.2
956.158	2308.2
961.347	2261.2
966.529	2233.2
971.707	2223.2
976.879	2202.2
982.046	2181.2
987.208	2157.2
992.364	2144.2
997.515	2157.2
1002.66	2169.2
1007.801	2212.2
1012.936	2228.2
1018.066	2229.2
1023.19	2219.2
1028.309	2233.2
1033.423	2244.2
1038.532	2230.2
1043.636	2209.2
1048.734	2181.2
1053.827	2162.2
1058.915	2149.2
1063.998	2117.2
1069.075	2096.2
1074.147	2128.2
1079.214	2117.2
1084.276	2136.2
1089.333	2144.2
1094.385	2130.2
1099.431	2152.2
1104.472	2135.2
1109.509	2098.2
1114.54	2096.2
1119.565	2058.2
1124.586	2033.2
1129.602	2014.2
1134.613	2003.2
1139.618	1974.2
1144.619	1978.2
1149.614	1998.2
1154.604	1994.2
1159.589	1993.2
1164.57	1992.2
1169.545	2017.2
1174.515	2017.2
1179.48	2000.2
1184.44	1999.2
1189.395	1954.2
1194.345	1967.2
1199.29	1941.2
1204.23	1952.2
1209.165	1940.2
1214.095	1948.2
1219.021	1972.2
1223.941	1969.2
1228.856	1982.2
1233.766	2001.2
1238.672	1980.2
1243.572	1985.2
1248.467	1968.2
1253.358	1952.2
1258.244	1915.2
1263.124	1877.2
1268	1842.2
1272.871	1836.2
1277.737	1821.2
1282.599	1820.2
1287.455	1799.2
1292.306	1796.2
1297.153	1817.2
1301.995	1836.2
1306.832	1843.2
1311.664	1862.2
1316.491	1881.2
1321.314	1873.2
1326.132	1856.2
1330.945	1812.2
1335.753	1813.2
1340.556	1767.2
1345.354	1748.2
1350.148	1751.2
1354.937	1706.2
1359.722	1662.2
1364.501	1640.2
1369.276	1618.2
1374.046	1604.2
1378.811	1568.2
1383.572	1562.2
1388.327	1542.2
1393.079	1571.2
1397.825	1563.2
1402.567	1547.2
1407.304	1551.2
1412.036	1567.2
1416.764	1572.2
1421.487	1570.2
1426.205	1581.2
1430.919	1593.2
1435.628	1589.2
1440.333	1589.2
1445.032	1609.2
1449.727	1636.2
1454.418	1637.2
1459.104	1635.2
1463.785	1616.2
1468.462	1570.2
1473.134	1543.2
1477.802	1517.2
1482.465	1495.2
1487.123	1456.2
1491.777	1452.2
1496.426	1444.2
1501.071	1438.2
1505.711	1419.2
1510.347	1415.2
1514.978	1414.2
1519.604	1401.2
1524.226	1401.2
1528.844	1406.2
1533.457	1375.2
1538.065	1386.2
1542.669	1389.2
1547.269	1378.2
1551.864	1387.2
1556.454	1390.2
1561.041	1407.2
1565.622	1410.2
1570.199	1419.2
1574.772	1416.2
1579.34	1442.2
1583.904	1477.2
1588.464	1471.2
1593.019	1481.2
1597.569	1488.2
1602.115	1475.2
1606.657	1481.2
1611.195	1470.2
1615.728	1477.2
1620.256	1464.2
1624.78	1453.2
1629.3	1463.2
1633.816	1473.2
1638.327	1481.2
1642.834	1503.2
1647.336	1510.2
1651.834	1509.2
1656.328	1499.2
1660.817	1493.2
1665.302	1470.2
1669.783	1455.2
1674.259	1424.2
1678.732	1400.2
1683.199	1348.2
1687.663	1329.2
1692.122	1271.2
1696.577	1238.2
1701.028	1171.2
1705.474	1152.2
1709.917	1104.2
1714.355	1077.2
1718.788	1067.2
1723.218	1068.2
1727.643	1068.2
1732.064	1062.2
1736.481	1045.2
1740.893	1024.2
1745.301	1020.2
1749.705	985.2
1754.105	968.2
1758.501	952.2
1762.893	943.2
1767.28	921.2
1771.663	915.2
1776.042	917.2
1780.417	916.2
1784.787	899.2
1789.154	880.2
1793.516	894.2
1797.874	869.2
1802.228	862.2
1806.578	849.2
1810.924	853.2
1815.266	838.2
1819.603	833.2
1823.937	825.2
1828.266	825.2
1832.591	833.2
1836.913	817.2
1841.23	837.2
1845.543	831.2
1849.852	819.2
1854.156	833.2
1858.457	822.2
1862.754	836.2
1867.047	820.2
1871.335	834.2
1875.62	828.2
1879.9	831.2
1884.177	839.2
1888.449	811.2
1892.718	810.2
1896.982	790.2
1901.243	783.2
1905.499	795.2
1909.752	760.2
1914	757.2
1918.245	759.2
1922.485	745.2
1926.722	740.2
1930.954	738.2
1935.183	731.2
1939.408	734.2
1943.628	735.2
1947.845	716.2
1952.058	716.2
1956.267	708.2
1960.472	713.2
1964.673	689.2
1968.87	673.2
1973.063	685.2
1977.252	674.2
1981.438	682.2
1985.619	686.2
1989.797	677.2
1993.971	673.2
1998.14	674.2
2002.306	671.2
2006.469	684.2
2010.627	676.2
2014.781	689.2
2018.932	691.2
2023.078	681.2
2027.221	664.2
2031.36	668.2
2035.495	646.2
2039.627	646.2
2043.754	640.2
2047.878	637.2
2051.998	638.2
2056.114	632.2
2060.226	620.2
2064.334	630.2
2068.439	629.2
2072.54	625.2
2076.637	620.2
2080.73	609.2
2084.82	625.2
2088.906	607.2
2092.988	616.2
2097.066	609.2
2101.14	601.2
2105.211	586.2
2109.278	584.2
2113.342	580.2
2117.401	571.2
2121.457	558.2
2125.509	549.2
2129.558	547.2
2133.602	558.2
2137.643	558.2
2141.681	556.2
2145.714	558.2
2149.744	559.2
2153.77	556.2
2157.793	548.2
2161.812	542.2
2165.827	538.2
2169.838	536.2
2173.846	526.2
2177.851	501.2
2181.851	507.2
2185.848	506.2
2189.841	497.2
2193.831	499.2
2197.817	496.2
2201.799	474.2
2205.778	480.2
2209.753	484.2
2213.725	489.2
2217.693	482.2
2221.657	478.2
2225.618	476.2
2229.575	485.2
2233.529	468.2
2237.479	471.2
2241.425	470.2
2245.368	449.2
2249.307	452.2
2253.243	435.2
2257.175	433.2
2261.104	427.2
2265.029	425.2
2268.95	431.2
2272.868	407.2
2276.783	409.2
2280.694	401.2
2284.601	396.2
2288.505	400.2
2292.405	396.2
2296.302	392.2
2300.195	386.2
2304.085	380.2
2307.971	370.2
2311.854	366.2
2315.734	352.2
2319.609	350.2
2323.482	362.2
2327.351	360.2
2331.216	373.2
2335.078	369.2
2338.937	356.2
2342.792	344.2
2346.643	346.2
2350.492	335.2
2354.336	351.2
2358.178	340.2
2362.015	336.2
2365.85	342.2
2369.681	340.2
2373.508	351.2
2377.333	345.2
2381.153	343.2
2384.971	345.2
2388.785	346.2
2392.595	334.2
2396.402	338.2
2400.206	332.2
2404.007	326.2
2407.804	335.2
2411.597	326.2
2415.388	324.2
2419.174	320.2
2422.958	325.2
2426.738	324.2
2430.515	320.2
2434.289	316.2
2438.059	319.2
2441.825	298.2
2445.589	302.2
2449.349	291.2
2453.106	303.2
2456.859	291.2
2460.61	294.2
2464.356	288.2
2468.1	278.2
2471.84	270.2
2475.577	278.2
2479.311	272.2
2483.041	272.2
2486.768	277.2
2490.492	266.2
2494.213	278.2
2497.93	277.2
2501.644	267.2
2505.355	256.2
2509.062	258.2
2512.766	256.2
2516.467	262.2
2520.165	264.2
2523.859	258.2
2527.551	248.2
2531.239	240.2
2534.923	238.2
2538.605	232.2
2542.283	238.2
2545.958	233.2
2549.63	228.2
2553.299	234.2
2556.964	234.2
2560.626	231.2
2564.285	217.2
2567.941	217.2
2571.594	217.2
2575.243	211.2
2578.89	207.2
2582.533	208.2
2586.173	206.2
2589.809	195.2
2593.443	202.2
2597.073	205.2
2600.701	192.2
2604.325	188.2
2607.946	200.2
2611.564	184.2
2615.178	190.2
2618.79	193.2
2622.398	191.2
2626.004	195.2
2629.606	186.2
2633.205	185.2
2636.801	172.2
2640.394	184.2
2643.983	168.2
2647.57	175.2
2651.153	175.2
2654.734	176.2
2658.311	165.2
2661.885	164.2
2665.456	166.2
2669.025	161.2
2672.589	159.2
2676.151	160.2
2679.71	167.2
2683.266	159.2
2686.819	160.2
2690.368	152.2
2693.915	146.2
2697.458	136.2
2700.999	145.2
2704.536	137.2
2708.071	134.2
2711.602	135.2
2715.13	138.2
2718.656	136.2
2722.178	130.2
2725.697	134.2
2729.214	128.2
2732.727	128.2
2736.237	127.2
2739.744	120.2
2743.249	123.2
2746.75	121.2
2750.248	111.2
2753.743	118.2
2757.236	111.2
2760.725	117.2
2764.211	104.2
2767.695	102.2
2771.175	100.2
2774.652	100.2
2778.127	109.2
2781.598	99.2
2785.067	101.2
2788.532	100.2
2791.995	103.2
2795.455	110.2
2798.911	99.2
2802.365	108.2
2805.816	105.2
2809.264	101.2
2812.709	110.2
2816.151	104.2
2819.59	108.2
2823.026	108.2
2826.46	103.2
2829.89	105.2
2833.318	102.2
2836.742	112.2
2840.164	92.2
2843.583	107.2
2846.999	110.2
2850.412	104.2
2853.822	114.2
2857.229	107.2
2860.634	115.2
2864.035	116.2
2867.434	118.2
2870.83	126.2
2874.223	127.2
2877.613	135.2
2881	145.2
2884.385	140.2
2887.766	134.2
2891.145	132.2
2894.521	134.2
2897.894	143.2
2901.264	143.2
2904.631	132.2
2907.996	143.2
2911.358	137.2
2914.717	149.2
2918.073	143.2
2921.426	151.2
2924.777	157.2
2928.124	162.2
2931.469	161.2
2934.811	170.2
2938.15	173.2
2941.487	174.2
2944.821	176.2
2948.152	172.2
2951.48	168.2
2954.805	174.2
2958.128	177.2
2961.447	171.2
2964.765	168.2
2968.079	170.2
2971.39	167.2
2974.699	177.2
2978.005	168.2
2981.308	175.2
2984.609	167.2
2987.907	174.2
2991.202	183.2
2994.494	176.2
2997.784	181.2
3001.07	187.2
3004.355	189.2
3007.636	197.2
3010.915	196.2
3014.191	193.2
3017.464	205.2
3020.734	187.2
3024.002	189.2
3027.267	214.2
3030.53	213.2
3033.789	211.2
3037.046	225.2
3040.301	223.2
3043.552	234.2
3046.801	235.2
3050.048	251.2
3053.291	254.2
3056.532	259.2
3059.771	267.2
3063.006	278.2
3066.239	296.2
3069.469	291.2
3072.697	312.2
3075.922	314.2
3079.144	327.2
3082.364	331.2
3085.581	345.2
3088.795	348.2
3092.007	356.2
3095.216	353.2
3098.423	361.2
3101.627	374.2
3104.828	381.2
3108.026	397.2
3111.222	402.2
3114.416	413.2
3117.607	416.2
3120.795	421.2
3123.98	423.2
3127.163	449.2
3130.344	462.2
3133.521	466.2
3136.696	467.2
3139.869	488.2
3143.039	487.2
3146.206	497.2
3149.371	501.2
3152.533	506.2
3155.693	514.2
3158.85	519.2
3162.005	537.2
3165.157	525.2
3168.306	535.2
3171.453	529.2
3174.597	526.2
3177.739	532.2
3180.878	533.2
3184.014	542.2
3187.149	552.2
3190.28	545.2
3193.409	545.2
3196.536	560.2
3199.659	558.2
3202.781	554.2
3205.9	570.2
3209.016	550.2
3212.13	551.2
3215.241	543.2
3218.35	550.2
3221.456	545.2
3224.56	522.2
3227.661	520.2
3230.76	515.2
3233.856	516.2
3236.95	507.2
3240.041	503.2
3243.13	479.2
3246.216	475.2
3249.3	464.2
3252.382	467.2
3255.46	468.2
3258.537	461.2
3261.611	459.2
3264.682	450.2
3267.751	455.2
3270.818	448.2
3273.882	438.2
3276.943	444.2
3280.002	434.2
3283.059	443.2
3286.113	433.2
3289.165	434.2
3292.214	428.2
3295.261	419.2
3298.306	415.2
3301.348	398.2
3304.387	395.2
3307.425	398.2
3310.459	394.2
3313.492	390.2
3316.521	378.2
3319.549	373.2
3322.574	369.2
3325.597	372.2
3328.617	380.2
3331.635	374.2
3334.65	377.2
3337.663	359.2
3340.674	370.2
3343.682	368.2
3346.688	354.2
3349.691	366.2
3352.692	357.2
3355.691	353.2
3358.687	361.2
3361.681	351.2
3364.673	343.2
3367.662	336.2
3370.649	340.2
3373.633	332.2
3376.615	330.2
3379.595	330.2
3382.572	314.2
3385.547	325.2
3388.52	313.2
3391.49	301.2
3394.458	300.2
3397.424	277.2
3400.387	289.2
3403.348	291.2
3406.307	280.2
3409.263	279.2
3412.217	272.2
3415.168	271.2
3418.118	267.2
3421.065	250.2
3424.009	256.2
3426.951	259.2
3429.891	256.2
3432.829	240.2
3435.764	236.2
3438.697	229.2
3441.628	208.2
3444.557	218.2
3447.483	199.2
3450.407	189.2
3453.328	186.2
3456.247	178.2
3459.164	167.2
3462.079	162.2
3464.991	156.2
3467.902	149.2
3470.809	155.2
3473.715	130.2
3476.618	130.2
3479.519	129.2
3482.418	122.2
3485.315	113.2
3488.209	102.2
3491.101	100.2
3493.99	104.2
3496.878	99.2
3499.763	86.2
3502.646	76.2
3505.527	73.2
3508.405	67.2
3511.281	60.2
3514.155	70.2
3517.027	60.2
3519.897	50.2
3522.764	39.2
3525.629	32.2
3528.492	27.2
3531.352	23.2
3534.211	14.2
3537.067	11.2
3539.921	12.2
3542.773	9.2
3545.622	-0.8
3548.469	-7.8
3551.315	-7.8
3554.157	-9.8
3556.998	-17.8
3559.837	-15.8
3562.673	-15.8
3565.507	-20.8
3568.339	-21.8
3571.169	-37.8
3573.996	-37.8
3576.822	-32.8
3579.645	-30.8
3582.466	-37.8
3585.285	-43.8
3588.101	-33.8
3590.916	-45.8
3593.728	-59.8
3596.538	-58.8
3599.346	-58.8
3602.152	-48.8
3604.956	-57.8
3607.757	-57.8
3610.556	-64.8
3613.354	-62.8
3616.149	-70.8
3618.942	-73.8
3621.732	-64.8
3624.521	-71.8
3627.307	-71.8
3630.092	-72.8
3632.874	-66.8
3635.654	-79.8
3638.432	-76.8
3641.208	-75.8
3643.982	-78.8
3646.753	-85.8
3649.523	-86.8
3652.29	-81.8
3655.055	-89.8
3657.818	-91.8
3660.579	-88.8
3663.338	-89.8
3666.095	-89.8
3668.849	-88.8
3671.602	-93.8
3674.352	-93.8
3677.101	-99.8
3679.847	-96.8
3682.591	-95.8
3685.333	-98.8
3688.073	-97.8
3690.811	-101.8
3693.547	-110.8
3696.281	-108.8
3699.013	-104.8
3701.742	-108.8
3704.47	-100.8
3707.195	-104.8
3709.919	-106.8
3712.64	-111.8
3715.359	-115.8
3718.076	-105.8
3720.792	-111.8
3723.505	-109.8
3726.216	-103.8
3728.925	-112.8
3731.632	-113.8
3734.336	-120.8
3737.039	-113.8
3739.74	-117.8
3742.439	-117.8
3745.136	-108.8
3747.83	-116.8
3750.523	-114.8
3753.213	-111.8
3755.902	-111.8
3758.589	-120.8
3761.273	-113.8
3763.956	-109.8
3766.636	-119.8
3769.315	-108.8
3771.991	-112.8
3774.665	-121.8
3777.338	-113.8
3780.008	-115.8
3782.677	-118.8
3785.343	-114.8
3788.007	-118.8
3790.67	-118.8
3793.33	-114.8
3795.989	-120.8
3798.645	-116.8
3801.299	-120.8
3803.952	-120.8
3806.602	-117.8
3809.251	-121.8
3811.897	-123.8
3814.542	-120.8
3817.184	-116.8
3819.825	-117.8
3822.463	-121.8
3825.1	-120.8
3827.735	-116.8
3830.367	-120.8
3832.998	-121.8
3835.627	-114.8
3838.253	-115.8
3840.878	-119.8
3843.501	-114.8
3846.122	-122.8
3848.741	-127.8
3851.358	-112.8
3853.973	-119.8
3856.586	-118.8
3859.197	-123.8
3861.806	-117.8
3864.414	-126.8
3867.019	-113.8
3869.622	-119.8
3872.224	-104.8
3874.823	-99.8
3877.421	-88.8
3880.016	-68.8
3882.61	-37.8
3885.202	-44.8
3887.792	-57.8
3890.38	-84.8
3892.966	-104.8
3895.55	-110.8
3898.132	-110.8
3900.713	-118.8
3903.291	-121.8
3905.868	-118.8
3908.442	-117.8
3911.015	-119.8
3913.586	-121.8
3916.155	-124.8
3918.722	-123.8
3921.287	-119.8
3923.85	-119.8
3926.411	-123.8
3928.971	-127.8
3931.528	-122.8
3934.084	-117.8
3936.638	-116.8
3939.19	-124.8
3941.74	-124.8
3944.288	-116.8
3946.834	-120.8
3949.378	-120.8
3951.921	-118.8
3954.462	-125.8
3957	-123.8
3959.537	-114.8
3962.072	-121.8
3964.606	-116.8
3967.137	-119.8
3969.667	-122.8
3972.194	-123.8
3974.72	-115.8
3977.244	-121.8
3979.766	-122.8
3982.286	-116.8
3984.805	-124.8
3987.321	-119.8
3989.836	-117.8
3992.349	-121.8
3994.86	-124.8
3997.369	-126.8
3999.877	-117.8
4002.382	-117.8
4004.886	-123.8
4007.388	-120.8
4009.888	-113.8
4012.386	-121.8
4014.883	-121.8
4017.377	-119.8
4019.87	-118.8
4022.361	-118.8
4024.85	-118.8
4027.338	-122.8
4029.823	-122.8
4032.307	-117.8
4034.789	-118.8
4037.269	-116.8
4039.747	-112.8
4042.224	-114.8
4044.699	-122.8
4047.172	-120.8
4049.643	-112.8
4052.112	-123.8
4054.58	-122.8
4057.046	-117.8
4059.51	-118.8
4061.972	-115.8
4064.432	-117.8
4066.891	-120.8
4069.348	-114.8
4071.803	-126.8
4074.256	-119.8
4076.708	-120.8
4079.158	-117.8
4081.606	-113.8
4084.052	-122.8
4086.497	-121.8
4088.939	-115.8
4091.38	-123.8
4093.819	-120.8
4096.257	-126.8
4098.693	-122.8
4101.127	-122.8
4103.559	-121.8
4105.989	23.2
4108.418	16.2
4110.845	7.2
4113.27	7.2
4115.694	7.2
4118.115	6.2
4120.535	-118.8
4122.954	-123.8
4125.37	-115.8
4127.785	-117.8
4130.198	-119.8
4132.609	-120.8
4135.019	-127.8
4137.427	-127.8
4139.833	-128.8
4142.237	-125.8
