Data from 2018-2-8_conc=3_n=3_RamanShift_03.txt Node
Date: Mon Mar 12 14:35:58 IST 2018
User: aro
Spectrometer: QEPB0276
Trigger mode: 0
Integration Time (sec): 3.000000E1
Scans to average: 1
Electric dark correction enabled: true
Nonlinearity correction enabled: false
Boxcar width: 0
XAxis mode: Raman Shifts
Number of Pixels in Spectrum: 1044
>>>>>Begin Spectral Data<<<<<
160.701	16.5
166.742	46.5
172.777	136.5
178.805	403.5
184.826	1118.5
190.841	2430.5
196.849	4059.5
202.85	5320.5
208.845	5816.5
214.833	5805.5
220.815	5719.5
226.789	5710.5
232.758	5721.5
238.719	5740.5
244.674	5654.5
250.623	5610.5
256.565	5552.5
262.5	5430.5
268.429	5374.5
274.351	5351.5
280.267	5299.5
286.176	5252.5
292.079	5231.5
297.975	5201.5
303.865	5158.5
309.748	5185.5
315.625	5152.5
321.495	5146.5
327.359	5129.5
333.217	5131.5
339.068	5132.5
344.912	5169.5
350.751	5169.5
356.583	5172.5
362.408	5155.5
368.227	5186.5
374.04	5207.5
379.847	5187.5
385.647	5224.5
391.44	5243.5
397.228	5245.5
403.009	5304.5
408.784	5309.5
414.553	5317.5
420.315	5348.5
426.071	5320.5
431.821	5338.5
437.565	5345.5
443.302	5349.5
449.033	5292.5
454.758	5329.5
460.477	5265.5
466.189	5206.5
471.896	5216.5
477.596	5176.5
483.29	5152.5
488.978	5182.5
494.66	5154.5
500.335	5094.5
506.005	4960.5
511.668	4831.5
517.325	4682.5
522.977	4630.5
528.622	4533.5
534.261	4462.5
539.894	4363.5
545.521	4339.5
551.141	4367.5
556.756	4296.5
562.365	4274.5
567.968	4232.5
573.565	4246.5
579.155	4177.5
584.74	4184.5
590.319	4179.5
595.892	4167.5
601.459	4158.5
607.02	4111.5
612.575	4093.5
618.124	4068.5
623.667	4037.5
629.204	4020.5
634.735	3958.5
640.261	3941.5
645.781	3931.5
651.294	3904.5
656.802	3909.5
662.304	3908.5
667.8	3882.5
673.29	3897.5
678.775	3880.5
684.254	3860.5
689.726	3842.5
695.193	3802.5
700.655	3786.5
706.11	3784.5
711.56	3750.5
717.004	3741.5
722.442	3717.5
727.874	3699.5
733.301	3676.5
738.722	3650.5
744.137	3667.5
749.547	3652.5
754.951	3678.5
760.349	3673.5
765.741	3672.5
771.128	3678.5
776.509	3683.5
781.885	3720.5
787.254	3719.5
792.618	3725.5
797.977	3682.5
803.33	3660.5
808.677	3641.5
814.019	3610.5
819.355	3614.5
824.686	3577.5
830.011	3572.5
835.33	3554.5
840.644	3546.5
845.952	3531.5
851.255	3502.5
856.552	3508.5
861.844	3525.5
867.13	3491.5
872.41	3444.5
877.686	3434.5
882.955	3390.5
888.219	3382.5
893.478	3346.5
898.731	3295.5
903.979	3284.5
909.221	3239.5
914.458	3224.5
919.69	3204.5
924.916	3247.5
930.136	3213.5
935.351	3231.5
940.561	3233.5
945.766	3232.5
950.965	3227.5
956.158	3200.5
961.347	3174.5
966.529	3098.5
971.707	3067.5
976.879	3042.5
982.046	3002.5
987.208	2990.5
992.364	3011.5
997.515	3026.5
1002.66	3018.5
1007.801	3056.5
1012.936	3074.5
1018.066	3074.5
1023.19	3087.5
1028.309	3103.5
1033.423	3081.5
1038.532	3066.5
1043.636	3054.5
1048.734	3023.5
1053.827	2967.5
1058.915	2940.5
1063.998	2927.5
1069.075	2898.5
1074.147	2913.5
1079.214	2903.5
1084.276	2916.5
1089.333	2921.5
1094.385	2963.5
1099.431	2941.5
1104.472	2929.5
1109.509	2912.5
1114.54	2895.5
1119.565	2857.5
1124.586	2832.5
1129.602	2788.5
1134.613	2771.5
1139.618	2735.5
1144.619	2732.5
1149.614	2724.5
1154.604	2735.5
1159.589	2756.5
1164.57	2776.5
1169.545	2757.5
1174.515	2755.5
1179.48	2747.5
1184.44	2729.5
1189.395	2671.5
1194.345	2675.5
1199.29	2666.5
1204.23	2669.5
1209.165	2681.5
1214.095	2682.5
1219.021	2719.5
1223.941	2708.5
1228.856	2703.5
1233.766	2726.5
1238.672	2730.5
1243.572	2723.5
1248.467	2716.5
1253.358	2672.5
1258.244	2630.5
1263.124	2597.5
1268	2554.5
1272.871	2520.5
1277.737	2502.5
1282.599	2513.5
1287.455	2488.5
1292.306	2487.5
1297.153	2506.5
1301.995	2519.5
1306.832	2534.5
1311.664	2559.5
1316.491	2548.5
1321.314	2552.5
1326.132	2541.5
1330.945	2522.5
1335.753	2449.5
1340.556	2416.5
1345.354	2390.5
1350.148	2354.5
1354.937	2297.5
1359.722	2272.5
1364.501	2247.5
1369.276	2214.5
1374.046	2166.5
1378.811	2144.5
1383.572	2125.5
1388.327	2131.5
1393.079	2139.5
1397.825	2124.5
1402.567	2135.5
1407.304	2128.5
1412.036	2125.5
1416.764	2131.5
1421.487	2146.5
1426.205	2130.5
1430.919	2140.5
1435.628	2160.5
1440.333	2169.5
1445.032	2194.5
1449.727	2207.5
1454.418	2218.5
1459.104	2222.5
1463.785	2184.5
1468.462	2125.5
1473.134	2101.5
1477.802	2046.5
1482.465	2015.5
1487.123	1954.5
1491.777	1956.5
1496.426	1928.5
1501.071	1894.5
1505.711	1894.5
1510.347	1895.5
1514.978	1883.5
1519.604	1901.5
1524.226	1887.5
1528.844	1892.5
1533.457	1859.5
1538.065	1840.5
1542.669	1853.5
1547.269	1847.5
1551.864	1855.5
1556.454	1886.5
1561.041	1881.5
1565.622	1907.5
1570.199	1898.5
1574.772	1921.5
1579.34	1941.5
1583.904	1962.5
1588.464	1997.5
1593.019	1996.5
1597.569	2001.5
1602.115	2005.5
1606.657	2006.5
1611.195	1976.5
1615.728	1952.5
1620.256	1969.5
1624.78	1968.5
1629.3	1959.5
1633.816	1963.5
1638.327	1977.5
1642.834	1990.5
1647.336	2013.5
1651.834	1988.5
1656.328	2000.5
1660.817	1986.5
1665.302	1977.5
1669.783	1933.5
1674.259	1886.5
1678.732	1852.5
1683.199	1804.5
1687.663	1740.5
1692.122	1692.5
1696.577	1617.5
1701.028	1559.5
1705.474	1496.5
1709.917	1448.5
1714.355	1412.5
1718.788	1401.5
1723.218	1399.5
1727.643	1408.5
1732.064	1399.5
1736.481	1403.5
1740.893	1354.5
1745.301	1331.5
1749.705	1316.5
1754.105	1284.5
1758.501	1265.5
1762.893	1246.5
1767.28	1247.5
1771.663	1214.5
1776.042	1208.5
1780.417	1193.5
1784.787	1176.5
1789.154	1168.5
1793.516	1165.5
1797.874	1141.5
1802.228	1131.5
1806.578	1102.5
1810.924	1093.5
1815.266	1089.5
1819.603	1097.5
1823.937	1087.5
1828.266	1085.5
1832.591	1084.5
1836.913	1085.5
1841.23	1096.5
1845.543	1104.5
1849.852	1095.5
1854.156	1082.5
1858.457	1107.5
1862.754	1074.5
1867.047	1086.5
1871.335	1087.5
1875.62	1074.5
1879.9	1092.5
1884.177	1080.5
1888.449	1054.5
1892.718	1022.5
1896.982	1033.5
1901.243	1018.5
1905.499	1002.5
1909.752	1003.5
1914	989.5
1918.245	976.5
1922.485	973.5
1926.722	944.5
1930.954	938.5
1935.183	946.5
1939.408	936.5
1943.628	942.5
1947.845	930.5
1952.058	908.5
1956.267	916.5
1960.472	906.5
1964.673	898.5
1968.87	887.5
1973.063	879.5
1977.252	880.5
1981.438	890.5
1985.619	865.5
1989.797	866.5
1993.971	870.5
1998.14	879.5
2002.306	883.5
2006.469	875.5
2010.627	891.5
2014.781	898.5
2018.932	883.5
2023.078	885.5
2027.221	875.5
2031.36	867.5
2035.495	861.5
2039.627	833.5
2043.754	822.5
2047.878	826.5
2051.998	822.5
2056.114	819.5
2060.226	812.5
2064.334	798.5
2068.439	803.5
2072.54	797.5
2076.637	810.5
2080.73	808.5
2084.82	800.5
2088.906	786.5
2092.988	774.5
2097.066	780.5
2101.14	772.5
2105.211	757.5
2109.278	733.5
2113.342	730.5
2117.401	720.5
2121.457	726.5
2125.509	724.5
2129.558	711.5
2133.602	720.5
2137.643	713.5
2141.681	718.5
2145.714	718.5
2149.744	706.5
2153.77	710.5
2157.793	702.5
2161.812	700.5
2165.827	692.5
2169.838	684.5
2173.846	681.5
2177.851	656.5
2181.851	650.5
2185.848	640.5
2189.841	639.5
2193.831	646.5
2197.817	628.5
2201.799	638.5
2205.778	641.5
2209.753	626.5
2213.725	636.5
2217.693	638.5
2221.657	621.5
2225.618	620.5
2229.575	615.5
2233.529	610.5
2237.479	625.5
2241.425	599.5
2245.368	586.5
2249.307	584.5
2253.243	572.5
2257.175	580.5
2261.104	563.5
2265.029	540.5
2268.95	552.5
2272.868	537.5
2276.783	537.5
2280.694	531.5
2284.601	535.5
2288.505	517.5
2292.405	504.5
2296.302	521.5
2300.195	509.5
2304.085	483.5
2307.971	467.5
2311.854	483.5
2315.734	465.5
2319.609	453.5
2323.482	456.5
2327.351	462.5
2331.216	467.5
2335.078	484.5
2338.937	462.5
2342.792	448.5
2346.643	446.5
2350.492	437.5
2354.336	438.5
2358.178	445.5
2362.015	447.5
2365.85	444.5
2369.681	444.5
2373.508	455.5
2377.333	444.5
2381.153	438.5
2384.971	447.5
2388.785	449.5
2392.595	422.5
2396.402	430.5
2400.206	437.5
2404.007	429.5
2407.804	426.5
2411.597	419.5
2415.388	415.5
2419.174	409.5
2422.958	413.5
2426.738	416.5
2430.515	403.5
2434.289	410.5
2438.059	408.5
2441.825	388.5
2445.589	403.5
2449.349	377.5
2453.106	383.5
2456.859	384.5
2460.61	381.5
2464.356	367.5
2468.1	366.5
2471.84	359.5
2475.577	359.5
2479.311	348.5
2483.041	343.5
2486.768	354.5
2490.492	346.5
2494.213	365.5
2497.93	346.5
2501.644	336.5
2505.355	331.5
2509.062	332.5
2512.766	336.5
2516.467	329.5
2520.165	319.5
2523.859	327.5
2527.551	311.5
2531.239	302.5
2534.923	293.5
2538.605	296.5
2542.283	295.5
2545.958	295.5
2549.63	286.5
2553.299	294.5
2556.964	297.5
2560.626	290.5
2564.285	282.5
2567.941	286.5
2571.594	285.5
2575.243	275.5
2578.89	268.5
2582.533	264.5
2586.173	253.5
2589.809	243.5
2593.443	251.5
2597.073	262.5
2600.701	244.5
2604.325	236.5
2607.946	249.5
2611.564	245.5
2615.178	241.5
2618.79	240.5
2622.398	247.5
2626.004	236.5
2629.606	234.5
2633.205	235.5
2636.801	226.5
2640.394	229.5
2643.983	229.5
2647.57	227.5
2651.153	217.5
2654.734	226.5
2658.311	210.5
2661.885	209.5
2665.456	221.5
2669.025	214.5
2672.589	203.5
2676.151	202.5
2679.71	197.5
2683.266	193.5
2686.819	204.5
2690.368	192.5
2693.915	189.5
2697.458	186.5
2700.999	193.5
2704.536	187.5
2708.071	170.5
2711.602	178.5
2715.13	175.5
2718.656	163.5
2722.178	166.5
2725.697	158.5
2729.214	156.5
2732.727	161.5
2736.237	156.5
2739.744	150.5
2743.249	151.5
2746.75	152.5
2750.248	146.5
2753.743	137.5
2757.236	137.5
2760.725	135.5
2764.211	123.5
2767.695	128.5
2771.175	122.5
2774.652	117.5
2778.127	129.5
2781.598	127.5
2785.067	131.5
2788.532	123.5
2791.995	134.5
2795.455	128.5
2798.911	127.5
2802.365	137.5
2805.816	140.5
2809.264	131.5
2812.709	140.5
2816.151	133.5
2819.59	127.5
2823.026	129.5
2826.46	127.5
2829.89	128.5
2833.318	134.5
2836.742	137.5
2840.164	136.5
2843.583	137.5
2846.999	126.5
2850.412	135.5
2853.822	136.5
2857.229	136.5
2860.634	146.5
2864.035	141.5
2867.434	154.5
2870.83	156.5
2874.223	156.5
2877.613	173.5
2881	182.5
2884.385	185.5
2887.766	165.5
2891.145	173.5
2894.521	180.5
2897.894	180.5
2901.264	185.5
2904.631	173.5
2907.996	183.5
2911.358	189.5
2914.717	179.5
2918.073	197.5
2921.426	200.5
2924.777	211.5
2928.124	211.5
2931.469	214.5
2934.811	220.5
2938.15	220.5
2941.487	228.5
2944.821	226.5
2948.152	231.5
2951.48	226.5
2954.805	230.5
2958.128	229.5
2961.447	216.5
2964.765	227.5
2968.079	219.5
2971.39	224.5
2974.699	234.5
2978.005	220.5
2981.308	223.5
2984.609	228.5
2987.907	225.5
2991.202	235.5
2994.494	237.5
2997.784	236.5
3001.07	244.5
3004.355	247.5
3007.636	256.5
3010.915	258.5
3014.191	256.5
3017.464	258.5
3020.734	252.5
3024.002	261.5
3027.267	274.5
3030.53	279.5
3033.789	280.5
3037.046	294.5
3040.301	291.5
3043.552	300.5
3046.801	317.5
3050.048	329.5
3053.291	334.5
3056.532	352.5
3059.771	370.5
3063.006	357.5
3066.239	383.5
3069.469	396.5
3072.697	400.5
3075.922	406.5
3079.144	425.5
3082.364	435.5
3085.581	446.5
3088.795	443.5
3092.007	460.5
3095.216	472.5
3098.423	482.5
3101.627	490.5
3104.828	490.5
3108.026	509.5
3111.222	527.5
3114.416	527.5
3117.607	545.5
3120.795	547.5
3123.98	559.5
3127.163	575.5
3130.344	610.5
3133.521	602.5
3136.696	621.5
3139.869	619.5
3143.039	649.5
3146.206	653.5
3149.371	662.5
3152.533	676.5
3155.693	681.5
3158.85	681.5
3162.005	685.5
3165.157	685.5
3168.306	687.5
3171.453	692.5
3174.597	703.5
3177.739	703.5
3180.878	698.5
3184.014	714.5
3187.149	706.5
3190.28	724.5
3193.409	721.5
3196.536	706.5
3199.659	742.5
3202.781	717.5
3205.9	736.5
3209.016	736.5
3212.13	729.5
3215.241	730.5
3218.35	716.5
3221.456	703.5
3224.56	698.5
3227.661	697.5
3230.76	691.5
3233.856	682.5
3236.95	666.5
3240.041	650.5
3243.13	641.5
3246.216	635.5
3249.3	629.5
3252.382	625.5
3255.46	622.5
3258.537	618.5
3261.611	612.5
3264.682	599.5
3267.751	598.5
3270.818	592.5
3273.882	587.5
3276.943	589.5
3280.002	570.5
3283.059	592.5
3286.113	572.5
3289.165	566.5
3292.214	566.5
3295.261	562.5
3298.306	556.5
3301.348	539.5
3304.387	526.5
3307.425	528.5
3310.459	535.5
3313.492	518.5
3316.521	506.5
3319.549	511.5
3322.574	505.5
3325.597	514.5
3328.617	491.5
3331.635	504.5
3334.65	499.5
3337.663	488.5
3340.674	502.5
3343.682	496.5
3346.688	481.5
3349.691	492.5
3352.692	488.5
3355.691	484.5
3358.687	475.5
3361.681	476.5
3364.673	470.5
3367.662	472.5
3370.649	462.5
3373.633	445.5
3376.615	433.5
3379.595	441.5
3382.572	421.5
3385.547	427.5
3388.52	421.5
3391.49	409.5
3394.458	408.5
3397.424	395.5
3400.387	378.5
3403.348	384.5
3406.307	375.5
3409.263	369.5
3412.217	374.5
3415.168	375.5
3418.118	363.5
3421.065	348.5
3424.009	341.5
3426.951	339.5
3429.891	329.5
3432.829	320.5
3435.764	311.5
3438.697	314.5
3441.628	301.5
3444.557	288.5
3447.483	280.5
3450.407	273.5
3453.328	245.5
3456.247	248.5
3459.164	235.5
3462.079	229.5
3464.991	219.5
3467.902	211.5
3470.809	211.5
3473.715	192.5
3476.618	174.5
3479.519	181.5
3482.418	170.5
3485.315	161.5
3488.209	156.5
3491.101	149.5
3493.99	154.5
3496.878	131.5
3499.763	117.5
3502.646	115.5
3505.527	117.5
3508.405	109.5
3511.281	93.5
3514.155	90.5
3517.027	87.5
3519.897	68.5
3522.764	64.5
3525.629	64.5
3528.492	54.5
3531.352	42.5
3534.211	39.5
3537.067	30.5
3539.921	29.5
3542.773	19.5
3545.622	11.5
3548.469	6.5
3551.315	6.5
3554.157	-1.5
3556.998	-7.5
3559.837	-15.5
3562.673	-16.5
3565.507	-20.5
3568.339	-23.5
3571.169	-36.5
3573.996	-34.5
3576.822	-36.5
3579.645	-35.5
3582.466	-40.5
3585.285	-47.5
3588.101	-41.5
3590.916	-56.5
3593.728	-65.5
3596.538	-61.5
3599.346	-60.5
3602.152	-62.5
3604.956	-67.5
3607.757	-62.5
3610.556	-70.5
3613.354	-76.5
3616.149	-82.5
3618.942	-88.5
3621.732	-82.5
3624.521	-77.5
3627.307	-81.5
3630.092	-82.5
3632.874	-86.5
3635.654	-95.5
3638.432	-91.5
3641.208	-95.5
3643.982	-96.5
3646.753	-95.5
3649.523	-98.5
3652.29	-97.5
3655.055	-101.5
3657.818	-102.5
3660.579	-104.5
3663.338	-105.5
3666.095	-111.5
3668.849	-107.5
3671.602	-109.5
3674.352	-104.5
3677.101	-114.5
3679.847	-113.5
3682.591	-118.5
3685.333	-118.5
3688.073	-117.5
3690.811	-120.5
3693.547	-131.5
3696.281	-123.5
3699.013	-124.5
3701.742	-126.5
3704.47	-124.5
3707.195	-129.5
3709.919	-125.5
3712.64	-127.5
3715.359	-131.5
3718.076	-124.5
3720.792	-128.5
3723.505	-129.5
3726.216	-132.5
3728.925	-137.5
3731.632	-132.5
3734.336	-138.5
3737.039	-133.5
3739.74	-137.5
3742.439	-134.5
3745.136	-128.5
3747.83	-138.5
3750.523	-136.5
3753.213	-148.5
3755.902	-138.5
3758.589	-142.5
3761.273	-133.5
3763.956	-132.5
3766.636	-137.5
3769.315	-132.5
3771.991	-134.5
3774.665	-138.5
3777.338	-133.5
3780.008	-138.5
3782.677	-139.5
3785.343	-132.5
3788.007	-141.5
3790.67	-138.5
3793.33	-130.5
3795.989	-141.5
3798.645	-139.5
3801.299	-139.5
3803.952	-151.5
3806.602	-136.5
3809.251	-150.5
3811.897	-141.5
3814.542	-143.5
3817.184	-140.5
3819.825	-139.5
3822.463	-144.5
3825.1	-150.5
3827.735	-138.5
3830.367	-145.5
3832.998	-144.5
3835.627	-140.5
3838.253	-138.5
3840.878	-139.5
3843.501	-138.5
3846.122	-145.5
3848.741	-146.5
3851.358	-139.5
3853.973	-146.5
3856.586	-138.5
3859.197	-145.5
3861.806	-140.5
3864.414	-146.5
3867.019	-138.5
3869.622	-144.5
3872.224	-128.5
3874.823	-122.5
3877.421	-110.5
3880.016	-86.5
3882.61	-66.5
3885.202	-64.5
3887.792	-85.5
3890.38	-116.5
3892.966	-134.5
3895.55	-139.5
3898.132	-138.5
3900.713	-138.5
3903.291	-145.5
3905.868	-143.5
3908.442	-144.5
3911.015	-144.5
3913.586	-142.5
3916.155	-146.5
3918.722	-143.5
3921.287	-142.5
3923.85	-147.5
3926.411	-147.5
3928.971	-143.5
3931.528	-150.5
3934.084	-145.5
3936.638	-142.5
3939.19	-151.5
3941.74	-147.5
3944.288	-142.5
3946.834	-139.5
3949.378	-146.5
3951.921	-152.5
3954.462	-155.5
3957	-149.5
3959.537	-142.5
3962.072	-142.5
3964.606	-136.5
3967.137	-139.5
3969.667	-148.5
3972.194	-150.5
3974.72	-145.5
3977.244	-150.5
3979.766	-142.5
3982.286	-142.5
3984.805	-144.5
3987.321	-142.5
3989.836	-137.5
3992.349	-144.5
3994.86	-144.5
3997.369	-142.5
3999.877	-146.5
4002.382	-138.5
4004.886	-145.5
4007.388	-134.5
4009.888	-136.5
4012.386	-142.5
4014.883	-146.5
4017.377	-143.5
4019.87	-146.5
4022.361	-145.5
4024.85	-147.5
4027.338	-142.5
4029.823	-140.5
4032.307	-139.5
4034.789	-146.5
4037.269	-143.5
4039.747	-139.5
4042.224	-141.5
4044.699	-146.5
4047.172	-138.5
4049.643	-136.5
4052.112	-141.5
4054.58	-145.5
4057.046	-148.5
4059.51	-144.5
4061.972	-140.5
4064.432	-142.5
4066.891	-138.5
4069.348	-140.5
4071.803	-148.5
4074.256	-144.5
4076.708	-147.5
4079.158	-141.5
4081.606	-137.5
4084.052	-142.5
4086.497	-141.5
4088.939	-137.5
4091.38	-144.5
4093.819	-145.5
4096.257	-154.5
4098.693	-146.5
4101.127	-147.5
4103.559	-145.5
4105.989	-5.5
4108.418	-8.5
4110.845	-11.5
4113.27	-10.5
4115.694	-12.5
4118.115	-8.5
4120.535	-144.5
4122.954	-150.5
4125.37	-142.5
4127.785	-141.5
4130.198	-140.5
4132.609	-145.5
4135.019	-148.5
4137.427	-152.5
4139.833	-152.5
4142.237	-149.5
