Data from 2018-2-8_conc=4_n=3_RamanShift_04.txt Node
Date: Mon Mar 12 15:16:28 IST 2018
User: aro
Spectrometer: QEPB0276
Trigger mode: 0
Integration Time (sec): 3.000000E1
Scans to average: 1
Electric dark correction enabled: true
Nonlinearity correction enabled: false
Boxcar width: 0
XAxis mode: Raman Shifts
Number of Pixels in Spectrum: 1044
>>>>>Begin Spectral Data<<<<<
160.701	13.2
166.742	45.2
172.777	133.2
178.805	407.2
184.826	1128.2
190.841	2415.2
196.849	4042.2
202.85	5284.2
208.845	5758.2
214.833	5754.2
220.815	5700.2
226.789	5675.2
232.758	5667.2
238.719	5670.2
244.674	5620.2
250.623	5567.2
256.565	5479.2
262.5	5415.2
268.429	5355.2
274.351	5300.2
280.267	5247.2
286.176	5201.2
292.079	5220.2
297.975	5192.2
303.865	5167.2
309.748	5145.2
315.625	5117.2
321.495	5101.2
327.359	5088.2
333.217	5087.2
339.068	5106.2
344.912	5133.2
350.751	5107.2
356.583	5117.2
362.408	5102.2
368.227	5122.2
374.04	5160.2
379.847	5160.2
385.647	5187.2
391.44	5196.2
397.228	5223.2
403.009	5238.2
408.784	5298.2
414.553	5287.2
420.315	5322.2
426.071	5312.2
431.821	5337.2
437.565	5325.2
443.302	5273.2
449.033	5274.2
454.758	5250.2
460.477	5233.2
466.189	5236.2
471.896	5195.2
477.596	5145.2
483.29	5141.2
488.978	5134.2
494.66	5104.2
500.335	5041.2
506.005	4915.2
511.668	4754.2
517.325	4643.2
522.977	4526.2
528.622	4486.2
534.261	4377.2
539.894	4340.2
545.521	4300.2
551.141	4300.2
556.756	4297.2
562.365	4263.2
567.968	4230.2
573.565	4211.2
579.155	4176.2
584.74	4139.2
590.319	4148.2
595.892	4139.2
601.459	4141.2
607.02	4064.2
612.575	4084.2
618.124	4044.2
623.667	4015.2
629.204	4000.2
634.735	3931.2
640.261	3928.2
645.781	3910.2
651.294	3907.2
656.802	3883.2
662.304	3854.2
667.8	3848.2
673.29	3861.2
678.775	3851.2
684.254	3823.2
689.726	3789.2
695.193	3815.2
700.655	3774.2
706.11	3759.2
711.56	3737.2
717.004	3723.2
722.442	3699.2
727.874	3678.2
733.301	3657.2
738.722	3637.2
744.137	3651.2
749.547	3655.2
754.951	3639.2
760.349	3649.2
765.741	3602.2
771.128	3647.2
776.509	3695.2
781.885	3715.2
787.254	3702.2
792.618	3697.2
797.977	3660.2
803.33	3645.2
808.677	3635.2
814.019	3582.2
819.355	3574.2
824.686	3542.2
830.011	3562.2
835.33	3510.2
840.644	3513.2
845.952	3520.2
851.255	3506.2
856.552	3487.2
861.844	3481.2
867.13	3467.2
872.41	3459.2
877.686	3417.2
882.955	3380.2
888.219	3360.2
893.478	3329.2
898.731	3272.2
903.979	3247.2
909.221	3206.2
914.458	3208.2
919.69	3184.2
924.916	3198.2
930.136	3194.2
935.351	3200.2
940.561	3209.2
945.766	3218.2
950.965	3203.2
956.158	3162.2
961.347	3140.2
966.529	3100.2
971.707	3052.2
976.879	3003.2
982.046	2978.2
987.208	2991.2
992.364	2987.2
997.515	2973.2
1002.66	3024.2
1007.801	3029.2
1012.936	3056.2
1018.066	3079.2
1023.19	3081.2
1028.309	3086.2
1033.423	3072.2
1038.532	3054.2
1043.636	3024.2
1048.734	2982.2
1053.827	2987.2
1058.915	2928.2
1063.998	2919.2
1069.075	2921.2
1074.147	2908.2
1079.214	2915.2
1084.276	2914.2
1089.333	2922.2
1094.385	2919.2
1099.431	2962.2
1104.472	2932.2
1109.509	2904.2
1114.54	2885.2
1119.565	2840.2
1124.586	2795.2
1129.602	2743.2
1134.613	2749.2
1139.618	2726.2
1144.619	2719.2
1149.614	2724.2
1154.604	2726.2
1159.589	2756.2
1164.57	2747.2
1169.545	2750.2
1174.515	2737.2
1179.48	2737.2
1184.44	2724.2
1189.395	2697.2
1194.345	2665.2
1199.29	2638.2
1204.23	2648.2
1209.165	2672.2
1214.095	2686.2
1219.021	2693.2
1223.941	2707.2
1228.856	2722.2
1233.766	2720.2
1238.672	2725.2
1243.572	2709.2
1248.467	2695.2
1253.358	2668.2
1258.244	2625.2
1263.124	2603.2
1268	2548.2
1272.871	2525.2
1277.737	2500.2
1282.599	2490.2
1287.455	2471.2
1292.306	2490.2
1297.153	2501.2
1301.995	2499.2
1306.832	2522.2
1311.664	2545.2
1316.491	2542.2
1321.314	2543.2
1326.132	2543.2
1330.945	2494.2
1335.753	2446.2
1340.556	2427.2
1345.354	2388.2
1350.148	2377.2
1354.937	2328.2
1359.722	2275.2
1364.501	2244.2
1369.276	2224.2
1374.046	2179.2
1378.811	2147.2
1383.572	2129.2
1388.327	2144.2
1393.079	2131.2
1397.825	2136.2
1402.567	2148.2
1407.304	2155.2
1412.036	2131.2
1416.764	2137.2
1421.487	2144.2
1426.205	2149.2
1430.919	2155.2
1435.628	2171.2
1440.333	2181.2
1445.032	2177.2
1449.727	2207.2
1454.418	2206.2
1459.104	2204.2
1463.785	2208.2
1468.462	2157.2
1473.134	2113.2
1477.802	2073.2
1482.465	2048.2
1487.123	1986.2
1491.777	1968.2
1496.426	1932.2
1501.071	1904.2
1505.711	1905.2
1510.347	1906.2
1514.978	1899.2
1519.604	1903.2
1524.226	1920.2
1528.844	1892.2
1533.457	1881.2
1538.065	1879.2
1542.669	1873.2
1547.269	1870.2
1551.864	1860.2
1556.454	1900.2
1561.041	1895.2
1565.622	1903.2
1570.199	1928.2
1574.772	1943.2
1579.34	1966.2
1583.904	1984.2
1588.464	2003.2
1593.019	1996.2
1597.569	2000.2
1602.115	2017.2
1606.657	2002.2
1611.195	1992.2
1615.728	1975.2
1620.256	1982.2
1624.78	1998.2
1629.3	1990.2
1633.816	1993.2
1638.327	2005.2
1642.834	2010.2
1647.336	2032.2
1651.834	2022.2
1656.328	2013.2
1660.817	2013.2
1665.302	2001.2
1669.783	1954.2
1674.259	1901.2
1678.732	1865.2
1683.199	1823.2
1687.663	1761.2
1692.122	1701.2
1696.577	1635.2
1701.028	1576.2
1705.474	1515.2
1709.917	1473.2
1714.355	1454.2
1718.788	1444.2
1723.218	1426.2
1727.643	1428.2
1732.064	1432.2
1736.481	1419.2
1740.893	1368.2
1745.301	1342.2
1749.705	1331.2
1754.105	1311.2
1758.501	1272.2
1762.893	1276.2
1767.28	1249.2
1771.663	1249.2
1776.042	1230.2
1780.417	1208.2
1784.787	1211.2
1789.154	1189.2
1793.516	1193.2
1797.874	1164.2
1802.228	1152.2
1806.578	1133.2
1810.924	1128.2
1815.266	1120.2
1819.603	1137.2
1823.937	1136.2
1828.266	1116.2
1832.591	1093.2
1836.913	1111.2
1841.23	1117.2
1845.543	1115.2
1849.852	1117.2
1854.156	1106.2
1858.457	1115.2
1862.754	1125.2
1867.047	1117.2
1871.335	1118.2
1875.62	1131.2
1879.9	1117.2
1884.177	1103.2
1888.449	1080.2
1892.718	1086.2
1896.982	1083.2
1901.243	1038.2
1905.499	1049.2
1909.752	1021.2
1914	1008.2
1918.245	1002.2
1922.485	998.2
1926.722	983.2
1930.954	971.2
1935.183	972.2
1939.408	957.2
1943.628	966.2
1947.845	961.2
1952.058	944.2
1956.267	930.2
1960.472	939.2
1964.673	919.2
1968.87	900.2
1973.063	910.2
1977.252	893.2
1981.438	908.2
1985.619	900.2
1989.797	899.2
1993.971	896.2
1998.14	912.2
2002.306	896.2
2006.469	894.2
2010.627	908.2
2014.781	913.2
2018.932	910.2
2023.078	912.2
2027.221	896.2
2031.36	881.2
2035.495	874.2
2039.627	875.2
2043.754	851.2
2047.878	853.2
2051.998	851.2
2056.114	847.2
2060.226	836.2
2064.334	831.2
2068.439	833.2
2072.54	826.2
2076.637	824.2
2080.73	817.2
2084.82	818.2
2088.906	820.2
2092.988	803.2
2097.066	800.2
2101.14	772.2
2105.211	782.2
2109.278	766.2
2113.342	752.2
2117.401	751.2
2121.457	750.2
2125.509	741.2
2129.558	738.2
2133.602	737.2
2137.643	749.2
2141.681	750.2
2145.714	726.2
2149.744	741.2
2153.77	747.2
2157.793	735.2
2161.812	723.2
2165.827	724.2
2169.838	712.2
2173.846	701.2
2177.851	685.2
2181.851	678.2
2185.848	677.2
2189.841	662.2
2193.831	657.2
2197.817	667.2
2201.799	654.2
2205.778	643.2
2209.753	647.2
2213.725	653.2
2217.693	641.2
2221.657	644.2
2225.618	634.2
2229.575	646.2
2233.529	638.2
2237.479	633.2
2241.425	610.2
2245.368	607.2
2249.307	602.2
2253.243	602.2
2257.175	585.2
2261.104	575.2
2265.029	572.2
2268.95	571.2
2272.868	550.2
2276.783	551.2
2280.694	548.2
2284.601	544.2
2288.505	528.2
2292.405	527.2
2296.302	514.2
2300.195	515.2
2304.085	503.2
2307.971	499.2
2311.854	497.2
2315.734	477.2
2319.609	479.2
2323.482	468.2
2327.351	474.2
2331.216	489.2
2335.078	478.2
2338.937	477.2
2342.792	465.2
2346.643	455.2
2350.492	461.2
2354.336	447.2
2358.178	445.2
2362.015	453.2
2365.85	461.2
2369.681	453.2
2373.508	465.2
2377.333	449.2
2381.153	457.2
2384.971	456.2
2388.785	454.2
2392.595	455.2
2396.402	440.2
2400.206	447.2
2404.007	432.2
2407.804	449.2
2411.597	428.2
2415.388	430.2
2419.174	434.2
2422.958	412.2
2426.738	425.2
2430.515	420.2
2434.289	416.2
2438.059	420.2
2441.825	402.2
2445.589	408.2
2449.349	390.2
2453.106	399.2
2456.859	390.2
2460.61	393.2
2464.356	369.2
2468.1	363.2
2471.84	375.2
2475.577	372.2
2479.311	362.2
2483.041	358.2
2486.768	361.2
2490.492	352.2
2494.213	360.2
2497.93	361.2
2501.644	357.2
2505.355	355.2
2509.062	350.2
2512.766	342.2
2516.467	326.2
2520.165	333.2
2523.859	334.2
2527.551	324.2
2531.239	316.2
2534.923	306.2
2538.605	304.2
2542.283	312.2
2545.958	295.2
2549.63	309.2
2553.299	297.2
2556.964	303.2
2560.626	287.2
2564.285	277.2
2567.941	287.2
2571.594	283.2
2575.243	294.2
2578.89	281.2
2582.533	273.2
2586.173	268.2
2589.809	266.2
2593.443	265.2
2597.073	265.2
2600.701	255.2
2604.325	242.2
2607.946	259.2
2611.564	257.2
2615.178	262.2
2618.79	248.2
2622.398	258.2
2626.004	248.2
2629.606	248.2
2633.205	236.2
2636.801	240.2
2640.394	242.2
2643.983	226.2
2647.57	230.2
2651.153	228.2
2654.734	229.2
2658.311	219.2
2661.885	217.2
2665.456	224.2
2669.025	224.2
2672.589	217.2
2676.151	207.2
2679.71	215.2
2683.266	196.2
2686.819	197.2
2690.368	203.2
2693.915	199.2
2697.458	194.2
2700.999	196.2
2704.536	195.2
2708.071	175.2
2711.602	176.2
2715.13	185.2
2718.656	183.2
2722.178	171.2
2725.697	168.2
2729.214	171.2
2732.727	172.2
2736.237	164.2
2739.744	159.2
2743.249	159.2
2746.75	161.2
2750.248	159.2
2753.743	154.2
2757.236	144.2
2760.725	151.2
2764.211	153.2
2767.695	137.2
2771.175	131.2
2774.652	132.2
2778.127	142.2
2781.598	133.2
2785.067	143.2
2788.532	142.2
2791.995	142.2
2795.455	142.2
2798.911	136.2
2802.365	140.2
2805.816	146.2
2809.264	131.2
2812.709	139.2
2816.151	138.2
2819.59	151.2
2823.026	135.2
2826.46	130.2
2829.89	138.2
2833.318	134.2
2836.742	141.2
2840.164	142.2
2843.583	142.2
2846.999	147.2
2850.412	138.2
2853.822	142.2
2857.229	148.2
2860.634	147.2
2864.035	152.2
2867.434	157.2
2870.83	169.2
2874.223	175.2
2877.613	176.2
2881	183.2
2884.385	182.2
2887.766	181.2
2891.145	178.2
2894.521	186.2
2897.894	193.2
2901.264	188.2
2904.631	190.2
2907.996	185.2
2911.358	187.2
2914.717	190.2
2918.073	197.2
2921.426	203.2
2924.777	211.2
2928.124	218.2
2931.469	221.2
2934.811	229.2
2938.15	218.2
2941.487	232.2
2944.821	233.2
2948.152	235.2
2951.48	242.2
2954.805	237.2
2958.128	238.2
2961.447	227.2
2964.765	232.2
2968.079	224.2
2971.39	236.2
2974.699	235.2
2978.005	233.2
2981.308	234.2
2984.609	230.2
2987.907	240.2
2991.202	241.2
2994.494	238.2
2997.784	247.2
3001.07	261.2
3004.355	259.2
3007.636	260.2
3010.915	256.2
3014.191	265.2
3017.464	267.2
3020.734	264.2
3024.002	276.2
3027.267	282.2
3030.53	286.2
3033.789	285.2
3037.046	298.2
3040.301	296.2
3043.552	309.2
3046.801	321.2
3050.048	330.2
3053.291	342.2
3056.532	335.2
3059.771	368.2
3063.006	374.2
3066.239	383.2
3069.469	391.2
3072.697	405.2
3075.922	411.2
3079.144	427.2
3082.364	441.2
3085.581	452.2
3088.795	458.2
3092.007	471.2
3095.216	468.2
3098.423	496.2
3101.627	496.2
3104.828	509.2
3108.026	515.2
3111.222	534.2
3114.416	532.2
3117.607	552.2
3120.795	559.2
3123.98	565.2
3127.163	587.2
3130.344	627.2
3133.521	612.2
3136.696	635.2
3139.869	634.2
3143.039	648.2
3146.206	659.2
3149.371	666.2
3152.533	681.2
3155.693	673.2
3158.85	691.2
3162.005	694.2
3165.157	689.2
3168.306	700.2
3171.453	699.2
3174.597	703.2
3177.739	712.2
3180.878	719.2
3184.014	728.2
3187.149	718.2
3190.28	710.2
3193.409	718.2
3196.536	726.2
3199.659	730.2
3202.781	741.2
3205.9	734.2
3209.016	740.2
3212.13	736.2
3215.241	733.2
3218.35	731.2
3221.456	718.2
3224.56	714.2
3227.661	702.2
3230.76	697.2
3233.856	680.2
3236.95	687.2
3240.041	676.2
3243.13	644.2
3246.216	651.2
3249.3	634.2
3252.382	621.2
3255.46	621.2
3258.537	627.2
3261.611	617.2
3264.682	594.2
3267.751	598.2
3270.818	602.2
3273.882	598.2
3276.943	589.2
3280.002	592.2
3283.059	583.2
3286.113	588.2
3289.165	567.2
3292.214	571.2
3295.261	563.2
3298.306	553.2
3301.348	539.2
3304.387	537.2
3307.425	533.2
3310.459	526.2
3313.492	514.2
3316.521	509.2
3319.549	514.2
3322.574	517.2
3325.597	510.2
3328.617	513.2
3331.635	502.2
3334.65	495.2
3337.663	495.2
3340.674	502.2
3343.682	504.2
3346.688	486.2
3349.691	489.2
3352.692	490.2
3355.691	490.2
3358.687	476.2
3361.681	478.2
3364.673	470.2
3367.662	471.2
3370.649	452.2
3373.633	451.2
3376.615	438.2
3379.595	434.2
3382.572	436.2
3385.547	416.2
3388.52	402.2
3391.49	411.2
3394.458	410.2
3397.424	389.2
3400.387	390.2
3403.348	389.2
3406.307	376.2
3409.263	374.2
3412.217	375.2
3415.168	373.2
3418.118	360.2
3421.065	350.2
3424.009	347.2
3426.951	343.2
3429.891	334.2
3432.829	329.2
3435.764	324.2
3438.697	304.2
3441.628	304.2
3444.557	296.2
3447.483	286.2
3450.407	275.2
3453.328	256.2
3456.247	255.2
3459.164	239.2
3462.079	231.2
3464.991	222.2
3467.902	210.2
3470.809	212.2
3473.715	188.2
3476.618	190.2
3479.519	182.2
3482.418	169.2
3485.315	159.2
3488.209	154.2
3491.101	159.2
3493.99	147.2
3496.878	142.2
3499.763	136.2
3502.646	119.2
3505.527	114.2
3508.405	106.2
3511.281	101.2
3514.155	94.2
3517.027	89.2
3519.897	79.2
3522.764	67.2
3525.629	58.2
3528.492	57.2
3531.352	41.2
3534.211	40.2
3537.067	37.2
3539.921	30.2
3542.773	24.2
3545.622	11.2
3548.469	3.2
3551.315	8.2
3554.157	-1.8
3556.998	-4.8
3559.837	-3.8
3562.673	-14.8
3565.507	-15.8
3568.339	-21.8
3571.169	-32.8
3573.996	-31.8
3576.822	-30.8
3579.645	-31.8
3582.466	-34.8
3585.285	-44.8
3588.101	-33.8
3590.916	-45.8
3593.728	-57.8
3596.538	-60.8
3599.346	-58.8
3602.152	-58.8
3604.956	-56.8
3607.757	-57.8
3610.556	-65.8
3613.354	-65.8
3616.149	-79.8
3618.942	-81.8
3621.732	-75.8
3624.521	-75.8
3627.307	-78.8
3630.092	-81.8
3632.874	-80.8
3635.654	-85.8
3638.432	-88.8
3641.208	-97.8
3643.982	-97.8
3646.753	-97.8
3649.523	-94.8
3652.29	-94.8
3655.055	-95.8
3657.818	-94.8
3660.579	-102.8
3663.338	-99.8
3666.095	-105.8
3668.849	-113.8
3671.602	-108.8
3674.352	-111.8
3677.101	-108.8
3679.847	-112.8
3682.591	-115.8
3685.333	-114.8
3688.073	-112.8
3690.811	-117.8
3693.547	-123.8
3696.281	-123.8
3699.013	-120.8
3701.742	-123.8
3704.47	-127.8
3707.195	-121.8
3709.919	-123.8
3712.64	-127.8
3715.359	-127.8
3718.076	-128.8
3720.792	-126.8
3723.505	-134.8
3726.216	-127.8
3728.925	-133.8
3731.632	-129.8
3734.336	-136.8
3737.039	-130.8
3739.74	-132.8
3742.439	-140.8
3745.136	-135.8
3747.83	-141.8
3750.523	-140.8
3753.213	-151.8
3755.902	-131.8
3758.589	-136.8
3761.273	-132.8
3763.956	-130.8
3766.636	-136.8
3769.315	-133.8
3771.991	-134.8
3774.665	-136.8
3777.338	-133.8
3780.008	-132.8
3782.677	-140.8
3785.343	-136.8
3788.007	-135.8
3790.67	-139.8
3793.33	-136.8
3795.989	-135.8
3798.645	-126.8
3801.299	-134.8
3803.952	-143.8
3806.602	-135.8
3809.251	-140.8
3811.897	-146.8
3814.542	-143.8
3817.184	-137.8
3819.825	-141.8
3822.463	-136.8
3825.1	-139.8
3827.735	-141.8
3830.367	-142.8
3832.998	-145.8
3835.627	-145.8
3838.253	-135.8
3840.878	-138.8
3843.501	-135.8
3846.122	-143.8
3848.741	-141.8
3851.358	-142.8
3853.973	-146.8
3856.586	-138.8
3859.197	-147.8
3861.806	-139.8
3864.414	-137.8
3867.019	-138.8
3869.622	-138.8
3872.224	-132.8
3874.823	-119.8
3877.421	-111.8
3880.016	-86.8
3882.61	-72.8
3885.202	-68.8
3887.792	-88.8
3890.38	-111.8
3892.966	-130.8
3895.55	-137.8
3898.132	-137.8
3900.713	-139.8
3903.291	-143.8
3905.868	-144.8
3908.442	-136.8
3911.015	-144.8
3913.586	-148.8
3916.155	-142.8
3918.722	-143.8
3921.287	-142.8
3923.85	-140.8
3926.411	-144.8
3928.971	-151.8
3931.528	-146.8
3934.084	-143.8
3936.638	-142.8
3939.19	-147.8
3941.74	-145.8
3944.288	-147.8
3946.834	-139.8
3949.378	-143.8
3951.921	-145.8
3954.462	-151.8
3957	-142.8
3959.537	-142.8
3962.072	-144.8
3964.606	-134.8
3967.137	-140.8
3969.667	-146.8
3972.194	-150.8
3974.72	-145.8
3977.244	-145.8
3979.766	-142.8
3982.286	-140.8
3984.805	-146.8
3987.321	-141.8
3989.836	-139.8
3992.349	-144.8
3994.86	-141.8
3997.369	-142.8
3999.877	-140.8
4002.382	-140.8
4004.886	-141.8
4007.388	-135.8
4009.888	-140.8
4012.386	-140.8
4014.883	-143.8
4017.377	-142.8
4019.87	-139.8
4022.361	-143.8
4024.85	-144.8
4027.338	-144.8
4029.823	-137.8
4032.307	-135.8
4034.789	-142.8
4037.269	-141.8
4039.747	-140.8
4042.224	-139.8
4044.699	-144.8
4047.172	-142.8
4049.643	-134.8
4052.112	-137.8
4054.58	-140.8
4057.046	-139.8
4059.51	-144.8
4061.972	-144.8
4064.432	-145.8
4066.891	-140.8
4069.348	-141.8
4071.803	-145.8
4074.256	-139.8
4076.708	-138.8
4079.158	-135.8
4081.606	-133.8
4084.052	-145.8
4086.497	-140.8
4088.939	-134.8
4091.38	-141.8
4093.819	-138.8
4096.257	-151.8
4098.693	-144.8
4101.127	-145.8
4103.559	-146.8
4105.989	-0.8
4108.418	-12.8
4110.845	-9.8
4113.27	-4.8
4115.694	-9.8
4118.115	-6.8
4120.535	-144.8
4122.954	-149.8
4125.37	-142.8
4127.785	-139.8
4130.198	-139.8
4132.609	-138.8
4135.019	-144.8
4137.427	-152.8
4139.833	-150.8
4142.237	-150.8
