Data from 2018-2-8_ethanol_RamanShift_02.txt Node
Date: Mon Mar 12 13:12:29 IST 2018
User: aro
Spectrometer: QEPB0276
Trigger mode: 0
Integration Time (sec): 3.000000E1
Scans to average: 1
Electric dark correction enabled: true
Nonlinearity correction enabled: false
Boxcar width: 0
XAxis mode: Raman Shifts
Number of Pixels in Spectrum: 1044
>>>>>Begin Spectral Data<<<<<
160.701	18.5
166.742	42.5
172.777	124.5
178.805	346.5
184.826	924.5
190.841	1939.5
196.849	3151.5
202.85	4004.5
208.845	4256.5
214.833	4184.5
220.815	4036.5
226.789	3965.5
232.758	3867.5
238.719	3832.5
244.674	3735.5
250.623	3680.5
256.565	3612.5
262.5	3551.5
268.429	3470.5
274.351	3424.5
280.267	3344.5
286.176	3274.5
292.079	3179.5
297.975	3091.5
303.865	3006.5
309.748	2917.5
315.625	2839.5
321.495	2796.5
327.359	2758.5
333.217	2737.5
339.068	2713.5
344.912	2690.5
350.751	2742.5
356.583	2724.5
362.408	2731.5
368.227	2788.5
374.04	2835.5
379.847	2856.5
385.647	2938.5
391.44	3023.5
397.228	3112.5
403.009	3259.5
408.784	3457.5
414.553	3760.5
420.315	4248.5
426.071	4968.5
431.821	5830.5
437.565	6600.5
443.302	6705.5
449.033	6208.5
454.758	5362.5
460.477	4595.5
466.189	4012.5
471.896	3579.5
477.596	3276.5
483.29	3127.5
488.978	2997.5
494.66	2906.5
500.335	2774.5
506.005	2614.5
511.668	2439.5
517.325	2290.5
522.977	2148.5
528.622	2058.5
534.261	1980.5
539.894	1920.5
545.521	1882.5
551.141	1844.5
556.756	1803.5
562.365	1765.5
567.968	1734.5
573.565	1741.5
579.155	1691.5
584.74	1677.5
590.319	1690.5
595.892	1666.5
601.459	1666.5
607.02	1684.5
612.575	1640.5
618.124	1629.5
623.667	1595.5
629.204	1570.5
634.735	1522.5
640.261	1510.5
645.781	1487.5
651.294	1489.5
656.802	1484.5
662.304	1485.5
667.8	1471.5
673.29	1456.5
678.775	1458.5
684.254	1444.5
689.726	1430.5
695.193	1425.5
700.655	1441.5
706.11	1436.5
711.56	1396.5
717.004	1411.5
722.442	1414.5
727.874	1413.5
733.301	1429.5
738.722	1417.5
744.137	1399.5
749.547	1418.5
754.951	1457.5
760.349	1455.5
765.741	1477.5
771.128	1517.5
776.509	1577.5
781.885	1624.5
787.254	1667.5
792.618	1747.5
797.977	1789.5
803.33	1864.5
808.677	1939.5
814.019	2024.5
819.355	2074.5
824.686	2075.5
830.011	2121.5
835.33	2214.5
840.644	2353.5
845.952	2556.5
851.255	2901.5
856.552	3449.5
861.844	4443.5
867.13	6507.5
872.41	10901.5
877.686	18875.5
882.955	28272.5
888.219	32405.5
893.478	27072.5
898.731	16575.5
903.979	8938.5
909.221	5233.5
914.458	3715.5
919.69	2911.5
924.916	2477.5
930.136	2190.5
935.351	2001.5
940.561	1873.5
945.766	1782.5
950.965	1697.5
956.158	1631.5
961.347	1615.5
966.529	1589.5
971.707	1573.5
976.879	1576.5
982.046	1604.5
987.208	1649.5
992.364	1730.5
997.515	1868.5
1002.66	2053.5
1007.801	2348.5
1012.936	2778.5
1018.066	3333.5
1023.19	4002.5
1028.309	4710.5
1033.423	5561.5
1038.532	6707.5
1043.636	8429.5
1048.734	10553.5
1053.827	12122.5
1058.915	11848.5
1063.998	10137.5
1069.075	8316.5
1074.147	7508.5
1079.214	7927.5
1084.276	9179.5
1089.333	10874.5
1094.385	12232.5
1099.431	12240.5
1104.472	10526.5
1109.509	8129.5
1114.54	6234.5
1119.565	5228.5
1124.586	4673.5
1129.602	4268.5
1134.613	3791.5
1139.618	3268.5
1144.619	2836.5
1149.614	2489.5
1154.604	2286.5
1159.589	2112.5
1164.57	1989.5
1169.545	1854.5
1174.515	1697.5
1179.48	1601.5
1184.44	1525.5
1189.395	1448.5
1194.345	1412.5
1199.29	1398.5
1204.23	1390.5
1209.165	1386.5
1214.095	1407.5
1219.021	1430.5
1223.941	1498.5
1228.856	1566.5
1233.766	1641.5
1238.672	1749.5
1243.572	1859.5
1248.467	1984.5
1253.358	2183.5
1258.244	2388.5
1263.124	2731.5
1268	3323.5
1272.871	4206.5
1277.737	5224.5
1282.599	5894.5
1287.455	5683.5
1292.306	4746.5
1297.153	3740.5
1301.995	3049.5
1306.832	2668.5
1311.664	2457.5
1316.491	2311.5
1321.314	2197.5
1326.132	2134.5
1330.945	2099.5
1335.753	2018.5
1340.556	2014.5
1345.354	1999.5
1350.148	1985.5
1354.937	2022.5
1359.722	2055.5
1364.501	2139.5
1369.276	2204.5
1374.046	2326.5
1378.811	2556.5
1383.572	2833.5
1388.327	3086.5
1393.079	3227.5
1397.825	3300.5
1402.567	3354.5
1407.304	3538.5
1412.036	3748.5
1416.764	4107.5
1421.487	4418.5
1426.205	4798.5
1430.919	5302.5
1435.628	5927.5
1440.333	6848.5
1445.032	8310.5
1449.727	10630.5
1454.418	13545.5
1459.104	15644.5
1463.785	15253.5
1468.462	12492.5
1473.134	9472.5
1477.802	7627.5
1482.465	6882.5
1487.123	6606.5
1491.777	6273.5
1496.426	5458.5
1501.071	4512.5
1505.711	3742.5
1510.347	3187.5
1514.978	2833.5
1519.604	2587.5
1524.226	2380.5
1528.844	2193.5
1533.457	2001.5
1538.065	1908.5
1542.669	1791.5
1547.269	1669.5
1551.864	1606.5
1556.454	1536.5
1561.041	1440.5
1565.622	1402.5
1570.199	1326.5
1574.772	1280.5
1579.34	1241.5
1583.904	1203.5
1588.464	1171.5
1593.019	1121.5
1597.569	1106.5
1602.115	1084.5
1606.657	1037.5
1611.195	1043.5
1615.728	1049.5
1620.256	1069.5
1624.78	1049.5
1629.3	1031.5
1633.816	1018.5
1638.327	990.5
1642.834	944.5
1647.336	933.5
1651.834	918.5
1656.328	906.5
1660.817	878.5
1665.302	882.5
1669.783	848.5
1674.259	825.5
1678.732	809.5
1683.199	780.5
1687.663	764.5
1692.122	749.5
1696.577	728.5
1701.028	684.5
1705.474	672.5
1709.917	657.5
1714.355	629.5
1718.788	604.5
1723.218	593.5
1727.643	599.5
1732.064	566.5
1736.481	559.5
1740.893	520.5
1745.301	505.5
1749.705	481.5
1754.105	460.5
1758.501	438.5
1762.893	430.5
1767.28	412.5
1771.663	393.5
1776.042	391.5
1780.417	367.5
1784.787	370.5
1789.154	363.5
1793.516	367.5
1797.874	345.5
1802.228	347.5
1806.578	341.5
1810.924	330.5
1815.266	327.5
1819.603	318.5
1823.937	313.5
1828.266	311.5
1832.591	301.5
1836.913	297.5
1841.23	310.5
1845.543	298.5
1849.852	292.5
1854.156	295.5
1858.457	291.5
1862.754	304.5
1867.047	294.5
1871.335	307.5
1875.62	312.5
1879.9	315.5
1884.177	313.5
1888.449	313.5
1892.718	310.5
1896.982	312.5
1901.243	299.5
1905.499	300.5
1909.752	291.5
1914	283.5
1918.245	289.5
1922.485	283.5
1926.722	288.5
1930.954	290.5
1935.183	278.5
1939.408	267.5
1943.628	272.5
1947.845	273.5
1952.058	269.5
1956.267	274.5
1960.472	272.5
1964.673	273.5
1968.87	261.5
1973.063	261.5
1977.252	257.5
1981.438	262.5
1985.619	256.5
1989.797	247.5
1993.971	247.5
1998.14	250.5
2002.306	247.5
2006.469	248.5
2010.627	244.5
2014.781	251.5
2018.932	249.5
2023.078	252.5
2027.221	252.5
2031.36	256.5
2035.495	250.5
2039.627	254.5
2043.754	238.5
2047.878	241.5
2051.998	245.5
2056.114	257.5
2060.226	257.5
2064.334	252.5
2068.439	264.5
2072.54	254.5
2076.637	269.5
2080.73	272.5
2084.82	295.5
2088.906	291.5
2092.988	308.5
2097.066	308.5
2101.14	292.5
2105.211	280.5
2109.278	270.5
2113.342	265.5
2117.401	261.5
2121.457	253.5
2125.509	253.5
2129.558	254.5
2133.602	263.5
2137.643	261.5
2141.681	254.5
2145.714	259.5
2149.744	257.5
2153.77	252.5
2157.793	251.5
2161.812	262.5
2165.827	266.5
2169.838	267.5
2173.846	256.5
2177.851	256.5
2181.851	241.5
2185.848	243.5
2189.841	248.5
2193.831	246.5
2197.817	249.5
2201.799	241.5
2205.778	245.5
2209.753	247.5
2213.725	242.5
2217.693	248.5
2221.657	246.5
2225.618	254.5
2229.575	259.5
2233.529	260.5
2237.479	263.5
2241.425	257.5
2245.368	268.5
2249.307	261.5
2253.243	278.5
2257.175	291.5
2261.104	295.5
2265.029	271.5
2268.95	278.5
2272.868	269.5
2276.783	270.5
2280.694	273.5
2284.601	292.5
2288.505	284.5
2292.405	274.5
2296.302	275.5
2300.195	264.5
2304.085	253.5
2307.971	241.5
2311.854	235.5
2315.734	223.5
2319.609	218.5
2323.482	220.5
2327.351	217.5
2331.216	229.5
2335.078	230.5
2338.937	212.5
2342.792	200.5
2346.643	200.5
2350.492	196.5
2354.336	185.5
2358.178	195.5
2362.015	198.5
2365.85	191.5
2369.681	193.5
2373.508	180.5
2377.333	173.5
2381.153	165.5
2384.971	186.5
2388.785	182.5
2392.595	180.5
2396.402	182.5
2400.206	180.5
2404.007	181.5
2407.804	186.5
2411.597	184.5
2415.388	188.5
2419.174	188.5
2422.958	192.5
2426.738	194.5
2430.515	192.5
2434.289	203.5
2438.059	206.5
2441.825	204.5
2445.589	211.5
2449.349	214.5
2453.106	217.5
2456.859	225.5
2460.61	225.5
2464.356	215.5
2468.1	225.5
2471.84	227.5
2475.577	239.5
2479.311	224.5
2483.041	220.5
2486.768	234.5
2490.492	223.5
2494.213	223.5
2497.93	228.5
2501.644	226.5
2505.355	234.5
2509.062	219.5
2512.766	238.5
2516.467	246.5
2520.165	239.5
2523.859	249.5
2527.551	280.5
2531.239	273.5
2534.923	283.5
2538.605	306.5
2542.283	323.5
2545.958	350.5
2549.63	364.5
2553.299	362.5
2556.964	376.5
2560.626	358.5
2564.285	356.5
2567.941	341.5
2571.594	334.5
2575.243	324.5
2578.89	328.5
2582.533	326.5
2586.173	324.5
2589.809	321.5
2593.443	338.5
2597.073	330.5
2600.701	332.5
2604.325	337.5
2607.946	339.5
2611.564	341.5
2615.178	339.5
2618.79	344.5
2622.398	333.5
2626.004	351.5
2629.606	340.5
2633.205	346.5
2636.801	348.5
2640.394	365.5
2643.983	369.5
2647.57	381.5
2651.153	381.5
2654.734	401.5
2658.311	407.5
2661.885	420.5
2665.456	423.5
2669.025	445.5
2672.589	464.5
2676.151	485.5
2679.71	521.5
2683.266	539.5
2686.819	583.5
2690.368	628.5
2693.915	677.5
2697.458	741.5
2700.999	828.5
2704.536	925.5
2708.071	1030.5
2711.602	1136.5
2715.13	1248.5
2718.656	1338.5
2722.178	1392.5
2725.697	1416.5
2729.214	1420.5
2732.727	1387.5
2736.237	1360.5
2739.744	1295.5
2743.249	1251.5
2746.75	1229.5
2750.248	1235.5
2753.743	1245.5
2757.236	1224.5
2760.725	1222.5
2764.211	1178.5
2767.695	1144.5
2771.175	1098.5
2774.652	1073.5
2778.127	1053.5
2781.598	1042.5
2785.067	1061.5
2788.532	1086.5
2791.995	1126.5
2795.455	1168.5
2798.911	1226.5
2802.365	1284.5
2805.816	1376.5
2809.264	1493.5
2812.709	1605.5
2816.151	1720.5
2819.59	1864.5
2823.026	2030.5
2826.46	2219.5
2829.89	2446.5
2833.318	2709.5
2836.742	2957.5
2840.164	3208.5
2843.583	3436.5
2846.999	3634.5
2850.412	3796.5
2853.822	4014.5
2857.229	4269.5
2860.634	4618.5
2864.035	5047.5
2867.434	5580.5
2870.83	6307.5
2874.223	7207.5
2877.613	8148.5
2881	8968.5
2884.385	9563.5
2887.766	9705.5
2891.145	9642.5
2894.521	9469.5
2897.894	9256.5
2901.264	9012.5
2904.631	8768.5
2907.996	8556.5
2911.358	8447.5
2914.717	8470.5
2918.073	8718.5
2921.426	9229.5
2924.777	10117.5
2928.124	11307.5
2931.469	12507.5
2934.811	13299.5
2938.15	13187.5
2941.487	12296.5
2944.821	11031.5
2948.152	9766.5
2951.48	8630.5
2954.805	7687.5
2958.128	6931.5
2961.447	6364.5
2964.765	6049.5
2968.079	5924.5
2971.39	5931.5
2974.699	6024.5
2978.005	6036.5
2981.308	5919.5
2984.609	5614.5
2987.907	5123.5
2991.202	4576.5
2994.494	4039.5
2997.784	3537.5
3001.07	3115.5
3004.355	2749.5
3007.636	2449.5
3010.915	2184.5
3014.191	1984.5
3017.464	1813.5
3020.734	1669.5
3024.002	1507.5
3027.267	1427.5
3030.53	1329.5
3033.789	1242.5
3037.046	1159.5
3040.301	1100.5
3043.552	1057.5
3046.801	990.5
3050.048	961.5
3053.291	917.5
3056.532	883.5
3059.771	850.5
3063.006	817.5
3066.239	796.5
3069.469	765.5
3072.697	767.5
3075.922	743.5
3079.144	716.5
3082.364	706.5
3085.581	690.5
3088.795	670.5
3092.007	658.5
3095.216	640.5
3098.423	639.5
3101.627	624.5
3104.828	624.5
3108.026	605.5
3111.222	601.5
3114.416	605.5
3117.607	600.5
3120.795	607.5
3123.98	584.5
3127.163	604.5
3130.344	608.5
3133.521	608.5
3136.696	610.5
3139.869	617.5
3143.039	616.5
3146.206	596.5
3149.371	604.5
3152.533	621.5
3155.693	616.5
3158.85	624.5
3162.005	618.5
3165.157	618.5
3168.306	613.5
3171.453	609.5
3174.597	621.5
3177.739	622.5
3180.878	614.5
3184.014	638.5
3187.149	617.5
3190.28	627.5
3193.409	614.5
3196.536	629.5
3199.659	630.5
3202.781	636.5
3205.9	627.5
3209.016	638.5
3212.13	626.5
3215.241	629.5
3218.35	618.5
3221.456	612.5
3224.56	608.5
3227.661	603.5
3230.76	606.5
3233.856	597.5
3236.95	582.5
3240.041	578.5
3243.13	563.5
3246.216	553.5
3249.3	544.5
3252.382	544.5
3255.46	545.5
3258.537	536.5
3261.611	534.5
3264.682	522.5
3267.751	516.5
3270.818	514.5
3273.882	518.5
3276.943	506.5
3280.002	507.5
3283.059	495.5
3286.113	499.5
3289.165	504.5
3292.214	488.5
3295.261	485.5
3298.306	477.5
3301.348	468.5
3304.387	467.5
3307.425	466.5
3310.459	453.5
3313.492	460.5
3316.521	447.5
3319.549	451.5
3322.574	439.5
3325.597	439.5
3328.617	439.5
3331.635	428.5
3334.65	426.5
3337.663	423.5
3340.674	423.5
3343.682	414.5
3346.688	430.5
3349.691	428.5
3352.692	421.5
3355.691	424.5
3358.687	412.5
3361.681	405.5
3364.673	412.5
3367.662	405.5
3370.649	393.5
3373.633	374.5
3376.615	360.5
3379.595	366.5
3382.572	368.5
3385.547	367.5
3388.52	355.5
3391.49	344.5
3394.458	356.5
3397.424	338.5
3400.387	332.5
3403.348	334.5
3406.307	321.5
3409.263	327.5
3412.217	324.5
3415.168	317.5
3418.118	312.5
3421.065	297.5
3424.009	309.5
3426.951	292.5
3429.891	294.5
3432.829	275.5
3435.764	279.5
3438.697	259.5
3441.628	253.5
3444.557	256.5
3447.483	247.5
3450.407	227.5
3453.328	215.5
3456.247	212.5
3459.164	201.5
3462.079	191.5
3464.991	189.5
3467.902	180.5
3470.809	173.5
3473.715	152.5
3476.618	147.5
3479.519	151.5
3482.418	129.5
3485.315	127.5
3488.209	128.5
3491.101	119.5
3493.99	116.5
3496.878	106.5
3499.763	94.5
3502.646	87.5
3505.527	84.5
3508.405	85.5
3511.281	75.5
3514.155	73.5
3517.027	67.5
3519.897	57.5
3522.764	48.5
3525.629	30.5
3528.492	31.5
3531.352	30.5
3534.211	19.5
3537.067	18.5
3539.921	10.5
3542.773	1.5
3545.622	-7.5
3548.469	-11.5
3551.315	-6.5
3554.157	-12.5
3556.998	-24.5
3559.837	-21.5
3562.673	-27.5
3565.507	-29.5
3568.339	-35.5
3571.169	-42.5
3573.996	-39.5
3576.822	-42.5
3579.645	-38.5
3582.466	-44.5
3585.285	-50.5
3588.101	-43.5
3590.916	-58.5
3593.728	-66.5
3596.538	-65.5
3599.346	-64.5
3602.152	-66.5
3604.956	-65.5
3607.757	-68.5
3610.556	-68.5
3613.354	-74.5
3616.149	-80.5
3618.942	-85.5
3621.732	-80.5
3624.521	-80.5
3627.307	-75.5
3630.092	-77.5
3632.874	-81.5
3635.654	-86.5
3638.432	-87.5
3641.208	-89.5
3643.982	-88.5
3646.753	-93.5
3649.523	-92.5
3652.29	-92.5
3655.055	-92.5
3657.818	-92.5
3660.579	-93.5
3663.338	-102.5
3666.095	-98.5
3668.849	-98.5
3671.602	-98.5
3674.352	-101.5
3677.101	-101.5
3679.847	-101.5
3682.591	-110.5
3685.333	-104.5
3688.073	-98.5
3690.811	-104.5
3693.547	-112.5
3696.281	-109.5
3699.013	-104.5
3701.742	-110.5
3704.47	-110.5
3707.195	-109.5
3709.919	-109.5
3712.64	-113.5
3715.359	-116.5
3718.076	-110.5
3720.792	-117.5
3723.505	-121.5
3726.216	-116.5
3728.925	-118.5
3731.632	-111.5
3734.336	-124.5
3737.039	-116.5
3739.74	-117.5
3742.439	-121.5
3745.136	-116.5
3747.83	-126.5
3750.523	-124.5
3753.213	-127.5
3755.902	-113.5
3758.589	-125.5
3761.273	-117.5
3763.956	-117.5
3766.636	-117.5
3769.315	-116.5
3771.991	-119.5
3774.665	-121.5
3777.338	-113.5
3780.008	-118.5
3782.677	-120.5
3785.343	-114.5
3788.007	-125.5
3790.67	-125.5
3793.33	-120.5
3795.989	-119.5
3798.645	-119.5
3801.299	-120.5
3803.952	-121.5
3806.602	-121.5
3809.251	-120.5
3811.897	-129.5
3814.542	-127.5
3817.184	-125.5
3819.825	-118.5
3822.463	-120.5
3825.1	-116.5
3827.735	-118.5
3830.367	-120.5
3832.998	-123.5
3835.627	-124.5
3838.253	-123.5
3840.878	-122.5
3843.501	-116.5
3846.122	-122.5
3848.741	-124.5
3851.358	-125.5
3853.973	-121.5
3856.586	-121.5
3859.197	-124.5
3861.806	-123.5
3864.414	-119.5
3867.019	-118.5
3869.622	-118.5
3872.224	-111.5
3874.823	-100.5
3877.421	-87.5
3880.016	-63.5
3882.61	-35.5
3885.202	-21.5
3887.792	-44.5
3890.38	-77.5
3892.966	-103.5
3895.55	-111.5
3898.132	-121.5
3900.713	-124.5
3903.291	-126.5
3905.868	-126.5
3908.442	-115.5
3911.015	-121.5
3913.586	-124.5
3916.155	-127.5
3918.722	-127.5
3921.287	-123.5
3923.85	-128.5
3926.411	-129.5
3928.971	-127.5
3931.528	-126.5
3934.084	-119.5
3936.638	-119.5
3939.19	-127.5
3941.74	-127.5
3944.288	-127.5
3946.834	-124.5
3949.378	-124.5
3951.921	-125.5
3954.462	-130.5
3957	-124.5
3959.537	-118.5
3962.072	-121.5
3964.606	-120.5
3967.137	-121.5
3969.667	-130.5
3972.194	-131.5
3974.72	-121.5
3977.244	-122.5
3979.766	-127.5
3982.286	-121.5
3984.805	-129.5
3987.321	-126.5
3989.836	-120.5
3992.349	-131.5
3994.86	-125.5
3997.369	-125.5
3999.877	-122.5
4002.382	-119.5
4004.886	-127.5
4007.388	-125.5
4009.888	-121.5
4012.386	-126.5
4014.883	-131.5
4017.377	-121.5
4019.87	-126.5
4022.361	-124.5
4024.85	-123.5
4027.338	-122.5
4029.823	-122.5
4032.307	-124.5
4034.789	-126.5
4037.269	-127.5
4039.747	-125.5
4042.224	-124.5
4044.699	-126.5
4047.172	-121.5
4049.643	-123.5
4052.112	-126.5
4054.58	-123.5
4057.046	-127.5
4059.51	-131.5
4061.972	-118.5
4064.432	-120.5
4066.891	-121.5
4069.348	-116.5
4071.803	-131.5
4074.256	-123.5
4076.708	-125.5
4079.158	-124.5
4081.606	-122.5
4084.052	-124.5
4086.497	-122.5
4088.939	-116.5
4091.38	-121.5
4093.819	-124.5
4096.257	-134.5
4098.693	-128.5
4101.127	-126.5
4103.559	-127.5
4105.989	22.5
4108.418	17.5
4110.845	11.5
4113.27	1.5
4115.694	-0.5
4118.115	-1.5
4120.535	-126.5
4122.954	-128.5
4125.37	-122.5
4127.785	-122.5
4130.198	-120.5
4132.609	-125.5
4135.019	-131.5
4137.427	-131.5
4139.833	-132.5
4142.237	-136.5
