Data from 2018-2-8_conc=6_n=7_RamanShift_03.txt Node
Date: Mon Mar 12 16:42:57 IST 2018
User: aro
Spectrometer: QEPB0276
Trigger mode: 0
Integration Time (sec): 3.000000E1
Scans to average: 1
Electric dark correction enabled: true
Nonlinearity correction enabled: false
Boxcar width: 0
XAxis mode: Raman Shifts
Number of Pixels in Spectrum: 1044
>>>>>Begin Spectral Data<<<<<
160.701	11.2
166.742	47.2
172.777	136.2
178.805	426.2
184.826	1134.2
190.841	2426.2
196.849	4030.2
202.85	5290.2
208.845	5761.2
214.833	5748.2
220.815	5691.2
226.789	5697.2
232.758	5677.2
238.719	5651.2
244.674	5629.2
250.623	5541.2
256.565	5480.2
262.5	5410.2
268.429	5302.2
274.351	5260.2
280.267	5230.2
286.176	5211.2
292.079	5162.2
297.975	5154.2
303.865	5113.2
309.748	5119.2
315.625	5135.2
321.495	5113.2
327.359	5103.2
333.217	5092.2
339.068	5074.2
344.912	5096.2
350.751	5090.2
356.583	5122.2
362.408	5113.2
368.227	5147.2
374.04	5127.2
379.847	5189.2
385.647	5190.2
391.44	5223.2
397.228	5239.2
403.009	5249.2
408.784	5259.2
414.553	5304.2
420.315	5302.2
426.071	5301.2
431.821	5336.2
437.565	5311.2
443.302	5283.2
449.033	5282.2
454.758	5284.2
460.477	5257.2
466.189	5224.2
471.896	5162.2
477.596	5162.2
483.29	5121.2
488.978	5136.2
494.66	5109.2
500.335	5019.2
506.005	4913.2
511.668	4775.2
517.325	4618.2
522.977	4517.2
528.622	4437.2
534.261	4363.2
539.894	4322.2
545.521	4287.2
551.141	4284.2
556.756	4217.2
562.365	4198.2
567.968	4165.2
573.565	4136.2
579.155	4129.2
584.74	4117.2
590.319	4101.2
595.892	4070.2
601.459	4071.2
607.02	4049.2
612.575	4024.2
618.124	4003.2
623.667	3923.2
629.204	3926.2
634.735	3887.2
640.261	3860.2
645.781	3839.2
651.294	3853.2
656.802	3814.2
662.304	3806.2
667.8	3797.2
673.29	3816.2
678.775	3777.2
684.254	3778.2
689.726	3767.2
695.193	3726.2
700.655	3729.2
706.11	3671.2
711.56	3687.2
717.004	3635.2
722.442	3649.2
727.874	3607.2
733.301	3600.2
738.722	3582.2
744.137	3584.2
749.547	3570.2
754.951	3573.2
760.349	3581.2
765.741	3589.2
771.128	3582.2
776.509	3605.2
781.885	3639.2
787.254	3633.2
792.618	3646.2
797.977	3635.2
803.33	3606.2
808.677	3576.2
814.019	3563.2
819.355	3511.2
824.686	3482.2
830.011	3486.2
835.33	3466.2
840.644	3471.2
845.952	3444.2
851.255	3446.2
856.552	3450.2
861.844	3415.2
867.13	3408.2
872.41	3379.2
877.686	3364.2
882.955	3322.2
888.219	3322.2
893.478	3280.2
898.731	3216.2
903.979	3205.2
909.221	3171.2
914.458	3136.2
919.69	3131.2
924.916	3137.2
930.136	3167.2
935.351	3169.2
940.561	3149.2
945.766	3162.2
950.965	3159.2
956.158	3108.2
961.347	3091.2
966.529	3049.2
971.707	2996.2
976.879	2971.2
982.046	2940.2
987.208	2940.2
992.364	2931.2
997.515	2936.2
1002.66	2957.2
1007.801	2981.2
1012.936	3003.2
1018.066	3014.2
1023.19	3017.2
1028.309	2994.2
1033.423	3000.2
1038.532	2998.2
1043.636	2980.2
1048.734	2961.2
1053.827	2916.2
1058.915	2873.2
1063.998	2857.2
1069.075	2847.2
1074.147	2843.2
1079.214	2844.2
1084.276	2883.2
1089.333	2854.2
1094.385	2898.2
1099.431	2889.2
1104.472	2878.2
1109.509	2861.2
1114.54	2839.2
1119.565	2804.2
1124.586	2776.2
1129.602	2731.2
1134.613	2725.2
1139.618	2674.2
1144.619	2697.2
1149.614	2679.2
1154.604	2715.2
1159.589	2676.2
1164.57	2714.2
1169.545	2696.2
1174.515	2709.2
1179.48	2689.2
1184.44	2659.2
1189.395	2661.2
1194.345	2625.2
1199.29	2611.2
1204.23	2623.2
1209.165	2612.2
1214.095	2627.2
1219.021	2646.2
1223.941	2670.2
1228.856	2656.2
1233.766	2677.2
1238.672	2690.2
1243.572	2670.2
1248.467	2655.2
1253.358	2636.2
1258.244	2591.2
1263.124	2534.2
1268	2502.2
1272.871	2467.2
1277.737	2457.2
1282.599	2428.2
1287.455	2439.2
1292.306	2444.2
1297.153	2468.2
1301.995	2472.2
1306.832	2466.2
1311.664	2510.2
1316.491	2488.2
1321.314	2476.2
1326.132	2500.2
1330.945	2447.2
1335.753	2412.2
1340.556	2378.2
1345.354	2348.2
1350.148	2309.2
1354.937	2290.2
1359.722	2233.2
1364.501	2184.2
1369.276	2152.2
1374.046	2140.2
1378.811	2107.2
1383.572	2074.2
1388.327	2109.2
1393.079	2088.2
1397.825	2095.2
1402.567	2105.2
1407.304	2093.2
1412.036	2091.2
1416.764	2123.2
1421.487	2115.2
1426.205	2109.2
1430.919	2106.2
1435.628	2125.2
1440.333	2162.2
1445.032	2150.2
1449.727	2155.2
1454.418	2191.2
1459.104	2184.2
1463.785	2157.2
1468.462	2122.2
1473.134	2069.2
1477.802	2026.2
1482.465	1969.2
1487.123	1959.2
1491.777	1928.2
1496.426	1930.2
1501.071	1887.2
1505.711	1896.2
1510.347	1882.2
1514.978	1876.2
1519.604	1877.2
1524.226	1876.2
1528.844	1860.2
1533.457	1858.2
1538.065	1845.2
1542.669	1837.2
1547.269	1852.2
1551.864	1836.2
1556.454	1860.2
1561.041	1868.2
1565.622	1884.2
1570.199	1897.2
1574.772	1918.2
1579.34	1928.2
1583.904	1941.2
1588.464	1984.2
1593.019	1963.2
1597.569	1985.2
1602.115	1964.2
1606.657	1965.2
1611.195	1959.2
1615.728	1943.2
1620.256	1962.2
1624.78	1944.2
1629.3	1953.2
1633.816	1964.2
1638.327	1976.2
1642.834	1991.2
1647.336	1991.2
1651.834	1997.2
1656.328	2005.2
1660.817	1992.2
1665.302	1988.2
1669.783	1933.2
1674.259	1905.2
1678.732	1828.2
1683.199	1807.2
1687.663	1725.2
1692.122	1690.2
1696.577	1624.2
1701.028	1554.2
1705.474	1497.2
1709.917	1459.2
1714.355	1430.2
1718.788	1405.2
1723.218	1415.2
1727.643	1419.2
1732.064	1404.2
1736.481	1392.2
1740.893	1366.2
1745.301	1340.2
1749.705	1323.2
1754.105	1284.2
1758.501	1259.2
1762.893	1250.2
1767.28	1232.2
1771.663	1233.2
1776.042	1203.2
1780.417	1194.2
1784.787	1185.2
1789.154	1171.2
1793.516	1168.2
1797.874	1150.2
1802.228	1130.2
1806.578	1121.2
1810.924	1114.2
1815.266	1102.2
1819.603	1110.2
1823.937	1090.2
1828.266	1096.2
1832.591	1082.2
1836.913	1085.2
1841.23	1091.2
1845.543	1094.2
1849.852	1091.2
1854.156	1082.2
1858.457	1082.2
1862.754	1102.2
1867.047	1094.2
1871.335	1085.2
1875.62	1094.2
1879.9	1091.2
1884.177	1079.2
1888.449	1069.2
1892.718	1064.2
1896.982	1035.2
1901.243	1031.2
1905.499	1008.2
1909.752	995.2
1914	984.2
1918.245	978.2
1922.485	973.2
1926.722	967.2
1930.954	970.2
1935.183	951.2
1939.408	944.2
1943.628	951.2
1947.845	929.2
1952.058	930.2
1956.267	922.2
1960.472	907.2
1964.673	922.2
1968.87	898.2
1973.063	897.2
1977.252	877.2
1981.438	878.2
1985.619	878.2
1989.797	877.2
1993.971	881.2
1998.14	886.2
2002.306	881.2
2006.469	908.2
2010.627	903.2
2014.781	895.2
2018.932	892.2
2023.078	896.2
2027.221	889.2
2031.36	878.2
2035.495	877.2
2039.627	847.2
2043.754	831.2
2047.878	833.2
2051.998	832.2
2056.114	829.2
2060.226	817.2
2064.334	831.2
2068.439	809.2
2072.54	820.2
2076.637	811.2
2080.73	797.2
2084.82	796.2
2088.906	799.2
2092.988	794.2
2097.066	785.2
2101.14	771.2
2105.211	768.2
2109.278	752.2
2113.342	754.2
2117.401	734.2
2121.457	735.2
2125.509	736.2
2129.558	719.2
2133.602	732.2
2137.643	724.2
2141.681	725.2
2145.714	711.2
2149.744	729.2
2153.77	727.2
2157.793	711.2
2161.812	714.2
2165.827	708.2
2169.838	702.2
2173.846	679.2
2177.851	672.2
2181.851	658.2
2185.848	647.2
2189.841	662.2
2193.831	644.2
2197.817	636.2
2201.799	640.2
2205.778	639.2
2209.753	626.2
2213.725	638.2
2217.693	622.2
2221.657	632.2
2225.618	627.2
2229.575	628.2
2233.529	611.2
2237.479	617.2
2241.425	608.2
2245.368	588.2
2249.307	589.2
2253.243	570.2
2257.175	583.2
2261.104	554.2
2265.029	552.2
2268.95	549.2
2272.868	541.2
2276.783	532.2
2280.694	531.2
2284.601	518.2
2288.505	514.2
2292.405	511.2
2296.302	496.2
2300.195	506.2
2304.085	491.2
2307.971	469.2
2311.854	485.2
2315.734	462.2
2319.609	447.2
2323.482	468.2
2327.351	456.2
2331.216	461.2
2335.078	475.2
2338.937	468.2
2342.792	447.2
2346.643	444.2
2350.492	444.2
2354.336	435.2
2358.178	433.2
2362.015	443.2
2365.85	447.2
2369.681	434.2
2373.508	437.2
2377.333	447.2
2381.153	445.2
2384.971	440.2
2388.785	443.2
2392.595	434.2
2396.402	426.2
2400.206	428.2
2404.007	423.2
2407.804	427.2
2411.597	431.2
2415.388	415.2
2419.174	401.2
2422.958	405.2
2426.738	411.2
2430.515	405.2
2434.289	411.2
2438.059	395.2
2441.825	395.2
2445.589	385.2
2449.349	379.2
2453.106	379.2
2456.859	385.2
2460.61	382.2
2464.356	362.2
2468.1	362.2
2471.84	352.2
2475.577	348.2
2479.311	351.2
2483.041	352.2
2486.768	354.2
2490.492	345.2
2494.213	345.2
2497.93	341.2
2501.644	343.2
2505.355	340.2
2509.062	328.2
2512.766	334.2
2516.467	330.2
2520.165	326.2
2523.859	320.2
2527.551	320.2
2531.239	303.2
2534.923	298.2
2538.605	305.2
2542.283	300.2
2545.958	297.2
2549.63	300.2
2553.299	290.2
2556.964	286.2
2560.626	283.2
2564.285	273.2
2567.941	282.2
2571.594	280.2
2575.243	274.2
2578.89	262.2
2582.533	263.2
2586.173	263.2
2589.809	251.2
2593.443	256.2
2597.073	256.2
2600.701	245.2
2604.325	242.2
2607.946	243.2
2611.564	235.2
2615.178	250.2
2618.79	247.2
2622.398	250.2
2626.004	242.2
2629.606	237.2
2633.205	230.2
2636.801	218.2
2640.394	231.2
2643.983	220.2
2647.57	231.2
2651.153	221.2
2654.734	208.2
2658.311	206.2
2661.885	215.2
2665.456	213.2
2669.025	208.2
2672.589	209.2
2676.151	206.2
2679.71	204.2
2683.266	194.2
2686.819	196.2
2690.368	192.2
2693.915	193.2
2697.458	183.2
2700.999	185.2
2704.536	185.2
2708.071	179.2
2711.602	168.2
2715.13	160.2
2718.656	160.2
2722.178	166.2
2725.697	166.2
2729.214	159.2
2732.727	161.2
2736.237	161.2
2739.744	153.2
2743.249	149.2
2746.75	152.2
2750.248	143.2
2753.743	147.2
2757.236	148.2
2760.725	143.2
2764.211	129.2
2767.695	126.2
2771.175	124.2
2774.652	121.2
2778.127	127.2
2781.598	129.2
2785.067	131.2
2788.532	130.2
2791.995	126.2
2795.455	127.2
2798.911	125.2
2802.365	128.2
2805.816	141.2
2809.264	131.2
2812.709	136.2
2816.151	138.2
2819.59	136.2
2823.026	129.2
2826.46	129.2
2829.89	137.2
2833.318	129.2
2836.742	138.2
2840.164	136.2
2843.583	136.2
2846.999	143.2
2850.412	141.2
2853.822	131.2
2857.229	132.2
2860.634	143.2
2864.035	150.2
2867.434	147.2
2870.83	159.2
2874.223	166.2
2877.613	171.2
2881	177.2
2884.385	176.2
2887.766	167.2
2891.145	166.2
2894.521	173.2
2897.894	181.2
2901.264	174.2
2904.631	180.2
2907.996	191.2
2911.358	178.2
2914.717	188.2
2918.073	187.2
2921.426	202.2
2924.777	206.2
2928.124	207.2
2931.469	212.2
2934.811	215.2
2938.15	224.2
2941.487	230.2
2944.821	229.2
2948.152	228.2
2951.48	234.2
2954.805	247.2
2958.128	227.2
2961.447	222.2
2964.765	233.2
2968.079	213.2
2971.39	221.2
2974.699	229.2
2978.005	227.2
2981.308	233.2
2984.609	233.2
2987.907	231.2
2991.202	241.2
2994.494	237.2
2997.784	236.2
3001.07	252.2
3004.355	255.2
3007.636	260.2
3010.915	254.2
3014.191	263.2
3017.464	267.2
3020.734	258.2
3024.002	264.2
3027.267	281.2
3030.53	286.2
3033.789	280.2
3037.046	288.2
3040.301	292.2
3043.552	308.2
3046.801	314.2
3050.048	323.2
3053.291	337.2
3056.532	347.2
3059.771	370.2
3063.006	371.2
3066.239	386.2
3069.469	397.2
3072.697	409.2
3075.922	428.2
3079.144	430.2
3082.364	438.2
3085.581	460.2
3088.795	455.2
3092.007	470.2
3095.216	480.2
3098.423	485.2
3101.627	492.2
3104.828	509.2
3108.026	519.2
3111.222	526.2
3114.416	539.2
3117.607	553.2
3120.795	564.2
3123.98	566.2
3127.163	601.2
3130.344	615.2
3133.521	629.2
3136.696	644.2
3139.869	652.2
3143.039	656.2
3146.206	658.2
3149.371	667.2
3152.533	690.2
3155.693	694.2
3158.85	698.2
3162.005	702.2
3165.157	694.2
3168.306	702.2
3171.453	712.2
3174.597	726.2
3177.739	725.2
3180.878	723.2
3184.014	733.2
3187.149	737.2
3190.28	732.2
3193.409	720.2
3196.536	724.2
3199.659	735.2
3202.781	749.2
3205.9	734.2
3209.016	748.2
3212.13	732.2
3215.241	740.2
3218.35	732.2
3221.456	732.2
3224.56	716.2
3227.661	710.2
3230.76	706.2
3233.856	684.2
3236.95	685.2
3240.041	670.2
3243.13	651.2
3246.216	651.2
3249.3	641.2
3252.382	629.2
3255.46	634.2
3258.537	629.2
3261.611	626.2
3264.682	603.2
3267.751	606.2
3270.818	600.2
3273.882	600.2
3276.943	600.2
3280.002	601.2
3283.059	588.2
3286.113	589.2
3289.165	582.2
3292.214	584.2
3295.261	568.2
3298.306	564.2
3301.348	552.2
3304.387	550.2
3307.425	548.2
3310.459	532.2
3313.492	523.2
3316.521	528.2
3319.549	522.2
3322.574	503.2
3325.597	519.2
3328.617	514.2
3331.635	510.2
3334.65	507.2
3337.663	487.2
3340.674	496.2
3343.682	505.2
3346.688	493.2
3349.691	497.2
3352.692	503.2
3355.691	499.2
3358.687	487.2
3361.681	488.2
3364.673	479.2
3367.662	469.2
3370.649	446.2
3373.633	446.2
3376.615	438.2
3379.595	431.2
3382.572	432.2
3385.547	435.2
3388.52	419.2
3391.49	408.2
3394.458	412.2
3397.424	399.2
3400.387	387.2
3403.348	394.2
3406.307	380.2
3409.263	378.2
3412.217	377.2
3415.168	357.2
3418.118	375.2
3421.065	342.2
3424.009	353.2
3426.951	345.2
3429.891	336.2
3432.829	324.2
3435.764	315.2
3438.697	309.2
3441.628	312.2
3444.557	298.2
3447.483	289.2
3450.407	270.2
3453.328	264.2
3456.247	256.2
3459.164	245.2
3462.079	229.2
3464.991	219.2
3467.902	215.2
3470.809	208.2
3473.715	188.2
3476.618	187.2
3479.519	177.2
3482.418	178.2
3485.315	162.2
3488.209	155.2
3491.101	145.2
3493.99	140.2
3496.878	131.2
3499.763	129.2
3502.646	128.2
3505.527	104.2
3508.405	108.2
3511.281	94.2
3514.155	96.2
3517.027	82.2
3519.897	77.2
3522.764	70.2
3525.629	55.2
3528.492	51.2
3531.352	40.2
3534.211	35.2
3537.067	29.2
3539.921	29.2
3542.773	22.2
3545.622	12.2
3548.469	6.2
3551.315	1.2
3554.157	-5.8
3556.998	-15.8
3559.837	-13.8
3562.673	-14.8
3565.507	-12.8
3568.339	-20.8
3571.169	-40.8
3573.996	-34.8
3576.822	-33.8
3579.645	-38.8
3582.466	-40.8
3585.285	-48.8
3588.101	-38.8
3590.916	-58.8
3593.728	-61.8
3596.538	-60.8
3599.346	-60.8
3602.152	-67.8
3604.956	-63.8
3607.757	-67.8
3610.556	-74.8
3613.354	-74.8
3616.149	-80.8
3618.942	-89.8
3621.732	-89.8
3624.521	-89.8
3627.307	-85.8
3630.092	-92.8
3632.874	-88.8
3635.654	-92.8
3638.432	-90.8
3641.208	-96.8
3643.982	-103.8
3646.753	-102.8
3649.523	-105.8
3652.29	-98.8
3655.055	-100.8
3657.818	-107.8
3660.579	-110.8
3663.338	-106.8
3666.095	-109.8
3668.849	-111.8
3671.602	-119.8
3674.352	-111.8
3677.101	-120.8
3679.847	-117.8
3682.591	-121.8
3685.333	-117.8
3688.073	-123.8
3690.811	-125.8
3693.547	-127.8
3696.281	-125.8
3699.013	-124.8
3701.742	-129.8
3704.47	-127.8
3707.195	-127.8
3709.919	-133.8
3712.64	-129.8
3715.359	-135.8
3718.076	-137.8
3720.792	-131.8
3723.505	-140.8
3726.216	-134.8
3728.925	-139.8
3731.632	-135.8
3734.336	-141.8
3737.039	-135.8
3739.74	-137.8
3742.439	-146.8
3745.136	-134.8
3747.83	-143.8
3750.523	-138.8
3753.213	-135.8
3755.902	-135.8
3758.589	-140.8
3761.273	-131.8
3763.956	-137.8
3766.636	-144.8
3769.315	-134.8
3771.991	-137.8
3774.665	-140.8
3777.338	-135.8
3780.008	-142.8
3782.677	-142.8
3785.343	-143.8
3788.007	-145.8
3790.67	-142.8
3793.33	-141.8
3795.989	-143.8
3798.645	-139.8
3801.299	-144.8
3803.952	-145.8
3806.602	-144.8
3809.251	-145.8
3811.897	-147.8
3814.542	-145.8
3817.184	-136.8
3819.825	-144.8
3822.463	-144.8
3825.1	-144.8
3827.735	-144.8
3830.367	-145.8
3832.998	-145.8
3835.627	-143.8
3838.253	-143.8
3840.878	-142.8
3843.501	-145.8
3846.122	-150.8
3848.741	-152.8
3851.358	-140.8
3853.973	-149.8
3856.586	-146.8
3859.197	-154.8
3861.806	-143.8
3864.414	-148.8
3867.019	-140.8
3869.622	-147.8
3872.224	-137.8
3874.823	-122.8
3877.421	-111.8
3880.016	-89.8
3882.61	-64.8
3885.202	-71.8
3887.792	-85.8
3890.38	-110.8
3892.966	-136.8
3895.55	-139.8
3898.132	-145.8
3900.713	-147.8
3903.291	-149.8
3905.868	-149.8
3908.442	-144.8
3911.015	-149.8
3913.586	-146.8
3916.155	-151.8
3918.722	-149.8
3921.287	-150.8
3923.85	-151.8
3926.411	-151.8
3928.971	-149.8
3931.528	-153.8
3934.084	-152.8
3936.638	-143.8
3939.19	-156.8
3941.74	-150.8
3944.288	-148.8
3946.834	-146.8
3949.378	-147.8
3951.921	-145.8
3954.462	-153.8
3957	-150.8
3959.537	-147.8
3962.072	-152.8
3964.606	-141.8
3967.137	-145.8
3969.667	-146.8
3972.194	-154.8
3974.72	-145.8
3977.244	-152.8
3979.766	-150.8
3982.286	-151.8
3984.805	-150.8
3987.321	-146.8
3989.836	-142.8
3992.349	-146.8
3994.86	-148.8
3997.369	-155.8
3999.877	-149.8
4002.382	-146.8
4004.886	-151.8
4007.388	-146.8
4009.888	-141.8
4012.386	-146.8
4014.883	-151.8
4017.377	-146.8
4019.87	-151.8
4022.361	-153.8
4024.85	-151.8
4027.338	-145.8
4029.823	-140.8
4032.307	-142.8
4034.789	-146.8
4037.269	-147.8
4039.747	-143.8
4042.224	-145.8
4044.699	-146.8
4047.172	-141.8
4049.643	-146.8
4052.112	-144.8
4054.58	-147.8
4057.046	-147.8
4059.51	-148.8
4061.972	-140.8
4064.432	-150.8
4066.891	-147.8
4069.348	-144.8
4071.803	-143.8
4074.256	-143.8
4076.708	-150.8
4079.158	-147.8
4081.606	-142.8
4084.052	-148.8
4086.497	-144.8
4088.939	-136.8
4091.38	-150.8
4093.819	-145.8
4096.257	-158.8
4098.693	-153.8
4101.127	-152.8
4103.559	-151.8
4105.989	11.2
4108.418	1.2
4110.845	0.2
4113.27	-4.8
4115.694	-6.8
4118.115	-7.8
4120.535	-150.8
4122.954	-152.8
4125.37	-146.8
4127.785	-147.8
4130.198	-148.8
4132.609	-145.8
4135.019	-151.8
4137.427	-156.8
4139.833	-156.8
4142.237	-155.8
