Data from 2018-2-8_conc=5_n=2_RamanShift_05.txt Node
Date: Mon Mar 12 15:55:58 IST 2018
User: aro
Spectrometer: QEPB0276
Trigger mode: 0
Integration Time (sec): 3.000000E1
Scans to average: 1
Electric dark correction enabled: true
Nonlinearity correction enabled: false
Boxcar width: 0
XAxis mode: Raman Shifts
Number of Pixels in Spectrum: 1044
>>>>>Begin Spectral Data<<<<<
160.701	19.6
166.742	42.6
172.777	112.6
178.805	350.6
184.826	915.6
190.841	1954.6
196.849	3260.6
202.85	4261.6
208.845	4669.6
214.833	4629.6
220.815	4595.6
226.789	4596.6
232.758	4603.6
238.719	4579.6
244.674	4533.6
250.623	4523.6
256.565	4456.6
262.5	4390.6
268.429	4324.6
274.351	4313.6
280.267	4286.6
286.176	4303.6
292.079	4255.6
297.975	4255.6
303.865	4258.6
309.748	4213.6
315.625	4205.6
321.495	4218.6
327.359	4200.6
333.217	4210.6
339.068	4197.6
344.912	4239.6
350.751	4215.6
356.583	4223.6
362.408	4223.6
368.227	4258.6
374.04	4295.6
379.847	4285.6
385.647	4283.6
391.44	4354.6
397.228	4352.6
403.009	4357.6
408.784	4395.6
414.553	4417.6
420.315	4420.6
426.071	4430.6
431.821	4402.6
437.565	4393.6
443.302	4400.6
449.033	4365.6
454.758	4369.6
460.477	4349.6
466.189	4318.6
471.896	4301.6
477.596	4251.6
483.29	4239.6
488.978	4226.6
494.66	4199.6
500.335	4157.6
506.005	4065.6
511.668	3892.6
517.325	3755.6
522.977	3672.6
528.622	3586.6
534.261	3532.6
539.894	3469.6
545.521	3465.6
551.141	3418.6
556.756	3421.6
562.365	3390.6
567.968	3377.6
573.565	3326.6
579.155	3300.6
584.74	3304.6
590.319	3283.6
595.892	3292.6
601.459	3257.6
607.02	3274.6
612.575	3250.6
618.124	3206.6
623.667	3172.6
629.204	3143.6
634.735	3109.6
640.261	3125.6
645.781	3101.6
651.294	3094.6
656.802	3083.6
662.304	3058.6
667.8	3038.6
673.29	3059.6
678.775	3043.6
684.254	3034.6
689.726	3014.6
695.193	2977.6
700.655	2977.6
706.11	2992.6
711.56	2958.6
717.004	2936.6
722.442	2921.6
727.874	2916.6
733.301	2887.6
738.722	2877.6
744.137	2873.6
749.547	2881.6
754.951	2861.6
760.349	2889.6
765.741	2891.6
771.128	2877.6
776.509	2919.6
781.885	2959.6
787.254	2954.6
792.618	2967.6
797.977	2908.6
803.33	2881.6
808.677	2889.6
814.019	2887.6
819.355	2859.6
824.686	2829.6
830.011	2822.6
835.33	2827.6
840.644	2802.6
845.952	2797.6
851.255	2784.6
856.552	2775.6
861.844	2745.6
867.13	2741.6
872.41	2731.6
877.686	2720.6
882.955	2676.6
888.219	2663.6
893.478	2645.6
898.731	2584.6
903.979	2567.6
909.221	2548.6
914.458	2540.6
919.69	2526.6
924.916	2538.6
930.136	2550.6
935.351	2542.6
940.561	2542.6
945.766	2528.6
950.965	2518.6
956.158	2509.6
961.347	2501.6
966.529	2448.6
971.707	2420.6
976.879	2386.6
982.046	2363.6
987.208	2354.6
992.364	2336.6
997.515	2363.6
1002.66	2384.6
1007.801	2403.6
1012.936	2434.6
1018.066	2415.6
1023.19	2433.6
1028.309	2421.6
1033.423	2447.6
1038.532	2418.6
1043.636	2392.6
1048.734	2364.6
1053.827	2355.6
1058.915	2318.6
1063.998	2313.6
1069.075	2289.6
1074.147	2300.6
1079.214	2309.6
1084.276	2292.6
1089.333	2326.6
1094.385	2324.6
1099.431	2320.6
1104.472	2323.6
1109.509	2316.6
1114.54	2292.6
1119.565	2248.6
1124.586	2233.6
1129.602	2202.6
1134.613	2182.6
1139.618	2152.6
1144.619	2144.6
1149.614	2142.6
1154.604	2191.6
1159.589	2166.6
1164.57	2181.6
1169.545	2175.6
1174.515	2168.6
1179.48	2157.6
1184.44	2151.6
1189.395	2145.6
1194.345	2141.6
1199.29	2118.6
1204.23	2115.6
1209.165	2116.6
1214.095	2123.6
1219.021	2127.6
1223.941	2163.6
1228.856	2159.6
1233.766	2144.6
1238.672	2161.6
1243.572	2152.6
1248.467	2148.6
1253.358	2124.6
1258.244	2085.6
1263.124	2048.6
1268	2013.6
1272.871	1993.6
1277.737	1975.6
1282.599	1971.6
1287.455	1959.6
1292.306	1972.6
1297.153	1989.6
1301.995	1988.6
1306.832	1995.6
1311.664	2021.6
1316.491	2012.6
1321.314	2012.6
1326.132	2002.6
1330.945	1991.6
1335.753	1965.6
1340.556	1928.6
1345.354	1888.6
1350.148	1873.6
1354.937	1844.6
1359.722	1798.6
1364.501	1798.6
1369.276	1752.6
1374.046	1721.6
1378.811	1685.6
1383.572	1701.6
1388.327	1671.6
1393.079	1687.6
1397.825	1686.6
1402.567	1685.6
1407.304	1683.6
1412.036	1687.6
1416.764	1688.6
1421.487	1690.6
1426.205	1700.6
1430.919	1697.6
1435.628	1705.6
1440.333	1732.6
1445.032	1734.6
1449.727	1751.6
1454.418	1763.6
1459.104	1742.6
1463.785	1747.6
1468.462	1713.6
1473.134	1686.6
1477.802	1654.6
1482.465	1609.6
1487.123	1594.6
1491.777	1560.6
1496.426	1546.6
1501.071	1528.6
1505.711	1536.6
1510.347	1534.6
1514.978	1500.6
1519.604	1511.6
1524.226	1517.6
1528.844	1500.6
1533.457	1486.6
1538.065	1492.6
1542.669	1492.6
1547.269	1500.6
1551.864	1475.6
1556.454	1498.6
1561.041	1512.6
1565.622	1537.6
1570.199	1490.6
1574.772	1531.6
1579.34	1562.6
1583.904	1585.6
1588.464	1583.6
1593.019	1602.6
1597.569	1581.6
1602.115	1587.6
1606.657	1596.6
1611.195	1582.6
1615.728	1578.6
1620.256	1563.6
1624.78	1579.6
1629.3	1585.6
1633.816	1578.6
1638.327	1570.6
1642.834	1572.6
1647.336	1610.6
1651.834	1607.6
1656.328	1606.6
1660.817	1604.6
1665.302	1600.6
1669.783	1562.6
1674.259	1527.6
1678.732	1486.6
1683.199	1448.6
1687.663	1404.6
1692.122	1375.6
1696.577	1311.6
1701.028	1260.6
1705.474	1224.6
1709.917	1170.6
1714.355	1158.6
1718.788	1129.6
1723.218	1146.6
1727.643	1138.6
1732.064	1133.6
1736.481	1124.6
1740.893	1098.6
1745.301	1061.6
1749.705	1057.6
1754.105	1021.6
1758.501	1026.6
1762.893	1010.6
1767.28	993.6
1771.663	987.6
1776.042	984.6
1780.417	971.6
1784.787	968.6
1789.154	954.6
1793.516	950.6
1797.874	922.6
1802.228	928.6
1806.578	922.6
1810.924	885.6
1815.266	894.6
1819.603	889.6
1823.937	883.6
1828.266	883.6
1832.591	885.6
1836.913	880.6
1841.23	882.6
1845.543	888.6
1849.852	877.6
1854.156	883.6
1858.457	891.6
1862.754	891.6
1867.047	883.6
1871.335	893.6
1875.62	897.6
1879.9	899.6
1884.177	897.6
1888.449	873.6
1892.718	862.6
1896.982	856.6
1901.243	835.6
1905.499	827.6
1909.752	836.6
1914	822.6
1918.245	804.6
1922.485	805.6
1926.722	789.6
1930.954	775.6
1935.183	787.6
1939.408	767.6
1943.628	781.6
1947.845	768.6
1952.058	758.6
1956.267	747.6
1960.472	737.6
1964.673	732.6
1968.87	725.6
1973.063	730.6
1977.252	716.6
1981.438	717.6
1985.619	705.6
1989.797	710.6
1993.971	714.6
1998.14	714.6
2002.306	724.6
2006.469	722.6
2010.627	719.6
2014.781	719.6
2018.932	713.6
2023.078	708.6
2027.221	724.6
2031.36	716.6
2035.495	709.6
2039.627	696.6
2043.754	662.6
2047.878	681.6
2051.998	663.6
2056.114	674.6
2060.226	673.6
2064.334	676.6
2068.439	663.6
2072.54	658.6
2076.637	673.6
2080.73	644.6
2084.82	657.6
2088.906	654.6
2092.988	641.6
2097.066	641.6
2101.14	628.6
2105.211	621.6
2109.278	614.6
2113.342	608.6
2117.401	600.6
2121.457	598.6
2125.509	590.6
2129.558	583.6
2133.602	585.6
2137.643	594.6
2141.681	580.6
2145.714	572.6
2149.744	590.6
2153.77	576.6
2157.793	582.6
2161.812	589.6
2165.827	579.6
2169.838	557.6
2173.846	554.6
2177.851	537.6
2181.851	534.6
2185.848	524.6
2189.841	530.6
2193.831	525.6
2197.817	517.6
2201.799	513.6
2205.778	518.6
2209.753	509.6
2213.725	516.6
2217.693	513.6
2221.657	516.6
2225.618	513.6
2229.575	523.6
2233.529	505.6
2237.479	504.6
2241.425	508.6
2245.368	492.6
2249.307	472.6
2253.243	467.6
2257.175	462.6
2261.104	458.6
2265.029	444.6
2268.95	449.6
2272.868	453.6
2276.783	441.6
2280.694	438.6
2284.601	433.6
2288.505	430.6
2292.405	422.6
2296.302	418.6
2300.195	399.6
2304.085	394.6
2307.971	405.6
2311.854	388.6
2315.734	374.6
2319.609	383.6
2323.482	372.6
2327.351	381.6
2331.216	400.6
2335.078	401.6
2338.937	396.6
2342.792	374.6
2346.643	364.6
2350.492	349.6
2354.336	358.6
2358.178	365.6
2362.015	365.6
2365.85	375.6
2369.681	375.6
2373.508	373.6
2377.333	369.6
2381.153	363.6
2384.971	373.6
2388.785	364.6
2392.595	362.6
2396.402	355.6
2400.206	370.6
2404.007	354.6
2407.804	347.6
2411.597	354.6
2415.388	342.6
2419.174	343.6
2422.958	341.6
2426.738	351.6
2430.515	347.6
2434.289	344.6
2438.059	336.6
2441.825	327.6
2445.589	337.6
2449.349	327.6
2453.106	324.6
2456.859	321.6
2460.61	321.6
2464.356	306.6
2468.1	307.6
2471.84	300.6
2475.577	301.6
2479.311	283.6
2483.041	282.6
2486.768	306.6
2490.492	293.6
2494.213	301.6
2497.93	286.6
2501.644	284.6
2505.355	283.6
2509.062	273.6
2512.766	275.6
2516.467	278.6
2520.165	278.6
2523.859	272.6
2527.551	269.6
2531.239	258.6
2534.923	257.6
2538.605	255.6
2542.283	254.6
2545.958	251.6
2549.63	253.6
2553.299	243.6
2556.964	248.6
2560.626	245.6
2564.285	228.6
2567.941	239.6
2571.594	244.6
2575.243	229.6
2578.89	226.6
2582.533	220.6
2586.173	221.6
2589.809	211.6
2593.443	209.6
2597.073	223.6
2600.701	208.6
2604.325	217.6
2607.946	197.6
2611.564	203.6
2615.178	203.6
2618.79	201.6
2622.398	204.6
2626.004	200.6
2629.606	200.6
2633.205	192.6
2636.801	195.6
2640.394	187.6
2643.983	195.6
2647.57	193.6
2651.153	187.6
2654.734	180.6
2658.311	184.6
2661.885	178.6
2665.456	173.6
2669.025	185.6
2672.589	168.6
2676.151	168.6
2679.71	165.6
2683.266	170.6
2686.819	171.6
2690.368	169.6
2693.915	163.6
2697.458	157.6
2700.999	153.6
2704.536	154.6
2708.071	142.6
2711.602	139.6
2715.13	157.6
2718.656	141.6
2722.178	143.6
2725.697	134.6
2729.214	129.6
2732.727	133.6
2736.237	137.6
2739.744	131.6
2743.249	127.6
2746.75	137.6
2750.248	128.6
2753.743	124.6
2757.236	118.6
2760.725	122.6
2764.211	111.6
2767.695	105.6
2771.175	105.6
2774.652	99.6
2778.127	112.6
2781.598	106.6
2785.067	116.6
2788.532	104.6
2791.995	108.6
2795.455	113.6
2798.911	111.6
2802.365	115.6
2805.816	117.6
2809.264	107.6
2812.709	119.6
2816.151	107.6
2819.59	118.6
2823.026	109.6
2826.46	102.6
2829.89	109.6
2833.318	105.6
2836.742	119.6
2840.164	109.6
2843.583	118.6
2846.999	115.6
2850.412	118.6
2853.822	117.6
2857.229	118.6
2860.634	122.6
2864.035	128.6
2867.434	126.6
2870.83	130.6
2874.223	138.6
2877.613	143.6
2881	150.6
2884.385	147.6
2887.766	143.6
2891.145	135.6
2894.521	149.6
2897.894	143.6
2901.264	147.6
2904.631	150.6
2907.996	146.6
2911.358	154.6
2914.717	154.6
2918.073	158.6
2921.426	164.6
2924.777	155.6
2928.124	167.6
2931.469	169.6
2934.811	171.6
2938.15	178.6
2941.487	179.6
2944.821	180.6
2948.152	177.6
2951.48	184.6
2954.805	188.6
2958.128	181.6
2961.447	177.6
2964.765	174.6
2968.079	176.6
2971.39	168.6
2974.699	185.6
2978.005	180.6
2981.308	178.6
2984.609	172.6
2987.907	177.6
2991.202	179.6
2994.494	180.6
2997.784	185.6
3001.07	188.6
3004.355	205.6
3007.636	203.6
3010.915	191.6
3014.191	203.6
3017.464	203.6
3020.734	208.6
3024.002	195.6
3027.267	210.6
3030.53	205.6
3033.789	224.6
3037.046	226.6
3040.301	227.6
3043.552	242.6
3046.801	246.6
3050.048	255.6
3053.291	255.6
3056.532	270.6
3059.771	273.6
3063.006	289.6
3066.239	298.6
3069.469	310.6
3072.697	313.6
3075.922	324.6
3079.144	327.6
3082.364	344.6
3085.581	354.6
3088.795	347.6
3092.007	363.6
3095.216	365.6
3098.423	383.6
3101.627	383.6
3104.828	388.6
3108.026	400.6
3111.222	422.6
3114.416	412.6
3117.607	437.6
3120.795	442.6
3123.98	434.6
3127.163	455.6
3130.344	474.6
3133.521	471.6
3136.696	495.6
3139.869	491.6
3143.039	497.6
3146.206	504.6
3149.371	519.6
3152.533	521.6
3155.693	534.6
3158.85	535.6
3162.005	531.6
3165.157	539.6
3168.306	537.6
3171.453	547.6
3174.597	551.6
3177.739	542.6
3180.878	548.6
3184.014	560.6
3187.149	554.6
3190.28	565.6
3193.409	564.6
3196.536	560.6
3199.659	565.6
3202.781	561.6
3205.9	571.6
3209.016	564.6
3212.13	558.6
3215.241	568.6
3218.35	553.6
3221.456	537.6
3224.56	535.6
3227.661	531.6
3230.76	530.6
3233.856	520.6
3236.95	506.6
3240.041	499.6
3243.13	496.6
3246.216	489.6
3249.3	482.6
3252.382	481.6
3255.46	473.6
3258.537	468.6
3261.611	469.6
3264.682	455.6
3267.751	451.6
3270.818	458.6
3273.882	444.6
3276.943	443.6
3280.002	455.6
3283.059	442.6
3286.113	434.6
3289.165	435.6
3292.214	426.6
3295.261	412.6
3298.306	415.6
3301.348	411.6
3304.387	409.6
3307.425	404.6
3310.459	394.6
3313.492	396.6
3316.521	386.6
3319.549	378.6
3322.574	387.6
3325.597	387.6
3328.617	398.6
3331.635	375.6
3334.65	371.6
3337.663	365.6
3340.674	375.6
3343.682	376.6
3346.688	368.6
3349.691	363.6
3352.692	368.6
3355.691	375.6
3358.687	359.6
3361.681	370.6
3364.673	363.6
3367.662	352.6
3370.649	350.6
3373.633	338.6
3376.615	325.6
3379.595	324.6
3382.572	318.6
3385.547	323.6
3388.52	316.6
3391.49	313.6
3394.458	304.6
3397.424	306.6
3400.387	292.6
3403.348	290.6
3406.307	280.6
3409.263	281.6
3412.217	272.6
3415.168	281.6
3418.118	277.6
3421.065	259.6
3424.009	266.6
3426.951	251.6
3429.891	254.6
3432.829	244.6
3435.764	238.6
3438.697	229.6
3441.628	215.6
3444.557	221.6
3447.483	195.6
3450.407	205.6
3453.328	194.6
3456.247	179.6
3459.164	171.6
3462.079	168.6
3464.991	160.6
3467.902	154.6
3470.809	151.6
3473.715	135.6
3476.618	124.6
3479.519	122.6
3482.418	126.6
3485.315	114.6
3488.209	102.6
3491.101	101.6
3493.99	114.6
3496.878	90.6
3499.763	87.6
3502.646	80.6
3505.527	76.6
3508.405	73.6
3511.281	67.6
3514.155	61.6
3517.027	57.6
3519.897	41.6
3522.764	39.6
3525.629	31.6
3528.492	37.6
3531.352	30.6
3534.211	19.6
3537.067	12.6
3539.921	16.6
3542.773	1.6
3545.622	4.6
3548.469	-9.4
3551.315	0.6
3554.157	-9.4
3556.998	-25.4
3559.837	-13.4
3562.673	-21.4
3565.507	-24.4
3568.339	-29.4
3571.169	-40.4
3573.996	-30.4
3576.822	-32.4
3579.645	-36.4
3582.466	-38.4
3585.285	-40.4
3588.101	-33.4
3590.916	-51.4
3593.728	-53.4
3596.538	-56.4
3599.346	-55.4
3602.152	-51.4
3604.956	-53.4
3607.757	-56.4
3610.556	-68.4
3613.354	-65.4
3616.149	-70.4
3618.942	-77.4
3621.732	-71.4
3624.521	-72.4
3627.307	-70.4
3630.092	-73.4
3632.874	-72.4
3635.654	-82.4
3638.432	-82.4
3641.208	-82.4
3643.982	-83.4
3646.753	-88.4
3649.523	-91.4
3652.29	-85.4
3655.055	-86.4
3657.818	-86.4
3660.579	-89.4
3663.338	-91.4
3666.095	-97.4
3668.849	-92.4
3671.602	-96.4
3674.352	-97.4
3677.101	-102.4
3679.847	-101.4
3682.591	-104.4
3685.333	-100.4
3688.073	-102.4
3690.811	-101.4
3693.547	-112.4
3696.281	-107.4
3699.013	-108.4
3701.742	-106.4
3704.47	-107.4
3707.195	-104.4
3709.919	-107.4
3712.64	-111.4
3715.359	-114.4
3718.076	-112.4
3720.792	-112.4
3723.505	-117.4
3726.216	-113.4
3728.925	-119.4
3731.632	-117.4
3734.336	-120.4
3737.039	-117.4
3739.74	-116.4
3742.439	-118.4
3745.136	-113.4
3747.83	-119.4
3750.523	-117.4
3753.213	-122.4
3755.902	-118.4
3758.589	-121.4
3761.273	-111.4
3763.956	-114.4
3766.636	-117.4
3769.315	-116.4
3771.991	-116.4
3774.665	-124.4
3777.338	-115.4
3780.008	-117.4
3782.677	-121.4
3785.343	-114.4
3788.007	-116.4
3790.67	-122.4
3793.33	-118.4
3795.989	-124.4
3798.645	-121.4
3801.299	-122.4
3803.952	-119.4
3806.602	-112.4
3809.251	-126.4
3811.897	-127.4
3814.542	-122.4
3817.184	-116.4
3819.825	-121.4
3822.463	-121.4
3825.1	-117.4
3827.735	-121.4
3830.367	-121.4
3832.998	-129.4
3835.627	-119.4
3838.253	-119.4
3840.878	-121.4
3843.501	-116.4
3846.122	-124.4
3848.741	-121.4
3851.358	-120.4
3853.973	-130.4
3856.586	-120.4
3859.197	-130.4
3861.806	-125.4
3864.414	-127.4
3867.019	-117.4
3869.622	-122.4
3872.224	-110.4
3874.823	-100.4
3877.421	-89.4
3880.016	-70.4
3882.61	-44.4
3885.202	-40.4
3887.792	-67.4
3890.38	-85.4
3892.966	-108.4
3895.55	-114.4
3898.132	-122.4
3900.713	-125.4
3903.291	-123.4
3905.868	-125.4
3908.442	-116.4
3911.015	-122.4
3913.586	-127.4
3916.155	-126.4
3918.722	-126.4
3921.287	-126.4
3923.85	-122.4
3926.411	-129.4
3928.971	-122.4
3931.528	-126.4
3934.084	-125.4
3936.638	-123.4
3939.19	-126.4
3941.74	-133.4
3944.288	-126.4
3946.834	-124.4
3949.378	-122.4
3951.921	-124.4
3954.462	-127.4
3957	-123.4
3959.537	-120.4
3962.072	-129.4
3964.606	-119.4
3967.137	-122.4
3969.667	-124.4
3972.194	-128.4
3974.72	-121.4
3977.244	-127.4
3979.766	-128.4
3982.286	-124.4
3984.805	-130.4
3987.321	-122.4
3989.836	-115.4
3992.349	-123.4
3994.86	-122.4
3997.369	-126.4
3999.877	-127.4
4002.382	-117.4
4004.886	-129.4
4007.388	-123.4
4009.888	-118.4
4012.386	-123.4
4014.883	-122.4
4017.377	-123.4
4019.87	-121.4
4022.361	-129.4
4024.85	-124.4
4027.338	-121.4
4029.823	-121.4
4032.307	-117.4
4034.789	-125.4
4037.269	-123.4
4039.747	-121.4
4042.224	-125.4
4044.699	-125.4
4047.172	-118.4
4049.643	-121.4
4052.112	-120.4
4054.58	-121.4
4057.046	-125.4
4059.51	-124.4
4061.972	-126.4
4064.432	-125.4
4066.891	-125.4
4069.348	-117.4
4071.803	-124.4
4074.256	-125.4
4076.708	-122.4
4079.158	-121.4
4081.606	-123.4
4084.052	-125.4
4086.497	-124.4
4088.939	-114.4
4091.38	-124.4
4093.819	-118.4
4096.257	-130.4
4098.693	-124.4
4101.127	-127.4
4103.559	-126.4
4105.989	14.6
4108.418	17.6
4110.845	8.6
4113.27	12.6
4115.694	5.6
4118.115	8.6
4120.535	-127.4
4122.954	-128.4
4125.37	-125.4
4127.785	-124.4
4130.198	-118.4
4132.609	-120.4
4135.019	-129.4
4137.427	-130.4
4139.833	-132.4
4142.237	-133.4
