Data from 2018-2-8_conc=0_n=9_RamanShift_04.txt Node
Date: Mon Mar 12 13:48:59 IST 2018
User: aro
Spectrometer: QEPB0276
Trigger mode: 0
Integration Time (sec): 3.000000E1
Scans to average: 1
Electric dark correction enabled: true
Nonlinearity correction enabled: false
Boxcar width: 0
XAxis mode: Raman Shifts
Number of Pixels in Spectrum: 1044
>>>>>Begin Spectral Data<<<<<
160.701	22.8
166.742	47.8
172.777	119.8
178.805	361.8
184.826	980.8
190.841	2097.8
196.849	3518.8
202.85	4596.8
208.845	5038.8
214.833	5079.8
220.815	5015.8
226.789	4970.8
232.758	4995.8
238.719	4996.8
244.674	4980.8
250.623	4949.8
256.565	4806.8
262.5	4762.8
268.429	4737.8
274.351	4681.8
280.267	4652.8
286.176	4652.8
292.079	4616.8
297.975	4598.8
303.865	4607.8
309.748	4617.8
315.625	4590.8
321.495	4590.8
327.359	4559.8
333.217	4597.8
339.068	4568.8
344.912	4543.8
350.751	4555.8
356.583	4587.8
362.408	4601.8
368.227	4627.8
374.04	4596.8
379.847	4649.8
385.647	4691.8
391.44	4675.8
397.228	4673.8
403.009	4722.8
408.784	4758.8
414.553	4738.8
420.315	4794.8
426.071	4778.8
431.821	4759.8
437.565	4752.8
443.302	4757.8
449.033	4737.8
454.758	4688.8
460.477	4669.8
466.189	4695.8
471.896	4606.8
477.596	4627.8
483.29	4612.8
488.978	4595.8
494.66	4568.8
500.335	4526.8
506.005	4395.8
511.668	4255.8
517.325	4156.8
522.977	4008.8
528.622	3954.8
534.261	3891.8
539.894	3826.8
545.521	3821.8
551.141	3770.8
556.756	3739.8
562.365	3737.8
567.968	3718.8
573.565	3673.8
579.155	3662.8
584.74	3670.8
590.319	3651.8
595.892	3645.8
601.459	3634.8
607.02	3595.8
612.575	3590.8
618.124	3550.8
623.667	3506.8
629.204	3506.8
634.735	3468.8
640.261	3441.8
645.781	3418.8
651.294	3421.8
656.802	3433.8
662.304	3394.8
667.8	3399.8
673.29	3400.8
678.775	3378.8
684.254	3344.8
689.726	3334.8
695.193	3328.8
700.655	3319.8
706.11	3303.8
711.56	3280.8
717.004	3267.8
722.442	3246.8
727.874	3248.8
733.301	3215.8
738.722	3214.8
744.137	3194.8
749.547	3180.8
754.951	3195.8
760.349	3203.8
765.741	3184.8
771.128	3212.8
776.509	3222.8
781.885	3236.8
787.254	3265.8
792.618	3271.8
797.977	3263.8
803.33	3214.8
808.677	3212.8
814.019	3162.8
819.355	3160.8
824.686	3126.8
830.011	3111.8
835.33	3119.8
840.644	3101.8
845.952	3107.8
851.255	3067.8
856.552	3075.8
861.844	3082.8
867.13	3077.8
872.41	3047.8
877.686	3022.8
882.955	2998.8
888.219	2975.8
893.478	2921.8
898.731	2904.8
903.979	2855.8
909.221	2837.8
914.458	2831.8
919.69	2818.8
924.916	2828.8
930.136	2842.8
935.351	2835.8
940.561	2830.8
945.766	2837.8
950.965	2790.8
956.158	2794.8
961.347	2769.8
966.529	2730.8
971.707	2696.8
976.879	2656.8
982.046	2621.8
987.208	2609.8
992.364	2626.8
997.515	2609.8
1002.66	2652.8
1007.801	2686.8
1012.936	2673.8
1018.066	2679.8
1023.19	2696.8
1028.309	2699.8
1033.423	2717.8
1038.532	2701.8
1043.636	2700.8
1048.734	2660.8
1053.827	2623.8
1058.915	2589.8
1063.998	2584.8
1069.075	2562.8
1074.147	2557.8
1079.214	2559.8
1084.276	2561.8
1089.333	2583.8
1094.385	2587.8
1099.431	2579.8
1104.472	2585.8
1109.509	2567.8
1114.54	2516.8
1119.565	2510.8
1124.586	2476.8
1129.602	2441.8
1134.613	2421.8
1139.618	2418.8
1144.619	2371.8
1149.614	2399.8
1154.604	2404.8
1159.589	2436.8
1164.57	2433.8
1169.545	2450.8
1174.515	2443.8
1179.48	2407.8
1184.44	2417.8
1189.395	2361.8
1194.345	2359.8
1199.29	2331.8
1204.23	2331.8
1209.165	2347.8
1214.095	2337.8
1219.021	2373.8
1223.941	2375.8
1228.856	2384.8
1233.766	2370.8
1238.672	2413.8
1243.572	2380.8
1248.467	2375.8
1253.358	2359.8
1258.244	2314.8
1263.124	2291.8
1268	2240.8
1272.871	2223.8
1277.737	2193.8
1282.599	2195.8
1287.455	2192.8
1292.306	2198.8
1297.153	2213.8
1301.995	2215.8
1306.832	2219.8
1311.664	2245.8
1316.491	2243.8
1321.314	2253.8
1326.132	2221.8
1330.945	2192.8
1335.753	2165.8
1340.556	2137.8
1345.354	2109.8
1350.148	2085.8
1354.937	2031.8
1359.722	2005.8
1364.501	1973.8
1369.276	1918.8
1374.046	1911.8
1378.811	1870.8
1383.572	1862.8
1388.327	1852.8
1393.079	1852.8
1397.825	1874.8
1402.567	1861.8
1407.304	1895.8
1412.036	1877.8
1416.764	1884.8
1421.487	1886.8
1426.205	1873.8
1430.919	1890.8
1435.628	1910.8
1440.333	1927.8
1445.032	1937.8
1449.727	1975.8
1454.418	1960.8
1459.104	1969.8
1463.785	1914.8
1468.462	1904.8
1473.134	1858.8
1477.802	1813.8
1482.465	1777.8
1487.123	1709.8
1491.777	1700.8
1496.426	1690.8
1501.071	1689.8
1505.711	1647.8
1510.347	1648.8
1514.978	1648.8
1519.604	1660.8
1524.226	1655.8
1528.844	1635.8
1533.457	1622.8
1538.065	1616.8
1542.669	1613.8
1547.269	1631.8
1551.864	1621.8
1556.454	1647.8
1561.041	1662.8
1565.622	1659.8
1570.199	1653.8
1574.772	1682.8
1579.34	1716.8
1583.904	1718.8
1588.464	1747.8
1593.019	1742.8
1597.569	1757.8
1602.115	1739.8
1606.657	1726.8
1611.195	1725.8
1615.728	1726.8
1620.256	1723.8
1624.78	1724.8
1629.3	1727.8
1633.816	1717.8
1638.327	1739.8
1642.834	1728.8
1647.336	1752.8
1651.834	1752.8
1656.328	1738.8
1660.817	1750.8
1665.302	1712.8
1669.783	1696.8
1674.259	1646.8
1678.732	1618.8
1683.199	1556.8
1687.663	1519.8
1692.122	1470.8
1696.577	1421.8
1701.028	1357.8
1705.474	1304.8
1709.917	1268.8
1714.355	1240.8
1718.788	1228.8
1723.218	1215.8
1727.643	1257.8
1732.064	1237.8
1736.481	1235.8
1740.893	1190.8
1745.301	1170.8
1749.705	1151.8
1754.105	1124.8
1758.501	1104.8
1762.893	1079.8
1767.28	1071.8
1771.663	1068.8
1776.042	1059.8
1780.417	1048.8
1784.787	1034.8
1789.154	1014.8
1793.516	1016.8
1797.874	990.8
1802.228	991.8
1806.578	965.8
1810.924	954.8
1815.266	948.8
1819.603	954.8
1823.937	942.8
1828.266	950.8
1832.591	943.8
1836.913	950.8
1841.23	954.8
1845.543	955.8
1849.852	943.8
1854.156	954.8
1858.457	963.8
1862.754	946.8
1867.047	944.8
1871.335	972.8
1875.62	954.8
1879.9	943.8
1884.177	950.8
1888.449	933.8
1892.718	928.8
1896.982	919.8
1901.243	897.8
1905.499	882.8
1909.752	872.8
1914	867.8
1918.245	864.8
1922.485	841.8
1926.722	837.8
1930.954	838.8
1935.183	821.8
1939.408	820.8
1943.628	816.8
1947.845	822.8
1952.058	813.8
1956.267	789.8
1960.472	787.8
1964.673	780.8
1968.87	776.8
1973.063	772.8
1977.252	757.8
1981.438	766.8
1985.619	775.8
1989.797	754.8
1993.971	770.8
1998.14	781.8
2002.306	781.8
2006.469	769.8
2010.627	772.8
2014.781	780.8
2018.932	770.8
2023.078	767.8
2027.221	775.8
2031.36	765.8
2035.495	755.8
2039.627	735.8
2043.754	722.8
2047.878	717.8
2051.998	709.8
2056.114	708.8
2060.226	715.8
2064.334	702.8
2068.439	703.8
2072.54	705.8
2076.637	708.8
2080.73	699.8
2084.82	703.8
2088.906	685.8
2092.988	673.8
2097.066	678.8
2101.14	678.8
2105.211	660.8
2109.278	662.8
2113.342	633.8
2117.401	633.8
2121.457	626.8
2125.509	620.8
2129.558	624.8
2133.602	631.8
2137.643	620.8
2141.681	627.8
2145.714	626.8
2149.744	623.8
2153.77	621.8
2157.793	625.8
2161.812	619.8
2165.827	606.8
2169.838	595.8
2173.846	590.8
2177.851	576.8
2181.851	579.8
2185.848	577.8
2189.841	569.8
2193.831	575.8
2197.817	565.8
2201.799	558.8
2205.778	557.8
2209.753	558.8
2213.725	550.8
2217.693	544.8
2221.657	552.8
2225.618	552.8
2229.575	554.8
2233.529	550.8
2237.479	546.8
2241.425	523.8
2245.368	521.8
2249.307	507.8
2253.243	505.8
2257.175	492.8
2261.104	492.8
2265.029	491.8
2268.95	487.8
2272.868	482.8
2276.783	473.8
2280.694	468.8
2284.601	460.8
2288.505	462.8
2292.405	439.8
2296.302	458.8
2300.195	443.8
2304.085	439.8
2307.971	430.8
2311.854	419.8
2315.734	419.8
2319.609	408.8
2323.482	421.8
2327.351	408.8
2331.216	428.8
2335.078	433.8
2338.937	427.8
2342.792	399.8
2346.643	397.8
2350.492	401.8
2354.336	407.8
2358.178	399.8
2362.015	396.8
2365.85	408.8
2369.681	405.8
2373.508	406.8
2377.333	411.8
2381.153	399.8
2384.971	406.8
2388.785	404.8
2392.595	396.8
2396.402	396.8
2400.206	383.8
2404.007	389.8
2407.804	378.8
2411.597	381.8
2415.388	383.8
2419.174	378.8
2422.958	371.8
2426.738	374.8
2430.515	377.8
2434.289	375.8
2438.059	370.8
2441.825	349.8
2445.589	359.8
2449.349	352.8
2453.106	347.8
2456.859	355.8
2460.61	354.8
2464.356	352.8
2468.1	329.8
2471.84	331.8
2475.577	343.8
2479.311	320.8
2483.041	318.8
2486.768	331.8
2490.492	322.8
2494.213	326.8
2497.93	312.8
2501.644	312.8
2505.355	305.8
2509.062	312.8
2512.766	302.8
2516.467	296.8
2520.165	297.8
2523.859	298.8
2527.551	298.8
2531.239	283.8
2534.923	277.8
2538.605	282.8
2542.283	273.8
2545.958	272.8
2549.63	264.8
2553.299	262.8
2556.964	271.8
2560.626	255.8
2564.285	256.8
2567.941	259.8
2571.594	251.8
2575.243	253.8
2578.89	247.8
2582.533	243.8
2586.173	237.8
2589.809	238.8
2593.443	226.8
2597.073	233.8
2600.701	226.8
2604.325	214.8
2607.946	215.8
2611.564	221.8
2615.178	234.8
2618.79	223.8
2622.398	229.8
2626.004	230.8
2629.606	217.8
2633.205	215.8
2636.801	208.8
2640.394	214.8
2643.983	207.8
2647.57	210.8
2651.153	212.8
2654.734	204.8
2658.311	184.8
2661.885	191.8
2665.456	193.8
2669.025	208.8
2672.589	198.8
2676.151	195.8
2679.71	188.8
2683.266	181.8
2686.819	191.8
2690.368	184.8
2693.915	168.8
2697.458	170.8
2700.999	176.8
2704.536	166.8
2708.071	154.8
2711.602	159.8
2715.13	163.8
2718.656	154.8
2722.178	150.8
2725.697	140.8
2729.214	143.8
2732.727	155.8
2736.237	140.8
2739.744	146.8
2743.249	134.8
2746.75	142.8
2750.248	125.8
2753.743	127.8
2757.236	128.8
2760.725	119.8
2764.211	120.8
2767.695	124.8
2771.175	113.8
2774.652	116.8
2778.127	112.8
2781.598	115.8
2785.067	123.8
2788.532	111.8
2791.995	113.8
2795.455	127.8
2798.911	119.8
2802.365	113.8
2805.816	127.8
2809.264	111.8
2812.709	125.8
2816.151	121.8
2819.59	127.8
2823.026	129.8
2826.46	119.8
2829.89	126.8
2833.318	111.8
2836.742	123.8
2840.164	118.8
2843.583	125.8
2846.999	125.8
2850.412	120.8
2853.822	130.8
2857.229	129.8
2860.634	130.8
2864.035	129.8
2867.434	133.8
2870.83	141.8
2874.223	158.8
2877.613	144.8
2881	167.8
2884.385	162.8
2887.766	154.8
2891.145	162.8
2894.521	149.8
2897.894	157.8
2901.264	170.8
2904.631	161.8
2907.996	164.8
2911.358	171.8
2914.717	175.8
2918.073	170.8
2921.426	180.8
2924.777	180.8
2928.124	192.8
2931.469	181.8
2934.811	192.8
2938.15	210.8
2941.487	202.8
2944.821	203.8
2948.152	199.8
2951.48	202.8
2954.805	206.8
2958.128	201.8
2961.447	193.8
2964.765	189.8
2968.079	194.8
2971.39	191.8
2974.699	192.8
2978.005	196.8
2981.308	188.8
2984.609	191.8
2987.907	195.8
2991.202	203.8
2994.494	186.8
2997.784	196.8
3001.07	207.8
3004.355	214.8
3007.636	209.8
3010.915	206.8
3014.191	209.8
3017.464	222.8
3020.734	216.8
3024.002	213.8
3027.267	219.8
3030.53	222.8
3033.789	235.8
3037.046	250.8
3040.301	237.8
3043.552	261.8
3046.801	262.8
3050.048	265.8
3053.291	282.8
3056.532	284.8
3059.771	296.8
3063.006	298.8
3066.239	318.8
3069.469	330.8
3072.697	338.8
3075.922	344.8
3079.144	351.8
3082.364	362.8
3085.581	370.8
3088.795	369.8
3092.007	373.8
3095.216	386.8
3098.423	394.8
3101.627	409.8
3104.828	412.8
3108.026	417.8
3111.222	428.8
3114.416	447.8
3117.607	445.8
3120.795	465.8
3123.98	467.8
3127.163	481.8
3130.344	499.8
3133.521	509.8
3136.696	521.8
3139.869	520.8
3143.039	529.8
3146.206	535.8
3149.371	548.8
3152.533	549.8
3155.693	565.8
3158.85	565.8
3162.005	573.8
3165.157	564.8
3168.306	562.8
3171.453	578.8
3174.597	586.8
3177.739	575.8
3180.878	586.8
3184.014	589.8
3187.149	581.8
3190.28	577.8
3193.409	583.8
3196.536	592.8
3199.659	592.8
3202.781	599.8
3205.9	596.8
3209.016	599.8
3212.13	593.8
3215.241	592.8
3218.35	585.8
3221.456	581.8
3224.56	580.8
3227.661	563.8
3230.76	565.8
3233.856	543.8
3236.95	540.8
3240.041	531.8
3243.13	511.8
3246.216	517.8
3249.3	511.8
3252.382	510.8
3255.46	491.8
3258.537	500.8
3261.611	497.8
3264.682	476.8
3267.751	476.8
3270.818	477.8
3273.882	475.8
3276.943	468.8
3280.002	470.8
3283.059	467.8
3286.113	460.8
3289.165	457.8
3292.214	459.8
3295.261	451.8
3298.306	444.8
3301.348	431.8
3304.387	426.8
3307.425	430.8
3310.459	412.8
3313.492	412.8
3316.521	414.8
3319.549	410.8
3322.574	402.8
3325.597	398.8
3328.617	404.8
3331.635	403.8
3334.65	402.8
3337.663	390.8
3340.674	405.8
3343.682	393.8
3346.688	393.8
3349.691	400.8
3352.692	389.8
3355.691	384.8
3358.687	392.8
3361.681	386.8
3364.673	379.8
3367.662	373.8
3370.649	379.8
3373.633	354.8
3376.615	346.8
3379.595	334.8
3382.572	344.8
3385.547	345.8
3388.52	343.8
3391.49	331.8
3394.458	326.8
3397.424	311.8
3400.387	310.8
3403.348	308.8
3406.307	294.8
3409.263	293.8
3412.217	294.8
3415.168	291.8
3418.118	287.8
3421.065	287.8
3424.009	272.8
3426.951	273.8
3429.891	261.8
3432.829	257.8
3435.764	263.8
3438.697	244.8
3441.628	242.8
3444.557	226.8
3447.483	219.8
3450.407	208.8
3453.328	205.8
3456.247	190.8
3459.164	185.8
3462.079	181.8
3464.991	171.8
3467.902	157.8
3470.809	163.8
3473.715	140.8
3476.618	134.8
3479.519	137.8
3482.418	134.8
3485.315	118.8
3488.209	108.8
3491.101	113.8
3493.99	108.8
3496.878	97.8
3499.763	92.8
3502.646	90.8
3505.527	79.8
3508.405	83.8
3511.281	68.8
3514.155	67.8
3517.027	62.8
3519.897	45.8
3522.764	40.8
3525.629	32.8
3528.492	31.8
3531.352	22.8
3534.211	16.8
3537.067	7.8
3539.921	13.8
3542.773	8.8
3545.622	-6.2
3548.469	-1.2
3551.315	-12.2
3554.157	-5.2
3556.998	-23.2
3559.837	-24.2
3562.673	-27.2
3565.507	-21.2
3568.339	-33.2
3571.169	-32.2
3573.996	-28.2
3576.822	-37.2
3579.645	-39.2
3582.466	-41.2
3585.285	-51.2
3588.101	-45.2
3590.916	-60.2
3593.728	-63.2
3596.538	-55.2
3599.346	-59.2
3602.152	-63.2
3604.956	-61.2
3607.757	-64.2
3610.556	-69.2
3613.354	-73.2
3616.149	-76.2
3618.942	-78.2
3621.732	-76.2
3624.521	-76.2
3627.307	-76.2
3630.092	-82.2
3632.874	-81.2
3635.654	-83.2
3638.432	-85.2
3641.208	-79.2
3643.982	-90.2
3646.753	-93.2
3649.523	-97.2
3652.29	-88.2
3655.055	-94.2
3657.818	-98.2
3660.579	-90.2
3663.338	-93.2
3666.095	-98.2
3668.849	-104.2
3671.602	-98.2
3674.352	-106.2
3677.101	-110.2
3679.847	-109.2
3682.591	-104.2
3685.333	-107.2
3688.073	-104.2
3690.811	-106.2
3693.547	-115.2
3696.281	-109.2
3699.013	-116.2
3701.742	-114.2
3704.47	-115.2
3707.195	-110.2
3709.919	-112.2
3712.64	-114.2
3715.359	-120.2
3718.076	-118.2
3720.792	-120.2
3723.505	-126.2
3726.216	-117.2
3728.925	-121.2
3731.632	-120.2
3734.336	-126.2
3737.039	-118.2
3739.74	-121.2
3742.439	-128.2
3745.136	-120.2
3747.83	-128.2
3750.523	-122.2
3753.213	-126.2
3755.902	-121.2
3758.589	-124.2
3761.273	-119.2
3763.956	-122.2
3766.636	-124.2
3769.315	-116.2
3771.991	-123.2
3774.665	-132.2
3777.338	-124.2
3780.008	-124.2
3782.677	-124.2
3785.343	-123.2
3788.007	-128.2
3790.67	-127.2
3793.33	-124.2
3795.989	-127.2
3798.645	-125.2
3801.299	-127.2
3803.952	-131.2
3806.602	-118.2
3809.251	-129.2
3811.897	-135.2
3814.542	-130.2
3817.184	-122.2
3819.825	-128.2
3822.463	-130.2
3825.1	-121.2
3827.735	-128.2
3830.367	-127.2
3832.998	-129.2
3835.627	-128.2
3838.253	-131.2
3840.878	-130.2
3843.501	-125.2
3846.122	-124.2
3848.741	-132.2
3851.358	-129.2
3853.973	-132.2
3856.586	-128.2
3859.197	-136.2
3861.806	-125.2
3864.414	-134.2
3867.019	-128.2
3869.622	-127.2
3872.224	-117.2
3874.823	-107.2
3877.421	-93.2
3880.016	-80.2
3882.61	-55.2
3885.202	-55.2
3887.792	-65.2
3890.38	-95.2
3892.966	-119.2
3895.55	-119.2
3898.132	-125.2
3900.713	-128.2
3903.291	-130.2
3905.868	-130.2
3908.442	-131.2
3911.015	-132.2
3913.586	-129.2
3916.155	-130.2
3918.722	-136.2
3921.287	-131.2
3923.85	-128.2
3926.411	-132.2
3928.971	-131.2
3931.528	-132.2
3934.084	-131.2
3936.638	-124.2
3939.19	-131.2
3941.74	-130.2
3944.288	-130.2
3946.834	-128.2
3949.378	-133.2
3951.921	-133.2
3954.462	-138.2
3957	-131.2
3959.537	-125.2
3962.072	-130.2
3964.606	-128.2
3967.137	-131.2
3969.667	-133.2
3972.194	-138.2
3974.72	-135.2
3977.244	-132.2
3979.766	-131.2
3982.286	-127.2
3984.805	-133.2
3987.321	-129.2
3989.836	-124.2
3992.349	-134.2
3994.86	-130.2
3997.369	-129.2
3999.877	-131.2
4002.382	-122.2
4004.886	-129.2
4007.388	-129.2
4009.888	-134.2
4012.386	-130.2
4014.883	-133.2
4017.377	-133.2
4019.87	-123.2
4022.361	-136.2
4024.85	-125.2
4027.338	-128.2
4029.823	-124.2
4032.307	-128.2
4034.789	-133.2
4037.269	-129.2
4039.747	-123.2
4042.224	-124.2
4044.699	-130.2
4047.172	-124.2
4049.643	-129.2
4052.112	-132.2
4054.58	-132.2
4057.046	-130.2
4059.51	-133.2
4061.972	-123.2
4064.432	-131.2
4066.891	-128.2
4069.348	-127.2
4071.803	-134.2
4074.256	-131.2
4076.708	-128.2
4079.158	-128.2
4081.606	-122.2
4084.052	-130.2
4086.497	-133.2
4088.939	-118.2
4091.38	-130.2
4093.819	-128.2
4096.257	-138.2
4098.693	-137.2
4101.127	-133.2
4103.559	-132.2
4105.989	9.8
4108.418	5.8
4110.845	-4.2
4113.27	-0.2
4115.694	-10.2
4118.115	-7.2
4120.535	-132.2
4122.954	-132.2
4125.37	-129.2
4127.785	-129.2
4130.198	-127.2
4132.609	-128.2
4135.019	-135.2
4137.427	-140.2
4139.833	-140.2
4142.237	-136.2
