Data from 2018-2-8_conc=4_n=9_RamanShift_05.txt Node
Date: Mon Mar 12 15:38:28 IST 2018
User: aro
Spectrometer: QEPB0276
Trigger mode: 0
Integration Time (sec): 3.000000E1
Scans to average: 1
Electric dark correction enabled: true
Nonlinearity correction enabled: false
Boxcar width: 0
XAxis mode: Raman Shifts
Number of Pixels in Spectrum: 1044
>>>>>Begin Spectral Data<<<<<
160.701	13.6
166.742	48.6
172.777	150.6
178.805	462.6
184.826	1258.6
190.841	2690.6
196.849	4526.6
202.85	5911.6
208.845	6520.6
214.833	6513.6
220.815	6382.6
226.789	6357.6
232.758	6364.6
238.719	6348.6
244.674	6261.6
250.623	6230.6
256.565	6101.6
262.5	5986.6
268.429	5946.6
274.351	5851.6
280.267	5813.6
286.176	5767.6
292.079	5725.6
297.975	5674.6
303.865	5675.6
309.748	5660.6
315.625	5616.6
321.495	5603.6
327.359	5580.6
333.217	5599.6
339.068	5609.6
344.912	5598.6
350.751	5617.6
356.583	5634.6
362.408	5667.6
368.227	5632.6
374.04	5647.6
379.847	5640.6
385.647	5690.6
391.44	5715.6
397.228	5750.6
403.009	5761.6
408.784	5811.6
414.553	5779.6
420.315	5838.6
426.071	5820.6
431.821	5785.6
437.565	5810.6
443.302	5793.6
449.033	5769.6
454.758	5757.6
460.477	5750.6
466.189	5747.6
471.896	5699.6
477.596	5646.6
483.29	5644.6
488.978	5607.6
494.66	5595.6
500.335	5527.6
506.005	5428.6
511.668	5278.6
517.325	5134.6
522.977	5050.6
528.622	4950.6
534.261	4869.6
539.894	4827.6
545.521	4772.6
551.141	4707.6
556.756	4721.6
562.365	4694.6
567.968	4662.6
573.565	4630.6
579.155	4611.6
584.74	4613.6
590.319	4572.6
595.892	4566.6
601.459	4550.6
607.02	4565.6
612.575	4508.6
618.124	4470.6
623.667	4435.6
629.204	4383.6
634.735	4350.6
640.261	4334.6
645.781	4320.6
651.294	4295.6
656.802	4292.6
662.304	4284.6
667.8	4256.6
673.29	4260.6
678.775	4235.6
684.254	4232.6
689.726	4226.6
695.193	4214.6
700.655	4186.6
706.11	4173.6
711.56	4133.6
717.004	4116.6
722.442	4100.6
727.874	4086.6
733.301	4064.6
738.722	4040.6
744.137	4034.6
749.547	4010.6
754.951	4021.6
760.349	4020.6
765.741	4051.6
771.128	4061.6
776.509	4074.6
781.885	4065.6
787.254	4087.6
792.618	4077.6
797.977	4059.6
803.33	4037.6
808.677	4019.6
814.019	3977.6
819.355	3919.6
824.686	3944.6
830.011	3919.6
835.33	3893.6
840.644	3887.6
845.952	3922.6
851.255	3867.6
856.552	3858.6
861.844	3840.6
867.13	3829.6
872.41	3842.6
877.686	3767.6
882.955	3759.6
888.219	3710.6
893.478	3679.6
898.731	3621.6
903.979	3573.6
909.221	3537.6
914.458	3547.6
919.69	3545.6
924.916	3559.6
930.136	3563.6
935.351	3557.6
940.561	3572.6
945.766	3549.6
950.965	3545.6
956.158	3503.6
961.347	3480.6
966.529	3436.6
971.707	3370.6
976.879	3336.6
982.046	3323.6
987.208	3279.6
992.364	3301.6
997.515	3339.6
1002.66	3327.6
1007.801	3375.6
1012.936	3397.6
1018.066	3398.6
1023.19	3411.6
1028.309	3403.6
1033.423	3416.6
1038.532	3378.6
1043.636	3363.6
1048.734	3319.6
1053.827	3258.6
1058.915	3245.6
1063.998	3230.6
1069.075	3211.6
1074.147	3226.6
1079.214	3247.6
1084.276	3252.6
1089.333	3265.6
1094.385	3259.6
1099.431	3266.6
1104.472	3249.6
1109.509	3241.6
1114.54	3208.6
1119.565	3162.6
1124.586	3117.6
1129.602	3090.6
1134.613	3056.6
1139.618	3030.6
1144.619	3018.6
1149.614	3026.6
1154.604	3022.6
1159.589	3047.6
1164.57	3049.6
1169.545	3066.6
1174.515	3065.6
1179.48	3050.6
1184.44	3001.6
1189.395	2986.6
1194.345	2956.6
1199.29	2939.6
1204.23	2942.6
1209.165	2970.6
1214.095	2966.6
1219.021	2998.6
1223.941	2989.6
1228.856	3004.6
1233.766	3005.6
1238.672	3036.6
1243.572	3014.6
1248.467	2991.6
1253.358	2963.6
1258.244	2944.6
1263.124	2879.6
1268	2835.6
1272.871	2797.6
1277.737	2770.6
1282.599	2759.6
1287.455	2775.6
1292.306	2757.6
1297.153	2777.6
1301.995	2807.6
1306.832	2819.6
1311.664	2834.6
1316.491	2850.6
1321.314	2827.6
1326.132	2812.6
1330.945	2795.6
1335.753	2741.6
1340.556	2677.6
1345.354	2674.6
1350.148	2613.6
1354.937	2605.6
1359.722	2537.6
1364.501	2497.6
1369.276	2456.6
1374.046	2418.6
1378.811	2393.6
1383.572	2376.6
1388.327	2341.6
1393.079	2364.6
1397.825	2369.6
1402.567	2363.6
1407.304	2342.6
1412.036	2369.6
1416.764	2372.6
1421.487	2377.6
1426.205	2365.6
1430.919	2410.6
1435.628	2398.6
1440.333	2429.6
1445.032	2453.6
1449.727	2488.6
1454.418	2471.6
1459.104	2470.6
1463.785	2458.6
1468.462	2387.6
1473.134	2368.6
1477.802	2312.6
1482.465	2243.6
1487.123	2219.6
1491.777	2219.6
1496.426	2171.6
1501.071	2122.6
1505.711	2132.6
1510.347	2129.6
1514.978	2135.6
1519.604	2140.6
1524.226	2123.6
1528.844	2098.6
1533.457	2071.6
1538.065	2091.6
1542.669	2069.6
1547.269	2082.6
1551.864	2064.6
1556.454	2097.6
1561.041	2106.6
1565.622	2113.6
1570.199	2129.6
1574.772	2152.6
1579.34	2191.6
1583.904	2205.6
1588.464	2223.6
1593.019	2243.6
1597.569	2230.6
1602.115	2243.6
1606.657	2210.6
1611.195	2227.6
1615.728	2221.6
1620.256	2208.6
1624.78	2216.6
1629.3	2229.6
1633.816	2224.6
1638.327	2251.6
1642.834	2257.6
1647.336	2278.6
1651.834	2271.6
1656.328	2266.6
1660.817	2250.6
1665.302	2236.6
1669.783	2187.6
1674.259	2151.6
1678.732	2095.6
1683.199	2056.6
1687.663	1984.6
1692.122	1923.6
1696.577	1825.6
1701.028	1755.6
1705.474	1680.6
1709.917	1619.6
1714.355	1605.6
1718.788	1586.6
1723.218	1579.6
1727.643	1594.6
1732.064	1604.6
1736.481	1573.6
1740.893	1551.6
1745.301	1522.6
1749.705	1476.6
1754.105	1446.6
1758.501	1420.6
1762.893	1398.6
1767.28	1380.6
1771.663	1380.6
1776.042	1358.6
1780.417	1324.6
1784.787	1332.6
1789.154	1333.6
1793.516	1307.6
1797.874	1294.6
1802.228	1262.6
1806.578	1248.6
1810.924	1237.6
1815.266	1241.6
1819.603	1227.6
1823.937	1235.6
1828.266	1222.6
1832.591	1227.6
1836.913	1213.6
1841.23	1241.6
1845.543	1234.6
1849.852	1227.6
1854.156	1229.6
1858.457	1232.6
1862.754	1220.6
1867.047	1241.6
1871.335	1229.6
1875.62	1231.6
1879.9	1245.6
1884.177	1219.6
1888.449	1216.6
1892.718	1190.6
1896.982	1155.6
1901.243	1158.6
1905.499	1129.6
1909.752	1128.6
1914	1123.6
1918.245	1115.6
1922.485	1089.6
1926.722	1099.6
1930.954	1074.6
1935.183	1060.6
1939.408	1066.6
1943.628	1063.6
1947.845	1075.6
1952.058	1051.6
1956.267	1038.6
1960.472	1010.6
1964.673	1005.6
1968.87	1009.6
1973.063	1006.6
1977.252	984.6
1981.438	987.6
1985.619	989.6
1989.797	988.6
1993.971	998.6
1998.14	990.6
2002.306	982.6
2006.469	1003.6
2010.627	1016.6
2014.781	1013.6
2018.932	1016.6
2023.078	1021.6
2027.221	999.6
2031.36	990.6
2035.495	977.6
2039.627	975.6
2043.754	958.6
2047.878	950.6
2051.998	936.6
2056.114	926.6
2060.226	917.6
2064.334	928.6
2068.439	907.6
2072.54	926.6
2076.637	913.6
2080.73	915.6
2084.82	918.6
2088.906	891.6
2092.988	901.6
2097.066	886.6
2101.14	876.6
2105.211	862.6
2109.278	856.6
2113.342	831.6
2117.401	835.6
2121.457	834.6
2125.509	822.6
2129.558	822.6
2133.602	817.6
2137.643	814.6
2141.681	805.6
2145.714	811.6
2149.744	823.6
2153.77	816.6
2157.793	812.6
2161.812	804.6
2165.827	786.6
2169.838	797.6
2173.846	767.6
2177.851	760.6
2181.851	751.6
2185.848	736.6
2189.841	732.6
2193.831	729.6
2197.817	725.6
2201.799	725.6
2205.778	721.6
2209.753	715.6
2213.725	706.6
2217.693	724.6
2221.657	728.6
2225.618	712.6
2229.575	711.6
2233.529	702.6
2237.479	699.6
2241.425	687.6
2245.368	681.6
2249.307	674.6
2253.243	654.6
2257.175	652.6
2261.104	641.6
2265.029	631.6
2268.95	628.6
2272.868	615.6
2276.783	617.6
2280.694	595.6
2284.601	600.6
2288.505	584.6
2292.405	579.6
2296.302	574.6
2300.195	576.6
2304.085	559.6
2307.971	546.6
2311.854	550.6
2315.734	522.6
2319.609	536.6
2323.482	526.6
2327.351	535.6
2331.216	533.6
2335.078	538.6
2338.937	534.6
2342.792	508.6
2346.643	510.6
2350.492	510.6
2354.336	508.6
2358.178	500.6
2362.015	502.6
2365.85	532.6
2369.681	513.6
2373.508	511.6
2377.333	512.6
2381.153	510.6
2384.971	506.6
2388.785	504.6
2392.595	498.6
2396.402	492.6
2400.206	499.6
2404.007	498.6
2407.804	488.6
2411.597	474.6
2415.388	479.6
2419.174	470.6
2422.958	471.6
2426.738	463.6
2430.515	466.6
2434.289	476.6
2438.059	464.6
2441.825	461.6
2445.589	457.6
2449.349	455.6
2453.106	438.6
2456.859	436.6
2460.61	443.6
2464.356	432.6
2468.1	418.6
2471.84	420.6
2475.577	419.6
2479.311	402.6
2483.041	405.6
2486.768	406.6
2490.492	409.6
2494.213	412.6
2497.93	407.6
2501.644	395.6
2505.355	396.6
2509.062	396.6
2512.766	387.6
2516.467	378.6
2520.165	378.6
2523.859	386.6
2527.551	372.6
2531.239	350.6
2534.923	351.6
2538.605	356.6
2542.283	349.6
2545.958	343.6
2549.63	346.6
2553.299	348.6
2556.964	341.6
2560.626	337.6
2564.285	329.6
2567.941	327.6
2571.594	326.6
2575.243	321.6
2578.89	318.6
2582.533	306.6
2586.173	313.6
2589.809	287.6
2593.443	297.6
2597.073	289.6
2600.701	281.6
2604.325	286.6
2607.946	293.6
2611.564	284.6
2615.178	283.6
2618.79	284.6
2622.398	291.6
2626.004	277.6
2629.606	265.6
2633.205	270.6
2636.801	272.6
2640.394	273.6
2643.983	269.6
2647.57	270.6
2651.153	256.6
2654.734	252.6
2658.311	247.6
2661.885	236.6
2665.456	255.6
2669.025	251.6
2672.589	245.6
2676.151	247.6
2679.71	248.6
2683.266	239.6
2686.819	232.6
2690.368	222.6
2693.915	227.6
2697.458	223.6
2700.999	221.6
2704.536	213.6
2708.071	204.6
2711.602	202.6
2715.13	210.6
2718.656	201.6
2722.178	198.6
2725.697	192.6
2729.214	185.6
2732.727	191.6
2736.237	195.6
2739.744	189.6
2743.249	180.6
2746.75	187.6
2750.248	180.6
2753.743	179.6
2757.236	163.6
2760.725	165.6
2764.211	153.6
2767.695	149.6
2771.175	147.6
2774.652	154.6
2778.127	154.6
2781.598	152.6
2785.067	161.6
2788.532	156.6
2791.995	156.6
2795.455	154.6
2798.911	150.6
2802.365	167.6
2805.816	166.6
2809.264	149.6
2812.709	169.6
2816.151	163.6
2819.59	172.6
2823.026	161.6
2826.46	155.6
2829.89	158.6
2833.318	159.6
2836.742	167.6
2840.164	163.6
2843.583	161.6
2846.999	166.6
2850.412	162.6
2853.822	167.6
2857.229	162.6
2860.634	179.6
2864.035	171.6
2867.434	186.6
2870.83	196.6
2874.223	196.6
2877.613	206.6
2881	212.6
2884.385	208.6
2887.766	210.6
2891.145	209.6
2894.521	216.6
2897.894	207.6
2901.264	217.6
2904.631	213.6
2907.996	217.6
2911.358	223.6
2914.717	235.6
2918.073	229.6
2921.426	244.6
2924.777	248.6
2928.124	257.6
2931.469	250.6
2934.811	262.6
2938.15	268.6
2941.487	276.6
2944.821	265.6
2948.152	273.6
2951.48	281.6
2954.805	276.6
2958.128	263.6
2961.447	273.6
2964.765	268.6
2968.079	269.6
2971.39	269.6
2974.699	279.6
2978.005	268.6
2981.308	270.6
2984.609	278.6
2987.907	273.6
2991.202	280.6
2994.494	276.6
2997.784	292.6
3001.07	288.6
3004.355	297.6
3007.636	301.6
3010.915	295.6
3014.191	305.6
3017.464	316.6
3020.734	312.6
3024.002	310.6
3027.267	336.6
3030.53	333.6
3033.789	333.6
3037.046	345.6
3040.301	340.6
3043.552	367.6
3046.801	383.6
3050.048	388.6
3053.291	398.6
3056.532	413.6
3059.771	422.6
3063.006	444.6
3066.239	446.6
3069.469	463.6
3072.697	474.6
3075.922	492.6
3079.144	508.6
3082.364	514.6
3085.581	533.6
3088.795	536.6
3092.007	551.6
3095.216	580.6
3098.423	569.6
3101.627	586.6
3104.828	597.6
3108.026	607.6
3111.222	629.6
3114.416	633.6
3117.607	646.6
3120.795	658.6
3123.98	679.6
3127.163	688.6
3130.344	713.6
3133.521	738.6
3136.696	743.6
3139.869	761.6
3143.039	761.6
3146.206	788.6
3149.371	777.6
3152.533	811.6
3155.693	799.6
3158.85	805.6
3162.005	819.6
3165.157	808.6
3168.306	824.6
3171.453	815.6
3174.597	850.6
3177.739	829.6
3180.878	849.6
3184.014	848.6
3187.149	853.6
3190.28	854.6
3193.409	850.6
3196.536	855.6
3199.659	851.6
3202.781	861.6
3205.9	859.6
3209.016	868.6
3212.13	861.6
3215.241	853.6
3218.35	855.6
3221.456	844.6
3224.56	824.6
3227.661	820.6
3230.76	819.6
3233.856	803.6
3236.95	788.6
3240.041	787.6
3243.13	757.6
3246.216	751.6
3249.3	744.6
3252.382	745.6
3255.46	740.6
3258.537	745.6
3261.611	727.6
3264.682	708.6
3267.751	711.6
3270.818	708.6
3273.882	711.6
3276.943	692.6
3280.002	686.6
3283.059	694.6
3286.113	696.6
3289.165	667.6
3292.214	666.6
3295.261	643.6
3298.306	647.6
3301.348	647.6
3304.387	641.6
3307.425	633.6
3310.459	626.6
3313.492	611.6
3316.521	612.6
3319.549	615.6
3322.574	609.6
3325.597	596.6
3328.617	605.6
3331.635	591.6
3334.65	584.6
3337.663	584.6
3340.674	594.6
3343.682	594.6
3346.688	577.6
3349.691	585.6
3352.692	591.6
3355.691	581.6
3358.687	572.6
3361.681	569.6
3364.673	553.6
3367.662	554.6
3370.649	539.6
3373.633	538.6
3376.615	515.6
3379.595	513.6
3382.572	502.6
3385.547	494.6
3388.52	496.6
3391.49	490.6
3394.458	485.6
3397.424	474.6
3400.387	453.6
3403.348	463.6
3406.307	444.6
3409.263	437.6
3412.217	433.6
3415.168	438.6
3418.118	435.6
3421.065	426.6
3424.009	418.6
3426.951	417.6
3429.891	402.6
3432.829	396.6
3435.764	381.6
3438.697	360.6
3441.628	355.6
3444.557	351.6
3447.483	333.6
3450.407	313.6
3453.328	304.6
3456.247	304.6
3459.164	285.6
3462.079	272.6
3464.991	271.6
3467.902	255.6
3470.809	254.6
3473.715	232.6
3476.618	215.6
3479.519	214.6
3482.418	204.6
3485.315	195.6
3488.209	178.6
3491.101	176.6
3493.99	185.6
3496.878	166.6
3499.763	147.6
3502.646	148.6
3505.527	142.6
3508.405	132.6
3511.281	126.6
3514.155	113.6
3517.027	104.6
3519.897	85.6
3522.764	77.6
3525.629	62.6
3528.492	68.6
3531.352	55.6
3534.211	53.6
3537.067	39.6
3539.921	43.6
3542.773	33.6
3545.622	18.6
3548.469	9.6
3551.315	15.6
3554.157	4.6
3556.998	-1.4
3559.837	4.6
3562.673	-14.4
3565.507	-4.4
3568.339	-20.4
3571.169	-34.4
3573.996	-32.4
3576.822	-32.4
3579.645	-31.4
3582.466	-36.4
3585.285	-45.4
3588.101	-38.4
3590.916	-57.4
3593.728	-69.4
3596.538	-71.4
3599.346	-67.4
3602.152	-70.4
3604.956	-74.4
3607.757	-69.4
3610.556	-70.4
3613.354	-72.4
3616.149	-86.4
3618.942	-94.4
3621.732	-90.4
3624.521	-92.4
3627.307	-95.4
3630.092	-93.4
3632.874	-85.4
3635.654	-97.4
3638.432	-96.4
3641.208	-102.4
3643.982	-107.4
3646.753	-108.4
3649.523	-110.4
3652.29	-109.4
3655.055	-110.4
3657.818	-110.4
3660.579	-111.4
3663.338	-117.4
3666.095	-123.4
3668.849	-124.4
3671.602	-120.4
3674.352	-121.4
3677.101	-130.4
3679.847	-127.4
3682.591	-131.4
3685.333	-126.4
3688.073	-130.4
3690.811	-136.4
3693.547	-142.4
3696.281	-134.4
3699.013	-139.4
3701.742	-136.4
3704.47	-139.4
3707.195	-137.4
3709.919	-144.4
3712.64	-146.4
3715.359	-150.4
3718.076	-138.4
3720.792	-144.4
3723.505	-148.4
3726.216	-147.4
3728.925	-150.4
3731.632	-147.4
3734.336	-155.4
3737.039	-150.4
3739.74	-154.4
3742.439	-151.4
3745.136	-143.4
3747.83	-154.4
3750.523	-153.4
3753.213	-154.4
3755.902	-154.4
3758.589	-161.4
3761.273	-151.4
3763.956	-150.4
3766.636	-153.4
3769.315	-151.4
3771.991	-149.4
3774.665	-159.4
3777.338	-150.4
3780.008	-156.4
3782.677	-158.4
3785.343	-155.4
3788.007	-154.4
3790.67	-159.4
3793.33	-152.4
3795.989	-155.4
3798.645	-154.4
3801.299	-155.4
3803.952	-163.4
3806.602	-156.4
3809.251	-161.4
3811.897	-160.4
3814.542	-159.4
3817.184	-155.4
3819.825	-154.4
3822.463	-158.4
3825.1	-157.4
3827.735	-163.4
3830.367	-160.4
3832.998	-164.4
3835.627	-161.4
3838.253	-152.4
3840.878	-159.4
3843.501	-158.4
3846.122	-158.4
3848.741	-167.4
3851.358	-156.4
3853.973	-164.4
3856.586	-156.4
3859.197	-166.4
3861.806	-158.4
3864.414	-168.4
3867.019	-155.4
3869.622	-158.4
3872.224	-143.4
3874.823	-138.4
3877.421	-133.4
3880.016	-104.4
3882.61	-76.4
3885.202	-73.4
3887.792	-94.4
3890.38	-122.4
3892.966	-142.4
3895.55	-151.4
3898.132	-158.4
3900.713	-162.4
3903.291	-165.4
3905.868	-163.4
3908.442	-161.4
3911.015	-160.4
3913.586	-161.4
3916.155	-163.4
3918.722	-164.4
3921.287	-160.4
3923.85	-164.4
3926.411	-166.4
3928.971	-162.4
3931.528	-164.4
3934.084	-161.4
3936.638	-154.4
3939.19	-169.4
3941.74	-170.4
3944.288	-164.4
3946.834	-164.4
3949.378	-156.4
3951.921	-158.4
3954.462	-170.4
3957	-162.4
3959.537	-160.4
3962.072	-162.4
3964.606	-162.4
3967.137	-165.4
3969.667	-164.4
3972.194	-164.4
3974.72	-158.4
3977.244	-160.4
3979.766	-167.4
3982.286	-160.4
3984.805	-167.4
3987.321	-159.4
3989.836	-157.4
3992.349	-159.4
3994.86	-158.4
3997.369	-166.4
3999.877	-158.4
4002.382	-156.4
4004.886	-161.4
4007.388	-163.4
4009.888	-159.4
4012.386	-160.4
4014.883	-158.4
4017.377	-159.4
4019.87	-163.4
4022.361	-166.4
4024.85	-167.4
4027.338	-162.4
4029.823	-155.4
4032.307	-158.4
4034.789	-162.4
4037.269	-159.4
4039.747	-158.4
4042.224	-156.4
4044.699	-161.4
4047.172	-160.4
4049.643	-156.4
4052.112	-159.4
4054.58	-158.4
4057.046	-163.4
4059.51	-164.4
4061.972	-161.4
4064.432	-163.4
4066.891	-158.4
4069.348	-157.4
4071.803	-164.4
4074.256	-162.4
4076.708	-157.4
4079.158	-162.4
4081.606	-155.4
4084.052	-164.4
4086.497	-161.4
4088.939	-158.4
4091.38	-159.4
4093.819	-158.4
4096.257	-169.4
4098.693	-166.4
4101.127	-166.4
4103.559	-166.4
4105.989	4.6
4108.418	-5.4
4110.845	-6.4
4113.27	-7.4
4115.694	-13.4
4118.115	-0.4
4120.535	-162.4
4122.954	-167.4
4125.37	-160.4
4127.785	-165.4
4130.198	-160.4
4132.609	-156.4
4135.019	-163.4
4137.427	-171.4
4139.833	-168.4
4142.237	-172.4
