Data from 2018-2-8_conc=0_n=8_RamanShift_03.txt Node
Date: Mon Mar 12 13:44:59 IST 2018
User: aro
Spectrometer: QEPB0276
Trigger mode: 0
Integration Time (sec): 3.000000E1
Scans to average: 1
Electric dark correction enabled: true
Nonlinearity correction enabled: false
Boxcar width: 0
XAxis mode: Raman Shifts
Number of Pixels in Spectrum: 1044
>>>>>Begin Spectral Data<<<<<
160.701	23.6
166.742	57.6
172.777	140.6
178.805	410.6
184.826	1118.6
190.841	2403.6
196.849	4036.6
202.85	5317.6
208.845	5814.6
214.833	5819.6
220.815	5702.6
226.789	5743.6
232.758	5722.6
238.719	5703.6
244.674	5664.6
250.623	5602.6
256.565	5559.6
262.5	5454.6
268.429	5363.6
274.351	5330.6
280.267	5308.6
286.176	5239.6
292.079	5240.6
297.975	5207.6
303.865	5200.6
309.748	5192.6
315.625	5220.6
321.495	5189.6
327.359	5159.6
333.217	5151.6
339.068	5188.6
344.912	5198.6
350.751	5152.6
356.583	5184.6
362.408	5189.6
368.227	5188.6
374.04	5205.6
379.847	5217.6
385.647	5256.6
391.44	5304.6
397.228	5261.6
403.009	5321.6
408.784	5359.6
414.553	5338.6
420.315	5362.6
426.071	5379.6
431.821	5379.6
437.565	5378.6
443.302	5371.6
449.033	5344.6
454.758	5341.6
460.477	5286.6
466.189	5310.6
471.896	5250.6
477.596	5204.6
483.29	5197.6
488.978	5201.6
494.66	5193.6
500.335	5065.6
506.005	4963.6
511.668	4829.6
517.325	4684.6
522.977	4603.6
528.622	4474.6
534.261	4398.6
539.894	4385.6
545.521	4371.6
551.141	4306.6
556.756	4309.6
562.365	4274.6
567.968	4226.6
573.565	4188.6
579.155	4167.6
584.74	4187.6
590.319	4179.6
595.892	4159.6
601.459	4143.6
607.02	4136.6
612.575	4088.6
618.124	4073.6
623.667	4034.6
629.204	3981.6
634.735	3963.6
640.261	3902.6
645.781	3924.6
651.294	3931.6
656.802	3883.6
662.304	3879.6
667.8	3859.6
673.29	3876.6
678.775	3859.6
684.254	3826.6
689.726	3827.6
695.193	3809.6
700.655	3807.6
706.11	3796.6
711.56	3743.6
717.004	3728.6
722.442	3704.6
727.874	3674.6
733.301	3692.6
738.722	3670.6
744.137	3651.6
749.547	3649.6
754.951	3632.6
760.349	3666.6
765.741	3629.6
771.128	3636.6
776.509	3693.6
781.885	3713.6
787.254	3718.6
792.618	3692.6
797.977	3664.6
803.33	3659.6
808.677	3626.6
814.019	3600.6
819.355	3594.6
824.686	3576.6
830.011	3535.6
835.33	3541.6
840.644	3534.6
845.952	3513.6
851.255	3514.6
856.552	3510.6
861.844	3486.6
867.13	3455.6
872.41	3466.6
877.686	3446.6
882.955	3419.6
888.219	3376.6
893.478	3348.6
898.731	3287.6
903.979	3268.6
909.221	3225.6
914.458	3226.6
919.69	3226.6
924.916	3232.6
930.136	3227.6
935.351	3227.6
940.561	3236.6
945.766	3205.6
950.965	3218.6
956.158	3169.6
961.347	3154.6
966.529	3122.6
971.707	3053.6
976.879	3017.6
982.046	2990.6
987.208	2973.6
992.364	2991.6
997.515	2981.6
1002.66	3027.6
1007.801	3045.6
1012.936	3067.6
1018.066	3060.6
1023.19	3062.6
1028.309	3064.6
1033.423	3078.6
1038.532	3064.6
1043.636	3048.6
1048.734	3012.6
1053.827	2990.6
1058.915	2953.6
1063.998	2892.6
1069.075	2909.6
1074.147	2914.6
1079.214	2920.6
1084.276	2923.6
1089.333	2927.6
1094.385	2946.6
1099.431	2930.6
1104.472	2939.6
1109.509	2930.6
1114.54	2875.6
1119.565	2849.6
1124.586	2821.6
1129.602	2771.6
1134.613	2758.6
1139.618	2731.6
1144.619	2715.6
1149.614	2705.6
1154.604	2719.6
1159.589	2736.6
1164.57	2767.6
1169.545	2750.6
1174.515	2763.6
1179.48	2753.6
1184.44	2717.6
1189.395	2691.6
1194.345	2682.6
1199.29	2659.6
1204.23	2670.6
1209.165	2639.6
1214.095	2665.6
1219.021	2695.6
1223.941	2693.6
1228.856	2704.6
1233.766	2736.6
1238.672	2745.6
1243.572	2728.6
1248.467	2691.6
1253.358	2663.6
1258.244	2633.6
1263.124	2589.6
1268	2517.6
1272.871	2530.6
1277.737	2503.6
1282.599	2473.6
1287.455	2468.6
1292.306	2487.6
1297.153	2513.6
1301.995	2527.6
1306.832	2508.6
1311.664	2547.6
1316.491	2554.6
1321.314	2527.6
1326.132	2527.6
1330.945	2483.6
1335.753	2455.6
1340.556	2411.6
1345.354	2369.6
1350.148	2327.6
1354.937	2285.6
1359.722	2275.6
1364.501	2224.6
1369.276	2177.6
1374.046	2152.6
1378.811	2116.6
1383.572	2095.6
1388.327	2099.6
1393.079	2107.6
1397.825	2103.6
1402.567	2139.6
1407.304	2106.6
1412.036	2109.6
1416.764	2139.6
1421.487	2122.6
1426.205	2147.6
1430.919	2133.6
1435.628	2158.6
1440.333	2173.6
1445.032	2184.6
1449.727	2208.6
1454.418	2208.6
1459.104	2204.6
1463.785	2187.6
1468.462	2167.6
1473.134	2094.6
1477.802	2050.6
1482.465	2008.6
1487.123	1976.6
1491.777	1940.6
1496.426	1921.6
1501.071	1893.6
1505.711	1898.6
1510.347	1876.6
1514.978	1874.6
1519.604	1877.6
1524.226	1886.6
1528.844	1860.6
1533.457	1845.6
1538.065	1842.6
1542.669	1853.6
1547.269	1822.6
1551.864	1820.6
1556.454	1860.6
1561.041	1885.6
1565.622	1899.6
1570.199	1891.6
1574.772	1911.6
1579.34	1925.6
1583.904	1958.6
1588.464	1970.6
1593.019	1966.6
1597.569	1987.6
1602.115	1995.6
1606.657	1970.6
1611.195	1970.6
1615.728	1965.6
1620.256	1957.6
1624.78	1929.6
1629.3	1947.6
1633.816	1951.6
1638.327	1966.6
1642.834	1964.6
1647.336	1987.6
1651.834	1973.6
1656.328	1990.6
1660.817	1968.6
1665.302	1948.6
1669.783	1916.6
1674.259	1885.6
1678.732	1820.6
1683.199	1778.6
1687.663	1711.6
1692.122	1646.6
1696.577	1583.6
1701.028	1516.6
1705.474	1454.6
1709.917	1422.6
1714.355	1390.6
1718.788	1377.6
1723.218	1393.6
1727.643	1379.6
1732.064	1388.6
1736.481	1371.6
1740.893	1331.6
1745.301	1319.6
1749.705	1272.6
1754.105	1260.6
1758.501	1244.6
1762.893	1222.6
1767.28	1227.6
1771.663	1205.6
1776.042	1169.6
1780.417	1167.6
1784.787	1168.6
1789.154	1140.6
1793.516	1137.6
1797.874	1102.6
1802.228	1108.6
1806.578	1079.6
1810.924	1057.6
1815.266	1070.6
1819.603	1069.6
1823.937	1076.6
1828.266	1059.6
1832.591	1074.6
1836.913	1071.6
1841.23	1068.6
1845.543	1054.6
1849.852	1063.6
1854.156	1069.6
1858.457	1070.6
1862.754	1066.6
1867.047	1059.6
1871.335	1072.6
1875.62	1067.6
1879.9	1067.6
1884.177	1041.6
1888.449	1041.6
1892.718	1027.6
1896.982	1008.6
1901.243	1002.6
1905.499	965.6
1909.752	967.6
1914	960.6
1918.245	948.6
1922.485	932.6
1926.722	932.6
1930.954	926.6
1935.183	908.6
1939.408	898.6
1943.628	912.6
1947.845	901.6
1952.058	886.6
1956.267	878.6
1960.472	858.6
1964.673	869.6
1968.87	855.6
1973.063	862.6
1977.252	840.6
1981.438	856.6
1985.619	849.6
1989.797	847.6
1993.971	850.6
1998.14	876.6
2002.306	855.6
2006.469	861.6
2010.627	860.6
2014.781	860.6
2018.932	860.6
2023.078	866.6
2027.221	860.6
2031.36	841.6
2035.495	833.6
2039.627	825.6
2043.754	813.6
2047.878	788.6
2051.998	804.6
2056.114	792.6
2060.226	791.6
2064.334	780.6
2068.439	783.6
2072.54	773.6
2076.637	784.6
2080.73	770.6
2084.82	771.6
2088.906	754.6
2092.988	759.6
2097.066	750.6
2101.14	745.6
2105.211	723.6
2109.278	725.6
2113.342	714.6
2117.401	704.6
2121.457	700.6
2125.509	702.6
2129.558	699.6
2133.602	701.6
2137.643	686.6
2141.681	687.6
2145.714	694.6
2149.744	689.6
2153.77	696.6
2157.793	685.6
2161.812	683.6
2165.827	674.6
2169.838	664.6
2173.846	657.6
2177.851	639.6
2181.851	628.6
2185.848	637.6
2189.841	618.6
2193.831	634.6
2197.817	627.6
2201.799	617.6
2205.778	624.6
2209.753	621.6
2213.725	616.6
2217.693	604.6
2221.657	619.6
2225.618	623.6
2229.575	614.6
2233.529	611.6
2237.479	601.6
2241.425	595.6
2245.368	586.6
2249.307	580.6
2253.243	557.6
2257.175	562.6
2261.104	555.6
2265.029	529.6
2268.95	537.6
2272.868	525.6
2276.783	521.6
2280.694	509.6
2284.601	528.6
2288.505	499.6
2292.405	497.6
2296.302	494.6
2300.195	487.6
2304.085	479.6
2307.971	473.6
2311.854	480.6
2315.734	470.6
2319.609	458.6
2323.482	452.6
2327.351	447.6
2331.216	461.6
2335.078	477.6
2338.937	454.6
2342.792	448.6
2346.643	443.6
2350.492	430.6
2354.336	440.6
2358.178	431.6
2362.015	444.6
2365.85	442.6
2369.681	438.6
2373.508	451.6
2377.333	441.6
2381.153	437.6
2384.971	439.6
2388.785	449.6
2392.595	426.6
2396.402	417.6
2400.206	419.6
2404.007	426.6
2407.804	427.6
2411.597	415.6
2415.388	413.6
2419.174	414.6
2422.958	412.6
2426.738	421.6
2430.515	410.6
2434.289	407.6
2438.059	401.6
2441.825	397.6
2445.589	388.6
2449.349	386.6
2453.106	388.6
2456.859	376.6
2460.61	372.6
2464.356	371.6
2468.1	360.6
2471.84	353.6
2475.577	368.6
2479.311	336.6
2483.041	354.6
2486.768	346.6
2490.492	350.6
2494.213	359.6
2497.93	340.6
2501.644	332.6
2505.355	330.6
2509.062	332.6
2512.766	336.6
2516.467	326.6
2520.165	322.6
2523.859	330.6
2527.551	308.6
2531.239	307.6
2534.923	302.6
2538.605	298.6
2542.283	293.6
2545.958	294.6
2549.63	288.6
2553.299	283.6
2556.964	290.6
2560.626	284.6
2564.285	281.6
2567.941	274.6
2571.594	262.6
2575.243	262.6
2578.89	255.6
2582.533	255.6
2586.173	250.6
2589.809	258.6
2593.443	251.6
2597.073	251.6
2600.701	239.6
2604.325	237.6
2607.946	233.6
2611.564	241.6
2615.178	242.6
2618.79	231.6
2622.398	247.6
2626.004	235.6
2629.606	228.6
2633.205	220.6
2636.801	226.6
2640.394	217.6
2643.983	228.6
2647.57	219.6
2651.153	222.6
2654.734	219.6
2658.311	216.6
2661.885	215.6
2665.456	215.6
2669.025	209.6
2672.589	204.6
2676.151	209.6
2679.71	200.6
2683.266	197.6
2686.819	189.6
2690.368	190.6
2693.915	178.6
2697.458	179.6
2700.999	183.6
2704.536	176.6
2708.071	164.6
2711.602	174.6
2715.13	169.6
2718.656	161.6
2722.178	153.6
2725.697	153.6
2729.214	151.6
2732.727	157.6
2736.237	162.6
2739.744	150.6
2743.249	140.6
2746.75	142.6
2750.248	138.6
2753.743	141.6
2757.236	142.6
2760.725	127.6
2764.211	133.6
2767.695	119.6
2771.175	118.6
2774.652	112.6
2778.127	121.6
2781.598	117.6
2785.067	132.6
2788.532	117.6
2791.995	126.6
2795.455	124.6
2798.911	123.6
2802.365	126.6
2805.816	127.6
2809.264	121.6
2812.709	136.6
2816.151	136.6
2819.59	134.6
2823.026	128.6
2826.46	121.6
2829.89	130.6
2833.318	122.6
2836.742	129.6
2840.164	125.6
2843.583	131.6
2846.999	136.6
2850.412	127.6
2853.822	134.6
2857.229	134.6
2860.634	135.6
2864.035	146.6
2867.434	151.6
2870.83	152.6
2874.223	168.6
2877.613	166.6
2881	169.6
2884.385	172.6
2887.766	166.6
2891.145	169.6
2894.521	174.6
2897.894	195.6
2901.264	191.6
2904.631	179.6
2907.996	189.6
2911.358	177.6
2914.717	181.6
2918.073	192.6
2921.426	205.6
2924.777	206.6
2928.124	217.6
2931.469	217.6
2934.811	221.6
2938.15	225.6
2941.487	232.6
2944.821	230.6
2948.152	236.6
2951.48	235.6
2954.805	228.6
2958.128	224.6
2961.447	217.6
2964.765	222.6
2968.079	214.6
2971.39	229.6
2974.699	223.6
2978.005	226.6
2981.308	222.6
2984.609	219.6
2987.907	218.6
2991.202	224.6
2994.494	229.6
2997.784	217.6
3001.07	247.6
3004.355	243.6
3007.636	240.6
3010.915	232.6
3014.191	238.6
3017.464	243.6
3020.734	237.6
3024.002	252.6
3027.267	258.6
3030.53	256.6
3033.789	271.6
3037.046	276.6
3040.301	274.6
3043.552	303.6
3046.801	295.6
3050.048	314.6
3053.291	326.6
3056.532	334.6
3059.771	347.6
3063.006	363.6
3066.239	362.6
3069.469	381.6
3072.697	380.6
3075.922	395.6
3079.144	410.6
3082.364	414.6
3085.581	437.6
3088.795	439.6
3092.007	457.6
3095.216	456.6
3098.423	475.6
3101.627	472.6
3104.828	496.6
3108.026	499.6
3111.222	513.6
3114.416	506.6
3117.607	526.6
3120.795	545.6
3123.98	542.6
3127.163	560.6
3130.344	564.6
3133.521	585.6
3136.696	599.6
3139.869	617.6
3143.039	627.6
3146.206	629.6
3149.371	637.6
3152.533	650.6
3155.693	660.6
3158.85	658.6
3162.005	649.6
3165.157	661.6
3168.306	675.6
3171.453	671.6
3174.597	679.6
3177.739	678.6
3180.878	690.6
3184.014	712.6
3187.149	685.6
3190.28	683.6
3193.409	698.6
3196.536	689.6
3199.659	699.6
3202.781	710.6
3205.9	694.6
3209.016	713.6
3212.13	713.6
3215.241	704.6
3218.35	697.6
3221.456	684.6
3224.56	676.6
3227.661	664.6
3230.76	661.6
3233.856	649.6
3236.95	648.6
3240.041	627.6
3243.13	601.6
3246.216	611.6
3249.3	598.6
3252.382	592.6
3255.46	589.6
3258.537	583.6
3261.611	577.6
3264.682	574.6
3267.751	574.6
3270.818	559.6
3273.882	571.6
3276.943	553.6
3280.002	561.6
3283.059	545.6
3286.113	540.6
3289.165	543.6
3292.214	539.6
3295.261	522.6
3298.306	529.6
3301.348	520.6
3304.387	510.6
3307.425	513.6
3310.459	497.6
3313.492	493.6
3316.521	472.6
3319.549	498.6
3322.574	482.6
3325.597	483.6
3328.617	486.6
3331.635	487.6
3334.65	475.6
3337.663	462.6
3340.674	478.6
3343.682	484.6
3346.688	476.6
3349.691	468.6
3352.692	474.6
3355.691	468.6
3358.687	453.6
3361.681	451.6
3364.673	450.6
3367.662	434.6
3370.649	435.6
3373.633	415.6
3376.615	417.6
3379.595	403.6
3382.572	407.6
3385.547	409.6
3388.52	386.6
3391.49	395.6
3394.458	383.6
3397.424	373.6
3400.387	368.6
3403.348	363.6
3406.307	359.6
3409.263	353.6
3412.217	353.6
3415.168	344.6
3418.118	349.6
3421.065	330.6
3424.009	325.6
3426.951	312.6
3429.891	324.6
3432.829	307.6
3435.764	298.6
3438.697	287.6
3441.628	292.6
3444.557	272.6
3447.483	268.6
3450.407	244.6
3453.328	240.6
3456.247	229.6
3459.164	224.6
3462.079	209.6
3464.991	200.6
3467.902	197.6
3470.809	188.6
3473.715	177.6
3476.618	165.6
3479.519	157.6
3482.418	153.6
3485.315	142.6
3488.209	133.6
3491.101	137.6
3493.99	130.6
3496.878	124.6
3499.763	116.6
3502.646	100.6
3505.527	94.6
3508.405	86.6
3511.281	78.6
3514.155	73.6
3517.027	73.6
3519.897	59.6
3522.764	49.6
3525.629	40.6
3528.492	37.6
3531.352	30.6
3534.211	22.6
3537.067	12.6
3539.921	16.6
3542.773	9.6
3545.622	5.6
3548.469	-7.4
3551.315	-9.4
3554.157	-17.4
3556.998	-24.4
3559.837	-22.4
3562.673	-27.4
3565.507	-21.4
3568.339	-36.4
3571.169	-40.4
3573.996	-42.4
3576.822	-38.4
3579.645	-45.4
3582.466	-50.4
3585.285	-58.4
3588.101	-49.4
3590.916	-62.4
3593.728	-68.4
3596.538	-67.4
3599.346	-72.4
3602.152	-76.4
3604.956	-69.4
3607.757	-72.4
3610.556	-84.4
3613.354	-75.4
3616.149	-83.4
3618.942	-88.4
3621.732	-88.4
3624.521	-90.4
3627.307	-93.4
3630.092	-94.4
3632.874	-98.4
3635.654	-97.4
3638.432	-95.4
3641.208	-93.4
3643.982	-100.4
3646.753	-108.4
3649.523	-110.4
3652.29	-104.4
3655.055	-104.4
3657.818	-112.4
3660.579	-109.4
3663.338	-115.4
3666.095	-114.4
3668.849	-118.4
3671.602	-122.4
3674.352	-116.4
3677.101	-126.4
3679.847	-124.4
3682.591	-125.4
3685.333	-121.4
3688.073	-124.4
3690.811	-125.4
3693.547	-134.4
3696.281	-133.4
3699.013	-133.4
3701.742	-129.4
3704.47	-131.4
3707.195	-125.4
3709.919	-135.4
3712.64	-136.4
3715.359	-140.4
3718.076	-139.4
3720.792	-139.4
3723.505	-139.4
3726.216	-140.4
3728.925	-139.4
3731.632	-135.4
3734.336	-145.4
3737.039	-135.4
3739.74	-142.4
3742.439	-151.4
3745.136	-139.4
3747.83	-145.4
3750.523	-141.4
3753.213	-150.4
3755.902	-141.4
3758.589	-149.4
3761.273	-144.4
3763.956	-140.4
3766.636	-148.4
3769.315	-140.4
3771.991	-142.4
3774.665	-145.4
3777.338	-137.4
3780.008	-145.4
3782.677	-148.4
3785.343	-142.4
3788.007	-154.4
3790.67	-149.4
3793.33	-140.4
3795.989	-143.4
3798.645	-145.4
3801.299	-143.4
3803.952	-158.4
3806.602	-148.4
3809.251	-158.4
3811.897	-158.4
3814.542	-148.4
3817.184	-145.4
3819.825	-143.4
3822.463	-147.4
3825.1	-151.4
3827.735	-149.4
3830.367	-152.4
3832.998	-154.4
3835.627	-148.4
3838.253	-143.4
3840.878	-144.4
3843.501	-145.4
3846.122	-147.4
3848.741	-157.4
3851.358	-151.4
3853.973	-152.4
3856.586	-145.4
3859.197	-151.4
3861.806	-143.4
3864.414	-149.4
3867.019	-143.4
3869.622	-153.4
3872.224	-142.4
3874.823	-122.4
3877.421	-101.4
3880.016	-77.4
3882.61	-40.4
3885.202	-41.4
3887.792	-62.4
3890.38	-106.4
3892.966	-129.4
3895.55	-134.4
3898.132	-145.4
3900.713	-147.4
3903.291	-153.4
3905.868	-149.4
3908.442	-149.4
3911.015	-154.4
3913.586	-153.4
3916.155	-149.4
3918.722	-154.4
3921.287	-147.4
3923.85	-150.4
3926.411	-154.4
3928.971	-151.4
3931.528	-154.4
3934.084	-153.4
3936.638	-146.4
3939.19	-156.4
3941.74	-157.4
3944.288	-149.4
3946.834	-150.4
3949.378	-151.4
3951.921	-152.4
3954.462	-161.4
3957	-150.4
3959.537	-145.4
3962.072	-150.4
3964.606	-147.4
3967.137	-150.4
3969.667	-154.4
3972.194	-156.4
3974.72	-149.4
3977.244	-152.4
3979.766	-152.4
3982.286	-148.4
3984.805	-149.4
3987.321	-151.4
3989.836	-146.4
3992.349	-148.4
3994.86	-153.4
3997.369	-150.4
3999.877	-150.4
4002.382	-142.4
4004.886	-152.4
4007.388	-144.4
4009.888	-147.4
4012.386	-152.4
4014.883	-151.4
4017.377	-148.4
4019.87	-148.4
4022.361	-153.4
4024.85	-152.4
4027.338	-150.4
4029.823	-147.4
4032.307	-146.4
4034.789	-149.4
4037.269	-149.4
4039.747	-146.4
4042.224	-146.4
4044.699	-151.4
4047.172	-149.4
4049.643	-149.4
4052.112	-156.4
4054.58	-155.4
4057.046	-155.4
4059.51	-150.4
4061.972	-143.4
4064.432	-147.4
4066.891	-153.4
4069.348	-153.4
4071.803	-154.4
4074.256	-151.4
4076.708	-148.4
4079.158	-147.4
4081.606	-139.4
4084.052	-148.4
4086.497	-149.4
4088.939	-139.4
4091.38	-149.4
4093.819	-150.4
4096.257	-159.4
4098.693	-154.4
4101.127	-158.4
4103.559	-153.4
4105.989	11.6
4108.418	8.6
4110.845	5.6
4113.27	2.6
4115.694	2.6
4118.115	0.6
4120.535	-148.4
4122.954	-154.4
4125.37	-149.4
4127.785	-152.4
4130.198	-150.4
4132.609	-150.4
4135.019	-160.4
4137.427	-158.4
4139.833	-157.4
4142.237	-156.4
