Data from 2018-2-8_conc=3_n=7_RamanShift_02.txt Node
Date: Mon Mar 12 14:48:28 IST 2018
User: aro
Spectrometer: QEPB0276
Trigger mode: 0
Integration Time (sec): 3.000000E1
Scans to average: 1
Electric dark correction enabled: true
Nonlinearity correction enabled: false
Boxcar width: 0
XAxis mode: Raman Shifts
Number of Pixels in Spectrum: 1044
>>>>>Begin Spectral Data<<<<<
160.701	18.8
166.742	50.8
172.777	115.8
178.805	343.8
184.826	945.8
190.841	2027.8
196.849	3376.8
202.85	4460.8
208.845	4843.8
214.833	4871.8
220.815	4788.8
226.789	4729.8
232.758	4790.8
238.719	4755.8
244.674	4725.8
250.623	4686.8
256.565	4576.8
262.5	4546.8
268.429	4475.8
274.351	4409.8
280.267	4391.8
286.176	4375.8
292.079	4341.8
297.975	4314.8
303.865	4311.8
309.748	4311.8
315.625	4272.8
321.495	4276.8
327.359	4288.8
333.217	4282.8
339.068	4273.8
344.912	4295.8
350.751	4289.8
356.583	4277.8
362.408	4299.8
368.227	4345.8
374.04	4317.8
379.847	4353.8
385.647	4393.8
391.44	4381.8
397.228	4391.8
403.009	4442.8
408.784	4466.8
414.553	4455.8
420.315	4471.8
426.071	4478.8
431.821	4504.8
437.565	4462.8
443.302	4473.8
449.033	4455.8
454.758	4422.8
460.477	4408.8
466.189	4372.8
471.896	4346.8
477.596	4315.8
483.29	4299.8
488.978	4307.8
494.66	4262.8
500.335	4235.8
506.005	4100.8
511.668	3942.8
517.325	3839.8
522.977	3711.8
528.622	3653.8
534.261	3571.8
539.894	3541.8
545.521	3495.8
551.141	3428.8
556.756	3441.8
562.365	3442.8
567.968	3413.8
573.565	3380.8
579.155	3370.8
584.74	3335.8
590.319	3311.8
595.892	3334.8
601.459	3295.8
607.02	3312.8
612.575	3287.8
618.124	3240.8
623.667	3212.8
629.204	3198.8
634.735	3138.8
640.261	3118.8
645.781	3113.8
651.294	3112.8
656.802	3102.8
662.304	3105.8
667.8	3108.8
673.29	3082.8
678.775	3089.8
684.254	3068.8
689.726	3035.8
695.193	3025.8
700.655	3004.8
706.11	2997.8
711.56	2984.8
717.004	2959.8
722.442	2935.8
727.874	2925.8
733.301	2934.8
738.722	2911.8
744.137	2936.8
749.547	2919.8
754.951	2910.8
760.349	2894.8
765.741	2906.8
771.128	2931.8
776.509	2959.8
781.885	2974.8
787.254	2977.8
792.618	2974.8
797.977	2952.8
803.33	2922.8
808.677	2914.8
814.019	2900.8
819.355	2895.8
824.686	2851.8
830.011	2835.8
835.33	2839.8
840.644	2834.8
845.952	2798.8
851.255	2828.8
856.552	2785.8
861.844	2790.8
867.13	2762.8
872.41	2753.8
877.686	2702.8
882.955	2703.8
888.219	2686.8
893.478	2644.8
898.731	2611.8
903.979	2577.8
909.221	2574.8
914.458	2551.8
919.69	2536.8
924.916	2572.8
930.136	2567.8
935.351	2543.8
940.561	2559.8
945.766	2580.8
950.965	2566.8
956.158	2518.8
961.347	2488.8
966.529	2479.8
971.707	2408.8
976.879	2402.8
982.046	2360.8
987.208	2359.8
992.364	2374.8
997.515	2376.8
1002.66	2418.8
1007.801	2431.8
1012.936	2460.8
1018.066	2434.8
1023.19	2452.8
1028.309	2452.8
1033.423	2460.8
1038.532	2434.8
1043.636	2403.8
1048.734	2376.8
1053.827	2365.8
1058.915	2333.8
1063.998	2315.8
1069.075	2301.8
1074.147	2306.8
1079.214	2316.8
1084.276	2321.8
1089.333	2324.8
1094.385	2362.8
1099.431	2359.8
1104.472	2341.8
1109.509	2340.8
1114.54	2302.8
1119.565	2271.8
1124.586	2233.8
1129.602	2220.8
1134.613	2179.8
1139.618	2160.8
1144.619	2182.8
1149.614	2150.8
1154.604	2175.8
1159.589	2167.8
1164.57	2189.8
1169.545	2205.8
1174.515	2229.8
1179.48	2180.8
1184.44	2189.8
1189.395	2146.8
1194.345	2141.8
1199.29	2122.8
1204.23	2129.8
1209.165	2138.8
1214.095	2130.8
1219.021	2160.8
1223.941	2176.8
1228.856	2179.8
1233.766	2178.8
1238.672	2175.8
1243.572	2168.8
1248.467	2156.8
1253.358	2128.8
1258.244	2101.8
1263.124	2088.8
1268	2032.8
1272.871	2018.8
1277.737	1998.8
1282.599	1989.8
1287.455	2007.8
1292.306	1996.8
1297.153	1988.8
1301.995	2007.8
1306.832	2013.8
1311.664	2035.8
1316.491	2060.8
1321.314	2039.8
1326.132	2031.8
1330.945	2006.8
1335.753	1961.8
1340.556	1943.8
1345.354	1920.8
1350.148	1886.8
1354.937	1846.8
1359.722	1823.8
1364.501	1805.8
1369.276	1754.8
1374.046	1743.8
1378.811	1722.8
1383.572	1709.8
1388.327	1698.8
1393.079	1702.8
1397.825	1713.8
1402.567	1720.8
1407.304	1702.8
1412.036	1696.8
1416.764	1700.8
1421.487	1711.8
1426.205	1721.8
1430.919	1700.8
1435.628	1741.8
1440.333	1748.8
1445.032	1762.8
1449.727	1778.8
1454.418	1800.8
1459.104	1790.8
1463.785	1762.8
1468.462	1717.8
1473.134	1702.8
1477.802	1668.8
1482.465	1639.8
1487.123	1594.8
1491.777	1575.8
1496.426	1557.8
1501.071	1550.8
1505.711	1542.8
1510.347	1544.8
1514.978	1529.8
1519.604	1530.8
1524.226	1536.8
1528.844	1515.8
1533.457	1486.8
1538.065	1494.8
1542.669	1504.8
1547.269	1511.8
1551.864	1490.8
1556.454	1518.8
1561.041	1525.8
1565.622	1553.8
1570.199	1545.8
1574.772	1548.8
1579.34	1580.8
1583.904	1595.8
1588.464	1612.8
1593.019	1618.8
1597.569	1634.8
1602.115	1621.8
1606.657	1609.8
1611.195	1610.8
1615.728	1604.8
1620.256	1593.8
1624.78	1600.8
1629.3	1615.8
1633.816	1607.8
1638.327	1617.8
1642.834	1624.8
1647.336	1634.8
1651.834	1656.8
1656.328	1632.8
1660.817	1618.8
1665.302	1622.8
1669.783	1581.8
1674.259	1536.8
1678.732	1527.8
1683.199	1482.8
1687.663	1452.8
1692.122	1389.8
1696.577	1324.8
1701.028	1279.8
1705.474	1234.8
1709.917	1184.8
1714.355	1174.8
1718.788	1166.8
1723.218	1146.8
1727.643	1140.8
1732.064	1139.8
1736.481	1145.8
1740.893	1111.8
1745.301	1081.8
1749.705	1065.8
1754.105	1054.8
1758.501	1039.8
1762.893	1015.8
1767.28	1003.8
1771.663	991.8
1776.042	988.8
1780.417	980.8
1784.787	967.8
1789.154	956.8
1793.516	955.8
1797.874	939.8
1802.228	931.8
1806.578	910.8
1810.924	911.8
1815.266	897.8
1819.603	901.8
1823.937	888.8
1828.266	891.8
1832.591	893.8
1836.913	889.8
1841.23	908.8
1845.543	895.8
1849.852	882.8
1854.156	887.8
1858.457	892.8
1862.754	896.8
1867.047	895.8
1871.335	899.8
1875.62	893.8
1879.9	891.8
1884.177	871.8
1888.449	866.8
1892.718	855.8
1896.982	849.8
1901.243	838.8
1905.499	840.8
1909.752	834.8
1914	816.8
1918.245	813.8
1922.485	777.8
1926.722	801.8
1930.954	796.8
1935.183	789.8
1939.408	782.8
1943.628	782.8
1947.845	769.8
1952.058	755.8
1956.267	752.8
1960.472	752.8
1964.673	739.8
1968.87	727.8
1973.063	730.8
1977.252	720.8
1981.438	726.8
1985.619	726.8
1989.797	720.8
1993.971	725.8
1998.14	739.8
2002.306	724.8
2006.469	727.8
2010.627	742.8
2014.781	744.8
2018.932	730.8
2023.078	723.8
2027.221	724.8
2031.36	715.8
2035.495	715.8
2039.627	697.8
2043.754	680.8
2047.878	684.8
2051.998	681.8
2056.114	673.8
2060.226	669.8
2064.334	680.8
2068.439	669.8
2072.54	680.8
2076.637	673.8
2080.73	664.8
2084.82	662.8
2088.906	662.8
2092.988	656.8
2097.066	655.8
2101.14	636.8
2105.211	632.8
2109.278	629.8
2113.342	621.8
2117.401	600.8
2121.457	597.8
2125.509	601.8
2129.558	581.8
2133.602	597.8
2137.643	600.8
2141.681	586.8
2145.714	603.8
2149.744	600.8
2153.77	589.8
2157.793	593.8
2161.812	592.8
2165.827	582.8
2169.838	565.8
2173.846	558.8
2177.851	542.8
2181.851	538.8
2185.848	519.8
2189.841	543.8
2193.831	534.8
2197.817	528.8
2201.799	531.8
2205.778	519.8
2209.753	514.8
2213.725	531.8
2217.693	507.8
2221.657	516.8
2225.618	512.8
2229.575	512.8
2233.529	512.8
2237.479	506.8
2241.425	499.8
2245.368	487.8
2249.307	486.8
2253.243	476.8
2257.175	468.8
2261.104	462.8
2265.029	461.8
2268.95	453.8
2272.868	449.8
2276.783	441.8
2280.694	435.8
2284.601	431.8
2288.505	422.8
2292.405	420.8
2296.302	417.8
2300.195	411.8
2304.085	415.8
2307.971	397.8
2311.854	410.8
2315.734	389.8
2319.609	382.8
2323.482	386.8
2327.351	385.8
2331.216	392.8
2335.078	412.8
2338.937	389.8
2342.792	380.8
2346.643	368.8
2350.492	367.8
2354.336	375.8
2358.178	376.8
2362.015	369.8
2365.85	368.8
2369.681	374.8
2373.508	366.8
2377.333	377.8
2381.153	370.8
2384.971	366.8
2388.785	363.8
2392.595	365.8
2396.402	355.8
2400.206	360.8
2404.007	352.8
2407.804	357.8
2411.597	355.8
2415.388	341.8
2419.174	343.8
2422.958	346.8
2426.738	343.8
2430.515	337.8
2434.289	337.8
2438.059	329.8
2441.825	332.8
2445.589	320.8
2449.349	320.8
2453.106	318.8
2456.859	325.8
2460.61	321.8
2464.356	304.8
2468.1	314.8
2471.84	297.8
2475.577	296.8
2479.311	293.8
2483.041	291.8
2486.768	292.8
2490.492	283.8
2494.213	288.8
2497.93	282.8
2501.644	289.8
2505.355	273.8
2509.062	275.8
2512.766	277.8
2516.467	271.8
2520.165	266.8
2523.859	268.8
2527.551	260.8
2531.239	259.8
2534.923	250.8
2538.605	242.8
2542.283	251.8
2545.958	252.8
2549.63	252.8
2553.299	239.8
2556.964	240.8
2560.626	234.8
2564.285	231.8
2567.941	225.8
2571.594	230.8
2575.243	229.8
2578.89	226.8
2582.533	219.8
2586.173	221.8
2589.809	210.8
2593.443	210.8
2597.073	214.8
2600.701	210.8
2604.325	209.8
2607.946	205.8
2611.564	211.8
2615.178	209.8
2618.79	205.8
2622.398	204.8
2626.004	201.8
2629.606	196.8
2633.205	193.8
2636.801	191.8
2640.394	202.8
2643.983	198.8
2647.57	190.8
2651.153	184.8
2654.734	183.8
2658.311	174.8
2661.885	175.8
2665.456	179.8
2669.025	169.8
2672.589	177.8
2676.151	172.8
2679.71	163.8
2683.266	174.8
2686.819	173.8
2690.368	165.8
2693.915	158.8
2697.458	161.8
2700.999	162.8
2704.536	157.8
2708.071	139.8
2711.602	151.8
2715.13	145.8
2718.656	139.8
2722.178	140.8
2725.697	137.8
2729.214	134.8
2732.727	140.8
2736.237	137.8
2739.744	130.8
2743.249	139.8
2746.75	128.8
2750.248	133.8
2753.743	121.8
2757.236	123.8
2760.725	116.8
2764.211	109.8
2767.695	112.8
2771.175	103.8
2774.652	108.8
2778.127	108.8
2781.598	111.8
2785.067	112.8
2788.532	110.8
2791.995	111.8
2795.455	115.8
2798.911	111.8
2802.365	113.8
2805.816	114.8
2809.264	115.8
2812.709	116.8
2816.151	109.8
2819.59	120.8
2823.026	108.8
2826.46	115.8
2829.89	109.8
2833.318	114.8
2836.742	123.8
2840.164	112.8
2843.583	109.8
2846.999	122.8
2850.412	117.8
2853.822	117.8
2857.229	120.8
2860.634	127.8
2864.035	120.8
2867.434	125.8
2870.83	140.8
2874.223	143.8
2877.613	148.8
2881	157.8
2884.385	150.8
2887.766	140.8
2891.145	150.8
2894.521	151.8
2897.894	156.8
2901.264	156.8
2904.631	151.8
2907.996	160.8
2911.358	162.8
2914.717	160.8
2918.073	167.8
2921.426	168.8
2924.777	168.8
2928.124	185.8
2931.469	179.8
2934.811	182.8
2938.15	192.8
2941.487	190.8
2944.821	191.8
2948.152	193.8
2951.48	195.8
2954.805	201.8
2958.128	195.8
2961.447	188.8
2964.765	195.8
2968.079	180.8
2971.39	192.8
2974.699	196.8
2978.005	190.8
2981.308	200.8
2984.609	190.8
2987.907	184.8
2991.202	205.8
2994.494	196.8
2997.784	207.8
3001.07	215.8
3004.355	220.8
3007.636	213.8
3010.915	212.8
3014.191	227.8
3017.464	225.8
3020.734	217.8
3024.002	224.8
3027.267	234.8
3030.53	241.8
3033.789	238.8
3037.046	251.8
3040.301	252.8
3043.552	268.8
3046.801	266.8
3050.048	279.8
3053.291	277.8
3056.532	290.8
3059.771	297.8
3063.006	309.8
3066.239	315.8
3069.469	327.8
3072.697	344.8
3075.922	352.8
3079.144	369.8
3082.364	375.8
3085.581	384.8
3088.795	377.8
3092.007	402.8
3095.216	392.8
3098.423	400.8
3101.627	418.8
3104.828	432.8
3108.026	433.8
3111.222	450.8
3114.416	458.8
3117.607	456.8
3120.795	472.8
3123.98	472.8
3127.163	496.8
3130.344	515.8
3133.521	517.8
3136.696	539.8
3139.869	543.8
3143.039	550.8
3146.206	553.8
3149.371	563.8
3152.533	576.8
3155.693	578.8
3158.85	582.8
3162.005	579.8
3165.157	591.8
3168.306	589.8
3171.453	594.8
3174.597	606.8
3177.739	600.8
3180.878	591.8
3184.014	616.8
3187.149	613.8
3190.28	618.8
3193.409	601.8
3196.536	613.8
3199.659	612.8
3202.781	619.8
3205.9	619.8
3209.016	618.8
3212.13	618.8
3215.241	625.8
3218.35	615.8
3221.456	603.8
3224.56	610.8
3227.661	593.8
3230.76	572.8
3233.856	564.8
3236.95	568.8
3240.041	561.8
3243.13	545.8
3246.216	547.8
3249.3	541.8
3252.382	534.8
3255.46	523.8
3258.537	517.8
3261.611	516.8
3264.682	507.8
3267.751	509.8
3270.818	509.8
3273.882	501.8
3276.943	500.8
3280.002	503.8
3283.059	493.8
3286.113	492.8
3289.165	492.8
3292.214	474.8
3295.261	467.8
3298.306	474.8
3301.348	462.8
3304.387	459.8
3307.425	462.8
3310.459	458.8
3313.492	430.8
3316.521	432.8
3319.549	434.8
3322.574	427.8
3325.597	418.8
3328.617	426.8
3331.635	422.8
3334.65	420.8
3337.663	415.8
3340.674	413.8
3343.682	418.8
3346.688	419.8
3349.691	421.8
3352.692	403.8
3355.691	413.8
3358.687	407.8
3361.681	410.8
3364.673	407.8
3367.662	400.8
3370.649	385.8
3373.633	368.8
3376.615	372.8
3379.595	356.8
3382.572	370.8
3385.547	358.8
3388.52	352.8
3391.49	341.8
3394.458	346.8
3397.424	330.8
3400.387	332.8
3403.348	322.8
3406.307	312.8
3409.263	317.8
3412.217	311.8
3415.168	307.8
3418.118	303.8
3421.065	293.8
3424.009	297.8
3426.951	291.8
3429.891	276.8
3432.829	278.8
3435.764	271.8
3438.697	258.8
3441.628	252.8
3444.557	243.8
3447.483	236.8
3450.407	229.8
3453.328	217.8
3456.247	210.8
3459.164	212.8
3462.079	191.8
3464.991	185.8
3467.902	175.8
3470.809	172.8
3473.715	162.8
3476.618	150.8
3479.519	155.8
3482.418	141.8
3485.315	133.8
3488.209	126.8
3491.101	124.8
3493.99	121.8
3496.878	116.8
3499.763	109.8
3502.646	102.8
3505.527	90.8
3508.405	93.8
3511.281	89.8
3514.155	72.8
3517.027	68.8
3519.897	60.8
3522.764	45.8
3525.629	48.8
3528.492	43.8
3531.352	38.8
3534.211	28.8
3537.067	25.8
3539.921	25.8
3542.773	16.8
3545.622	10.8
3548.469	-0.2
3551.315	2.8
3554.157	-4.2
3556.998	-17.2
3559.837	-10.2
3562.673	-14.2
3565.507	-19.2
3568.339	-20.2
3571.169	-28.2
3573.996	-28.2
3576.822	-32.2
3579.645	-30.2
3582.466	-35.2
3585.285	-44.2
3588.101	-33.2
3590.916	-47.2
3593.728	-56.2
3596.538	-49.2
3599.346	-57.2
3602.152	-53.2
3604.956	-58.2
3607.757	-49.2
3610.556	-59.2
3613.354	-57.2
3616.149	-68.2
3618.942	-69.2
3621.732	-64.2
3624.521	-73.2
3627.307	-74.2
3630.092	-71.2
3632.874	-73.2
3635.654	-83.2
3638.432	-76.2
3641.208	-80.2
3643.982	-86.2
3646.753	-86.2
3649.523	-90.2
3652.29	-85.2
3655.055	-85.2
3657.818	-87.2
3660.579	-89.2
3663.338	-94.2
3666.095	-96.2
3668.849	-99.2
3671.602	-98.2
3674.352	-101.2
3677.101	-101.2
3679.847	-102.2
3682.591	-108.2
3685.333	-100.2
3688.073	-99.2
3690.811	-106.2
3693.547	-112.2
3696.281	-111.2
3699.013	-109.2
3701.742	-114.2
3704.47	-106.2
3707.195	-107.2
3709.919	-104.2
3712.64	-106.2
3715.359	-111.2
3718.076	-113.2
3720.792	-118.2
3723.505	-116.2
3726.216	-110.2
3728.925	-115.2
3731.632	-115.2
3734.336	-124.2
3737.039	-114.2
3739.74	-124.2
3742.439	-129.2
3745.136	-113.2
3747.83	-122.2
3750.523	-116.2
3753.213	-122.2
3755.902	-118.2
3758.589	-119.2
3761.273	-117.2
3763.956	-116.2
3766.636	-119.2
3769.315	-114.2
3771.991	-120.2
3774.665	-121.2
3777.338	-114.2
3780.008	-118.2
3782.677	-120.2
3785.343	-121.2
3788.007	-119.2
3790.67	-120.2
3793.33	-121.2
3795.989	-118.2
3798.645	-121.2
3801.299	-124.2
3803.952	-126.2
3806.602	-120.2
3809.251	-128.2
3811.897	-126.2
3814.542	-121.2
3817.184	-120.2
3819.825	-123.2
3822.463	-121.2
3825.1	-122.2
3827.735	-123.2
3830.367	-123.2
3832.998	-128.2
3835.627	-123.2
3838.253	-118.2
3840.878	-123.2
3843.501	-116.2
3846.122	-122.2
3848.741	-128.2
3851.358	-122.2
3853.973	-127.2
3856.586	-116.2
3859.197	-122.2
3861.806	-121.2
3864.414	-128.2
3867.019	-122.2
3869.622	-123.2
3872.224	-111.2
3874.823	-104.2
3877.421	-90.2
3880.016	-66.2
3882.61	-43.2
3885.202	-45.2
3887.792	-57.2
3890.38	-87.2
3892.966	-111.2
3895.55	-117.2
3898.132	-118.2
3900.713	-122.2
3903.291	-126.2
3905.868	-125.2
3908.442	-126.2
3911.015	-128.2
3913.586	-127.2
3916.155	-125.2
3918.722	-124.2
3921.287	-120.2
3923.85	-126.2
3926.411	-129.2
3928.971	-127.2
3931.528	-128.2
3934.084	-125.2
3936.638	-120.2
3939.19	-129.2
3941.74	-127.2
3944.288	-128.2
3946.834	-122.2
3949.378	-125.2
3951.921	-125.2
3954.462	-131.2
3957	-126.2
3959.537	-123.2
3962.072	-124.2
3964.606	-122.2
3967.137	-122.2
3969.667	-129.2
3972.194	-127.2
3974.72	-121.2
3977.244	-124.2
3979.766	-123.2
3982.286	-123.2
3984.805	-128.2
3987.321	-128.2
3989.836	-124.2
3992.349	-126.2
3994.86	-122.2
3997.369	-122.2
3999.877	-123.2
4002.382	-120.2
4004.886	-128.2
4007.388	-121.2
4009.888	-124.2
4012.386	-125.2
4014.883	-122.2
4017.377	-125.2
4019.87	-125.2
4022.361	-123.2
4024.85	-130.2
4027.338	-127.2
4029.823	-116.2
4032.307	-120.2
4034.789	-123.2
4037.269	-124.2
4039.747	-116.2
4042.224	-126.2
4044.699	-127.2
4047.172	-123.2
4049.643	-120.2
4052.112	-121.2
4054.58	-124.2
4057.046	-125.2
4059.51	-129.2
4061.972	-122.2
4064.432	-128.2
4066.891	-123.2
4069.348	-123.2
4071.803	-126.2
4074.256	-122.2
4076.708	-119.2
4079.158	-124.2
4081.606	-121.2
4084.052	-132.2
4086.497	-126.2
4088.939	-118.2
4091.38	-124.2
4093.819	-123.2
4096.257	-129.2
4098.693	-123.2
4101.127	-133.2
4103.559	-127.2
4105.989	14.8
4108.418	5.8
4110.845	14.8
4113.27	10.8
4115.694	5.8
4118.115	-3.2
4120.535	-129.2
4122.954	-127.2
4125.37	-126.2
4127.785	-127.2
4130.198	-122.2
4132.609	-124.2
4135.019	-130.2
4137.427	-133.2
4139.833	-130.2
4142.237	-135.2
