Data from 2018-2-8_conc=5_n=4_RamanShift_05.txt Node
Date: Mon Mar 12 16:02:28 IST 2018
User: aro
Spectrometer: QEPB0276
Trigger mode: 0
Integration Time (sec): 3.000000E1
Scans to average: 1
Electric dark correction enabled: true
Nonlinearity correction enabled: false
Boxcar width: 0
XAxis mode: Raman Shifts
Number of Pixels in Spectrum: 1044
>>>>>Begin Spectral Data<<<<<
160.701	17.6
166.742	29.6
172.777	93.6
178.805	293.6
184.826	810.6
190.841	1759.6
196.849	2913.6
202.85	3838.6
208.845	4186.6
214.833	4173.6
220.815	4158.6
226.789	4131.6
232.758	4141.6
238.719	4139.6
244.674	4110.6
250.623	4093.6
256.565	4030.6
262.5	3957.6
268.429	3949.6
274.351	3915.6
280.267	3870.6
286.176	3848.6
292.079	3854.6
297.975	3849.6
303.865	3821.6
309.748	3818.6
315.625	3835.6
321.495	3805.6
327.359	3809.6
333.217	3801.6
339.068	3812.6
344.912	3828.6
350.751	3851.6
356.583	3860.6
362.408	3836.6
368.227	3833.6
374.04	3862.6
379.847	3875.6
385.647	3869.6
391.44	3903.6
397.228	3923.6
403.009	3912.6
408.784	3951.6
414.553	3967.6
420.315	3991.6
426.071	3994.6
431.821	3997.6
437.565	3985.6
443.302	3970.6
449.033	3956.6
454.758	3955.6
460.477	3920.6
466.189	3899.6
471.896	3874.6
477.596	3826.6
483.29	3807.6
488.978	3831.6
494.66	3785.6
500.335	3764.6
506.005	3639.6
511.668	3542.6
517.325	3428.6
522.977	3329.6
528.622	3265.6
534.261	3218.6
539.894	3173.6
545.521	3141.6
551.141	3127.6
556.756	3106.6
562.365	3077.6
567.968	3043.6
573.565	3023.6
579.155	3039.6
584.74	3008.6
590.319	3001.6
595.892	3002.6
601.459	2996.6
607.02	2987.6
612.575	2981.6
618.124	2945.6
623.667	2899.6
629.204	2889.6
634.735	2858.6
640.261	2837.6
645.781	2809.6
651.294	2801.6
656.802	2793.6
662.304	2808.6
667.8	2799.6
673.29	2793.6
678.775	2763.6
684.254	2754.6
689.726	2751.6
695.193	2752.6
700.655	2751.6
706.11	2718.6
711.56	2704.6
717.004	2694.6
722.442	2657.6
727.874	2658.6
733.301	2655.6
738.722	2636.6
744.137	2635.6
749.547	2625.6
754.951	2613.6
760.349	2630.6
765.741	2637.6
771.128	2633.6
776.509	2673.6
781.885	2688.6
787.254	2683.6
792.618	2708.6
797.977	2707.6
803.33	2656.6
808.677	2639.6
814.019	2632.6
819.355	2610.6
824.686	2598.6
830.011	2574.6
835.33	2575.6
840.644	2569.6
845.952	2571.6
851.255	2552.6
856.552	2543.6
861.844	2525.6
867.13	2525.6
872.41	2506.6
877.686	2470.6
882.955	2456.6
888.219	2435.6
893.478	2424.6
898.731	2385.6
903.979	2366.6
909.221	2321.6
914.458	2323.6
919.69	2325.6
924.916	2306.6
930.136	2327.6
935.351	2336.6
940.561	2341.6
945.766	2320.6
950.965	2332.6
956.158	2278.6
961.347	2299.6
966.529	2249.6
971.707	2235.6
976.879	2209.6
982.046	2173.6
987.208	2172.6
992.364	2160.6
997.515	2179.6
1002.66	2201.6
1007.801	2224.6
1012.936	2214.6
1018.066	2252.6
1023.19	2220.6
1028.309	2247.6
1033.423	2232.6
1038.532	2225.6
1043.636	2203.6
1048.734	2172.6
1053.827	2152.6
1058.915	2143.6
1063.998	2118.6
1069.075	2109.6
1074.147	2110.6
1079.214	2114.6
1084.276	2126.6
1089.333	2145.6
1094.385	2163.6
1099.431	2145.6
1104.472	2138.6
1109.509	2141.6
1114.54	2089.6
1119.565	2098.6
1124.586	2052.6
1129.602	2041.6
1134.613	2024.6
1139.618	1994.6
1144.619	2023.6
1149.614	1984.6
1154.604	2000.6
1159.589	2004.6
1164.57	2009.6
1169.545	2011.6
1174.515	2025.6
1179.48	2011.6
1184.44	1985.6
1189.395	1988.6
1194.345	1968.6
1199.29	1943.6
1204.23	1940.6
1209.165	1934.6
1214.095	1970.6
1219.021	1977.6
1223.941	1979.6
1228.856	2008.6
1233.766	1978.6
1238.672	1980.6
1243.572	1990.6
1248.467	1995.6
1253.358	1972.6
1258.244	1938.6
1263.124	1919.6
1268	1873.6
1272.871	1828.6
1277.737	1824.6
1282.599	1824.6
1287.455	1828.6
1292.306	1829.6
1297.153	1831.6
1301.995	1848.6
1306.832	1870.6
1311.664	1855.6
1316.491	1881.6
1321.314	1856.6
1326.132	1868.6
1330.945	1813.6
1335.753	1805.6
1340.556	1778.6
1345.354	1746.6
1350.148	1715.6
1354.937	1680.6
1359.722	1669.6
1364.501	1653.6
1369.276	1605.6
1374.046	1590.6
1378.811	1572.6
1383.572	1556.6
1388.327	1552.6
1393.079	1556.6
1397.825	1560.6
1402.567	1552.6
1407.304	1566.6
1412.036	1569.6
1416.764	1567.6
1421.487	1566.6
1426.205	1566.6
1430.919	1580.6
1435.628	1598.6
1440.333	1601.6
1445.032	1630.6
1449.727	1628.6
1454.418	1648.6
1459.104	1628.6
1463.785	1600.6
1468.462	1579.6
1473.134	1549.6
1477.802	1535.6
1482.465	1501.6
1487.123	1466.6
1491.777	1430.6
1496.426	1435.6
1501.071	1412.6
1505.711	1414.6
1510.347	1422.6
1514.978	1394.6
1519.604	1411.6
1524.226	1412.6
1528.844	1373.6
1533.457	1371.6
1538.065	1373.6
1542.669	1357.6
1547.269	1371.6
1551.864	1372.6
1556.454	1403.6
1561.041	1426.6
1565.622	1397.6
1570.199	1397.6
1574.772	1425.6
1579.34	1422.6
1583.904	1464.6
1588.464	1454.6
1593.019	1466.6
1597.569	1470.6
1602.115	1458.6
1606.657	1458.6
1611.195	1454.6
1615.728	1443.6
1620.256	1450.6
1624.78	1456.6
1629.3	1451.6
1633.816	1459.6
1638.327	1459.6
1642.834	1445.6
1647.336	1478.6
1651.834	1483.6
1656.328	1461.6
1660.817	1473.6
1665.302	1449.6
1669.783	1434.6
1674.259	1401.6
1678.732	1371.6
1683.199	1337.6
1687.663	1295.6
1692.122	1270.6
1696.577	1194.6
1701.028	1155.6
1705.474	1126.6
1709.917	1097.6
1714.355	1065.6
1718.788	1064.6
1723.218	1057.6
1727.643	1075.6
1732.064	1055.6
1736.481	1058.6
1740.893	1029.6
1745.301	994.6
1749.705	979.6
1754.105	967.6
1758.501	952.6
1762.893	950.6
1767.28	936.6
1771.663	920.6
1776.042	905.6
1780.417	916.6
1784.787	914.6
1789.154	879.6
1793.516	876.6
1797.874	861.6
1802.228	851.6
1806.578	847.6
1810.924	839.6
1815.266	825.6
1819.603	832.6
1823.937	833.6
1828.266	827.6
1832.591	825.6
1836.913	819.6
1841.23	836.6
1845.543	839.6
1849.852	811.6
1854.156	833.6
1858.457	840.6
1862.754	837.6
1867.047	820.6
1871.335	834.6
1875.62	837.6
1879.9	834.6
1884.177	825.6
1888.449	806.6
1892.718	808.6
1896.982	803.6
1901.243	788.6
1905.499	776.6
1909.752	766.6
1914	758.6
1918.245	750.6
1922.485	736.6
1926.722	739.6
1930.954	745.6
1935.183	740.6
1939.408	720.6
1943.628	723.6
1947.845	711.6
1952.058	709.6
1956.267	706.6
1960.472	689.6
1964.673	707.6
1968.87	674.6
1973.063	672.6
1977.252	677.6
1981.438	682.6
1985.619	674.6
1989.797	669.6
1993.971	671.6
1998.14	692.6
2002.306	668.6
2006.469	684.6
2010.627	679.6
2014.781	691.6
2018.932	669.6
2023.078	693.6
2027.221	679.6
2031.36	667.6
2035.495	665.6
2039.627	651.6
2043.754	634.6
2047.878	626.6
2051.998	622.6
2056.114	618.6
2060.226	626.6
2064.334	623.6
2068.439	617.6
2072.54	625.6
2076.637	628.6
2080.73	612.6
2084.82	609.6
2088.906	614.6
2092.988	606.6
2097.066	598.6
2101.14	592.6
2105.211	581.6
2109.278	569.6
2113.342	560.6
2117.401	572.6
2121.457	567.6
2125.509	558.6
2129.558	548.6
2133.602	548.6
2137.643	550.6
2141.681	549.6
2145.714	553.6
2149.744	560.6
2153.77	546.6
2157.793	547.6
2161.812	542.6
2165.827	546.6
2169.838	532.6
2173.846	528.6
2177.851	515.6
2181.851	511.6
2185.848	499.6
2189.841	501.6
2193.831	498.6
2197.817	492.6
2201.799	489.6
2205.778	489.6
2209.753	496.6
2213.725	491.6
2217.693	500.6
2221.657	487.6
2225.618	490.6
2229.575	482.6
2233.529	479.6
2237.479	479.6
2241.425	473.6
2245.368	459.6
2249.307	464.6
2253.243	449.6
2257.175	450.6
2261.104	453.6
2265.029	428.6
2268.95	435.6
2272.868	418.6
2276.783	420.6
2280.694	410.6
2284.601	408.6
2288.505	399.6
2292.405	402.6
2296.302	396.6
2300.195	392.6
2304.085	398.6
2307.971	371.6
2311.854	385.6
2315.734	362.6
2319.609	365.6
2323.482	370.6
2327.351	370.6
2331.216	389.6
2335.078	388.6
2338.937	371.6
2342.792	359.6
2346.643	365.6
2350.492	356.6
2354.336	354.6
2358.178	355.6
2362.015	358.6
2365.85	357.6
2369.681	356.6
2373.508	354.6
2377.333	365.6
2381.153	355.6
2384.971	363.6
2388.785	364.6
2392.595	357.6
2396.402	348.6
2400.206	350.6
2404.007	352.6
2407.804	348.6
2411.597	345.6
2415.388	343.6
2419.174	342.6
2422.958	332.6
2426.738	340.6
2430.515	333.6
2434.289	343.6
2438.059	325.6
2441.825	326.6
2445.589	327.6
2449.349	332.6
2453.106	321.6
2456.859	317.6
2460.61	310.6
2464.356	315.6
2468.1	298.6
2471.84	294.6
2475.577	292.6
2479.311	294.6
2483.041	300.6
2486.768	300.6
2490.492	288.6
2494.213	294.6
2497.93	297.6
2501.644	290.6
2505.355	289.6
2509.062	283.6
2512.766	278.6
2516.467	280.6
2520.165	278.6
2523.859	272.6
2527.551	270.6
2531.239	259.6
2534.923	255.6
2538.605	250.6
2542.283	259.6
2545.958	245.6
2549.63	254.6
2553.299	251.6
2556.964	244.6
2560.626	246.6
2564.285	233.6
2567.941	244.6
2571.594	240.6
2575.243	231.6
2578.89	233.6
2582.533	222.6
2586.173	212.6
2589.809	211.6
2593.443	223.6
2597.073	219.6
2600.701	216.6
2604.325	210.6
2607.946	222.6
2611.564	213.6
2615.178	210.6
2618.79	215.6
2622.398	207.6
2626.004	206.6
2629.606	204.6
2633.205	200.6
2636.801	201.6
2640.394	199.6
2643.983	198.6
2647.57	193.6
2651.153	196.6
2654.734	188.6
2658.311	176.6
2661.885	183.6
2665.456	191.6
2669.025	181.6
2672.589	184.6
2676.151	178.6
2679.71	180.6
2683.266	168.6
2686.819	177.6
2690.368	174.6
2693.915	164.6
2697.458	165.6
2700.999	167.6
2704.536	162.6
2708.071	153.6
2711.602	155.6
2715.13	154.6
2718.656	143.6
2722.178	148.6
2725.697	150.6
2729.214	138.6
2732.727	143.6
2736.237	147.6
2739.744	140.6
2743.249	145.6
2746.75	140.6
2750.248	128.6
2753.743	133.6
2757.236	133.6
2760.725	118.6
2764.211	114.6
2767.695	116.6
2771.175	113.6
2774.652	110.6
2778.127	109.6
2781.598	111.6
2785.067	111.6
2788.532	113.6
2791.995	118.6
2795.455	121.6
2798.911	112.6
2802.365	128.6
2805.816	127.6
2809.264	121.6
2812.709	117.6
2816.151	122.6
2819.59	117.6
2823.026	125.6
2826.46	120.6
2829.89	116.6
2833.318	115.6
2836.742	125.6
2840.164	116.6
2843.583	120.6
2846.999	119.6
2850.412	120.6
2853.822	127.6
2857.229	110.6
2860.634	126.6
2864.035	122.6
2867.434	126.6
2870.83	128.6
2874.223	140.6
2877.613	147.6
2881	150.6
2884.385	153.6
2887.766	147.6
2891.145	139.6
2894.521	134.6
2897.894	152.6
2901.264	150.6
2904.631	141.6
2907.996	144.6
2911.358	146.6
2914.717	147.6
2918.073	150.6
2921.426	162.6
2924.777	165.6
2928.124	168.6
2931.469	160.6
2934.811	170.6
2938.15	164.6
2941.487	171.6
2944.821	170.6
2948.152	175.6
2951.48	172.6
2954.805	178.6
2958.128	172.6
2961.447	164.6
2964.765	169.6
2968.079	162.6
2971.39	164.6
2974.699	173.6
2978.005	168.6
2981.308	176.6
2984.609	179.6
2987.907	177.6
2991.202	174.6
2994.494	172.6
2997.784	181.6
3001.07	186.6
3004.355	193.6
3007.636	191.6
3010.915	188.6
3014.191	180.6
3017.464	188.6
3020.734	184.6
3024.002	190.6
3027.267	196.6
3030.53	199.6
3033.789	200.6
3037.046	207.6
3040.301	200.6
3043.552	220.6
3046.801	223.6
3050.048	230.6
3053.291	232.6
3056.532	246.6
3059.771	260.6
3063.006	263.6
3066.239	270.6
3069.469	271.6
3072.697	280.6
3075.922	297.6
3079.144	296.6
3082.364	305.6
3085.581	323.6
3088.795	319.6
3092.007	315.6
3095.216	331.6
3098.423	332.6
3101.627	347.6
3104.828	346.6
3108.026	355.6
3111.222	368.6
3114.416	378.6
3117.607	384.6
3120.795	389.6
3123.98	386.6
3127.163	405.6
3130.344	423.6
3133.521	427.6
3136.696	437.6
3139.869	439.6
3143.039	448.6
3146.206	468.6
3149.371	458.6
3152.533	464.6
3155.693	467.6
3158.85	479.6
3162.005	476.6
3165.157	483.6
3168.306	479.6
3171.453	472.6
3174.597	484.6
3177.739	490.6
3180.878	491.6
3184.014	490.6
3187.149	491.6
3190.28	498.6
3193.409	488.6
3196.536	488.6
3199.659	492.6
3202.781	491.6
3205.9	500.6
3209.016	493.6
3212.13	506.6
3215.241	495.6
3218.35	487.6
3221.456	472.6
3224.56	481.6
3227.661	461.6
3230.76	465.6
3233.856	451.6
3236.95	446.6
3240.041	454.6
3243.13	437.6
3246.216	443.6
3249.3	427.6
3252.382	420.6
3255.46	418.6
3258.537	421.6
3261.611	413.6
3264.682	406.6
3267.751	412.6
3270.818	401.6
3273.882	399.6
3276.943	394.6
3280.002	395.6
3283.059	394.6
3286.113	396.6
3289.165	385.6
3292.214	392.6
3295.261	375.6
3298.306	365.6
3301.348	360.6
3304.387	349.6
3307.425	368.6
3310.459	355.6
3313.492	345.6
3316.521	345.6
3319.549	336.6
3322.574	339.6
3325.597	340.6
3328.617	346.6
3331.635	331.6
3334.65	333.6
3337.663	326.6
3340.674	332.6
3343.682	338.6
3346.688	320.6
3349.691	322.6
3352.692	332.6
3355.691	329.6
3358.687	323.6
3361.681	311.6
3364.673	317.6
3367.662	310.6
3370.649	308.6
3373.633	302.6
3376.615	293.6
3379.595	288.6
3382.572	289.6
3385.547	275.6
3388.52	270.6
3391.49	273.6
3394.458	276.6
3397.424	258.6
3400.387	258.6
3403.348	251.6
3406.307	248.6
3409.263	246.6
3412.217	246.6
3415.168	246.6
3418.118	235.6
3421.065	232.6
3424.009	234.6
3426.951	237.6
3429.891	220.6
3432.829	213.6
3435.764	207.6
3438.697	205.6
3441.628	197.6
3444.557	196.6
3447.483	183.6
3450.407	174.6
3453.328	161.6
3456.247	165.6
3459.164	155.6
3462.079	148.6
3464.991	143.6
3467.902	133.6
3470.809	143.6
3473.715	121.6
3476.618	116.6
3479.519	113.6
3482.418	110.6
3485.315	102.6
3488.209	91.6
3491.101	95.6
3493.99	97.6
3496.878	80.6
3499.763	81.6
3502.646	72.6
3505.527	70.6
3508.405	68.6
3511.281	55.6
3514.155	60.6
3517.027	55.6
3519.897	41.6
3522.764	40.6
3525.629	31.6
3528.492	31.6
3531.352	30.6
3534.211	21.6
3537.067	19.6
3539.921	21.6
3542.773	13.6
3545.622	4.6
3548.469	3.6
3551.315	3.6
3554.157	-5.4
3556.998	-11.4
3559.837	-13.4
3562.673	-16.4
3565.507	-13.4
3568.339	-18.4
3571.169	-28.4
3573.996	-25.4
3576.822	-15.4
3579.645	-24.4
3582.466	-27.4
3585.285	-32.4
3588.101	-29.4
3590.916	-36.4
3593.728	-45.4
3596.538	-41.4
3599.346	-45.4
3602.152	-41.4
3604.956	-43.4
3607.757	-45.4
3610.556	-49.4
3613.354	-48.4
3616.149	-54.4
3618.942	-61.4
3621.732	-60.4
3624.521	-60.4
3627.307	-59.4
3630.092	-58.4
3632.874	-61.4
3635.654	-66.4
3638.432	-63.4
3641.208	-61.4
3643.982	-72.4
3646.753	-74.4
3649.523	-70.4
3652.29	-68.4
3655.055	-65.4
3657.818	-75.4
3660.579	-73.4
3663.338	-76.4
3666.095	-78.4
3668.849	-85.4
3671.602	-76.4
3674.352	-78.4
3677.101	-85.4
3679.847	-82.4
3682.591	-86.4
3685.333	-81.4
3688.073	-85.4
3690.811	-84.4
3693.547	-91.4
3696.281	-88.4
3699.013	-87.4
3701.742	-86.4
3704.47	-89.4
3707.195	-84.4
3709.919	-92.4
3712.64	-91.4
3715.359	-94.4
3718.076	-94.4
3720.792	-94.4
3723.505	-94.4
3726.216	-90.4
3728.925	-93.4
3731.632	-93.4
3734.336	-106.4
3737.039	-93.4
3739.74	-98.4
3742.439	-102.4
3745.136	-91.4
3747.83	-101.4
3750.523	-101.4
3753.213	-98.4
3755.902	-102.4
3758.589	-102.4
3761.273	-95.4
3763.956	-89.4
3766.636	-98.4
3769.315	-90.4
3771.991	-91.4
3774.665	-102.4
3777.338	-96.4
3780.008	-99.4
3782.677	-96.4
3785.343	-98.4
3788.007	-96.4
3790.67	-101.4
3793.33	-98.4
3795.989	-102.4
3798.645	-93.4
3801.299	-102.4
3803.952	-102.4
3806.602	-96.4
3809.251	-106.4
3811.897	-102.4
3814.542	-102.4
3817.184	-95.4
3819.825	-98.4
3822.463	-99.4
3825.1	-105.4
3827.735	-92.4
3830.367	-102.4
3832.998	-100.4
3835.627	-102.4
3838.253	-98.4
3840.878	-100.4
3843.501	-96.4
3846.122	-108.4
3848.741	-103.4
3851.358	-92.4
3853.973	-105.4
3856.586	-102.4
3859.197	-105.4
3861.806	-98.4
3864.414	-101.4
3867.019	-97.4
3869.622	-100.4
3872.224	-89.4
3874.823	-90.4
3877.421	-81.4
3880.016	-61.4
3882.61	-54.4
3885.202	-52.4
3887.792	-64.4
3890.38	-77.4
3892.966	-91.4
3895.55	-91.4
3898.132	-100.4
3900.713	-104.4
3903.291	-108.4
3905.868	-107.4
3908.442	-102.4
3911.015	-107.4
3913.586	-102.4
3916.155	-104.4
3918.722	-102.4
3921.287	-100.4
3923.85	-104.4
3926.411	-103.4
3928.971	-106.4
3931.528	-110.4
3934.084	-102.4
3936.638	-98.4
3939.19	-109.4
3941.74	-104.4
3944.288	-105.4
3946.834	-103.4
3949.378	-102.4
3951.921	-106.4
3954.462	-107.4
3957	-104.4
3959.537	-99.4
3962.072	-107.4
3964.606	-98.4
3967.137	-108.4
3969.667	-105.4
3972.194	-111.4
3974.72	-103.4
3977.244	-106.4
3979.766	-105.4
3982.286	-103.4
3984.805	-102.4
3987.321	-101.4
3989.836	-98.4
3992.349	-105.4
3994.86	-102.4
3997.369	-107.4
3999.877	-100.4
4002.382	-99.4
4004.886	-107.4
4007.388	-100.4
4009.888	-100.4
4012.386	-102.4
4014.883	-100.4
4017.377	-103.4
4019.87	-100.4
4022.361	-99.4
4024.85	-103.4
4027.338	-103.4
4029.823	-101.4
4032.307	-103.4
4034.789	-106.4
4037.269	-99.4
4039.747	-102.4
4042.224	-94.4
4044.699	-103.4
4047.172	-100.4
4049.643	-100.4
4052.112	-101.4
4054.58	-104.4
4057.046	-101.4
4059.51	-101.4
4061.972	-99.4
4064.432	-102.4
4066.891	-104.4
4069.348	-97.4
4071.803	-106.4
4074.256	-103.4
4076.708	-98.4
4079.158	-97.4
4081.606	-96.4
4084.052	-101.4
4086.497	-104.4
4088.939	-98.4
4091.38	-102.4
4093.819	-107.4
4096.257	-109.4
4098.693	-105.4
4101.127	-107.4
4103.559	-104.4
4105.989	-1.4
4108.418	-2.4
4110.845	-1.4
4113.27	-10.4
4115.694	-6.4
4118.115	-9.4
4120.535	-106.4
4122.954	-105.4
4125.37	-96.4
4127.785	-101.4
4130.198	-97.4
4132.609	-102.4
4135.019	-109.4
4137.427	-110.4
4139.833	-107.4
4142.237	-107.4
