Data from 2018-2-8_conc=4_n=2_RamanShift_03.txt Node
Date: Mon Mar 12 15:12:58 IST 2018
User: aro
Spectrometer: QEPB0276
Trigger mode: 0
Integration Time (sec): 3.000000E1
Scans to average: 1
Electric dark correction enabled: true
Nonlinearity correction enabled: false
Boxcar width: 0
XAxis mode: Raman Shifts
Number of Pixels in Spectrum: 1044
>>>>>Begin Spectral Data<<<<<
160.701	11.6
166.742	50.6
172.777	124.6
178.805	391.6
184.826	1051.6
190.841	2279.6
196.849	3806.6
202.85	4988.6
208.845	5450.6
214.833	5442.6
220.815	5383.6
226.789	5381.6
232.758	5410.6
238.719	5393.6
244.674	5333.6
250.623	5276.6
256.565	5247.6
262.5	5148.6
268.429	5069.6
274.351	5045.6
280.267	5034.6
286.176	4988.6
292.079	4971.6
297.975	4970.6
303.865	4949.6
309.748	4936.6
315.625	4931.6
321.495	4931.6
327.359	4883.6
333.217	4909.6
339.068	4875.6
344.912	4920.6
350.751	4897.6
356.583	4965.6
362.408	4950.6
368.227	4949.6
374.04	4941.6
379.847	4996.6
385.647	5000.6
391.44	5008.6
397.228	5002.6
403.009	5065.6
408.784	5087.6
414.553	5102.6
420.315	5116.6
426.071	5137.6
431.821	5117.6
437.565	5079.6
443.302	5118.6
449.033	5086.6
454.758	5076.6
460.477	5034.6
466.189	5016.6
471.896	4988.6
477.596	4975.6
483.29	4927.6
488.978	4944.6
494.66	4911.6
500.335	4833.6
506.005	4730.6
511.668	4620.6
517.325	4457.6
522.977	4376.6
528.622	4277.6
534.261	4246.6
539.894	4189.6
545.521	4177.6
551.141	4143.6
556.756	4090.6
562.365	4070.6
567.968	4063.6
573.565	4014.6
579.155	3998.6
584.74	4007.6
590.319	3981.6
595.892	3970.6
601.459	3978.6
607.02	3963.6
612.575	3904.6
618.124	3898.6
623.667	3864.6
629.204	3812.6
634.735	3793.6
640.261	3789.6
645.781	3744.6
651.294	3741.6
656.802	3718.6
662.304	3694.6
667.8	3675.6
673.29	3687.6
678.775	3692.6
684.254	3708.6
689.726	3680.6
695.193	3659.6
700.655	3632.6
706.11	3629.6
711.56	3591.6
717.004	3594.6
722.442	3546.6
727.874	3539.6
733.301	3524.6
738.722	3497.6
744.137	3515.6
749.547	3499.6
754.951	3483.6
760.349	3495.6
765.741	3495.6
771.128	3502.6
776.509	3519.6
781.885	3555.6
787.254	3551.6
792.618	3566.6
797.977	3526.6
803.33	3525.6
808.677	3484.6
814.019	3480.6
819.355	3437.6
824.686	3420.6
830.011	3395.6
835.33	3385.6
840.644	3376.6
845.952	3380.6
851.255	3381.6
856.552	3381.6
861.844	3341.6
867.13	3348.6
872.41	3314.6
877.686	3305.6
882.955	3256.6
888.219	3230.6
893.478	3202.6
898.731	3154.6
903.979	3115.6
909.221	3107.6
914.458	3080.6
919.69	3081.6
924.916	3085.6
930.136	3090.6
935.351	3080.6
940.561	3086.6
945.766	3093.6
950.965	3079.6
956.158	3067.6
961.347	2997.6
966.529	2992.6
971.707	2948.6
976.879	2906.6
982.046	2855.6
987.208	2858.6
992.364	2865.6
997.515	2874.6
1002.66	2879.6
1007.801	2918.6
1012.936	2929.6
1018.066	2942.6
1023.19	2954.6
1028.309	2926.6
1033.423	2936.6
1038.532	2941.6
1043.636	2891.6
1048.734	2862.6
1053.827	2854.6
1058.915	2823.6
1063.998	2802.6
1069.075	2759.6
1074.147	2793.6
1079.214	2782.6
1084.276	2816.6
1089.333	2814.6
1094.385	2829.6
1099.431	2812.6
1104.472	2823.6
1109.509	2803.6
1114.54	2738.6
1119.565	2744.6
1124.586	2692.6
1129.602	2646.6
1134.613	2654.6
1139.618	2612.6
1144.619	2624.6
1149.614	2609.6
1154.604	2614.6
1159.589	2624.6
1164.57	2616.6
1169.545	2623.6
1174.515	2648.6
1179.48	2634.6
1184.44	2614.6
1189.395	2580.6
1194.345	2554.6
1199.29	2541.6
1204.23	2544.6
1209.165	2537.6
1214.095	2587.6
1219.021	2599.6
1223.941	2571.6
1228.856	2617.6
1233.766	2599.6
1238.672	2619.6
1243.572	2609.6
1248.467	2573.6
1253.358	2570.6
1258.244	2509.6
1263.124	2462.6
1268	2434.6
1272.871	2402.6
1277.737	2396.6
1282.599	2372.6
1287.455	2367.6
1292.306	2384.6
1297.153	2372.6
1301.995	2405.6
1306.832	2410.6
1311.664	2440.6
1316.491	2435.6
1321.314	2415.6
1326.132	2395.6
1330.945	2375.6
1335.753	2357.6
1340.556	2324.6
1345.354	2273.6
1350.148	2227.6
1354.937	2236.6
1359.722	2173.6
1364.501	2145.6
1369.276	2113.6
1374.046	2075.6
1378.811	2043.6
1383.572	2045.6
1388.327	2049.6
1393.079	2037.6
1397.825	2033.6
1402.567	2036.6
1407.304	2034.6
1412.036	2039.6
1416.764	2048.6
1421.487	2045.6
1426.205	2046.6
1430.919	2051.6
1435.628	2070.6
1440.333	2075.6
1445.032	2069.6
1449.727	2117.6
1454.418	2119.6
1459.104	2111.6
1463.785	2088.6
1468.462	2074.6
1473.134	2010.6
1477.802	1982.6
1482.465	1941.6
1487.123	1893.6
1491.777	1863.6
1496.426	1858.6
1501.071	1846.6
1505.711	1835.6
1510.347	1816.6
1514.978	1821.6
1519.604	1804.6
1524.226	1820.6
1528.844	1802.6
1533.457	1809.6
1538.065	1785.6
1542.669	1786.6
1547.269	1788.6
1551.864	1795.6
1556.454	1809.6
1561.041	1834.6
1565.622	1813.6
1570.199	1828.6
1574.772	1843.6
1579.34	1855.6
1583.904	1874.6
1588.464	1901.6
1593.019	1909.6
1597.569	1890.6
1602.115	1908.6
1606.657	1894.6
1611.195	1883.6
1615.728	1874.6
1620.256	1877.6
1624.78	1875.6
1629.3	1879.6
1633.816	1889.6
1638.327	1910.6
1642.834	1891.6
1647.336	1911.6
1651.834	1921.6
1656.328	1921.6
1660.817	1906.6
1665.302	1886.6
1669.783	1862.6
1674.259	1812.6
1678.732	1762.6
1683.199	1732.6
1687.663	1681.6
1692.122	1633.6
1696.577	1562.6
1701.028	1503.6
1705.474	1444.6
1709.917	1406.6
1714.355	1367.6
1718.788	1369.6
1723.218	1341.6
1727.643	1354.6
1732.064	1360.6
1736.481	1331.6
1740.893	1315.6
1745.301	1283.6
1749.705	1268.6
1754.105	1251.6
1758.501	1217.6
1762.893	1198.6
1767.28	1199.6
1771.663	1185.6
1776.042	1165.6
1780.417	1166.6
1784.787	1151.6
1789.154	1143.6
1793.516	1142.6
1797.874	1117.6
1802.228	1096.6
1806.578	1108.6
1810.924	1081.6
1815.266	1074.6
1819.603	1061.6
1823.937	1071.6
1828.266	1066.6
1832.591	1054.6
1836.913	1058.6
1841.23	1076.6
1845.543	1052.6
1849.852	1059.6
1854.156	1054.6
1858.457	1062.6
1862.754	1063.6
1867.047	1056.6
1871.335	1047.6
1875.62	1059.6
1879.9	1064.6
1884.177	1042.6
1888.449	1038.6
1892.718	1024.6
1896.982	1019.6
1901.243	991.6
1905.499	1000.6
1909.752	972.6
1914	958.6
1918.245	949.6
1922.485	938.6
1926.722	925.6
1930.954	930.6
1935.183	934.6
1939.408	911.6
1943.628	908.6
1947.845	910.6
1952.058	903.6
1956.267	897.6
1960.472	875.6
1964.673	874.6
1968.87	865.6
1973.063	856.6
1977.252	851.6
1981.438	852.6
1985.619	855.6
1989.797	857.6
1993.971	867.6
1998.14	861.6
2002.306	856.6
2006.469	856.6
2010.627	863.6
2014.781	865.6
2018.932	865.6
2023.078	857.6
2027.221	847.6
2031.36	845.6
2035.495	838.6
2039.627	824.6
2043.754	811.6
2047.878	803.6
2051.998	795.6
2056.114	801.6
2060.226	784.6
2064.334	786.6
2068.439	778.6
2072.54	798.6
2076.637	792.6
2080.73	769.6
2084.82	771.6
2088.906	767.6
2092.988	753.6
2097.066	760.6
2101.14	745.6
2105.211	732.6
2109.278	731.6
2113.342	719.6
2117.401	712.6
2121.457	697.6
2125.509	699.6
2129.558	701.6
2133.602	702.6
2137.643	689.6
2141.681	705.6
2145.714	704.6
2149.744	708.6
2153.77	688.6
2157.793	694.6
2161.812	672.6
2165.827	678.6
2169.838	675.6
2173.846	659.6
2177.851	650.6
2181.851	637.6
2185.848	627.6
2189.841	633.6
2193.831	634.6
2197.817	618.6
2201.799	612.6
2205.778	610.6
2209.753	610.6
2213.725	608.6
2217.693	602.6
2221.657	617.6
2225.618	611.6
2229.575	596.6
2233.529	586.6
2237.479	596.6
2241.425	582.6
2245.368	580.6
2249.307	571.6
2253.243	564.6
2257.175	545.6
2261.104	547.6
2265.029	553.6
2268.95	539.6
2272.868	517.6
2276.783	526.6
2280.694	513.6
2284.601	509.6
2288.505	495.6
2292.405	497.6
2296.302	496.6
2300.195	488.6
2304.085	474.6
2307.971	464.6
2311.854	452.6
2315.734	444.6
2319.609	448.6
2323.482	438.6
2327.351	455.6
2331.216	456.6
2335.078	477.6
2338.937	445.6
2342.792	428.6
2346.643	417.6
2350.492	420.6
2354.336	427.6
2358.178	431.6
2362.015	433.6
2365.85	434.6
2369.681	427.6
2373.508	428.6
2377.333	443.6
2381.153	431.6
2384.971	441.6
2388.785	434.6
2392.595	416.6
2396.402	410.6
2400.206	408.6
2404.007	413.6
2407.804	405.6
2411.597	396.6
2415.388	400.6
2419.174	398.6
2422.958	389.6
2426.738	390.6
2430.515	400.6
2434.289	404.6
2438.059	391.6
2441.825	387.6
2445.589	376.6
2449.349	363.6
2453.106	378.6
2456.859	370.6
2460.61	365.6
2464.356	348.6
2468.1	361.6
2471.84	356.6
2475.577	360.6
2479.311	338.6
2483.041	340.6
2486.768	339.6
2490.492	339.6
2494.213	345.6
2497.93	328.6
2501.644	331.6
2505.355	329.6
2509.062	329.6
2512.766	319.6
2516.467	311.6
2520.165	308.6
2523.859	307.6
2527.551	302.6
2531.239	296.6
2534.923	306.6
2538.605	288.6
2542.283	286.6
2545.958	286.6
2549.63	279.6
2553.299	277.6
2556.964	279.6
2560.626	278.6
2564.285	266.6
2567.941	267.6
2571.594	271.6
2575.243	272.6
2578.89	251.6
2582.533	258.6
2586.173	259.6
2589.809	245.6
2593.443	251.6
2597.073	242.6
2600.701	235.6
2604.325	221.6
2607.946	236.6
2611.564	234.6
2615.178	244.6
2618.79	227.6
2622.398	226.6
2626.004	236.6
2629.606	230.6
2633.205	221.6
2636.801	221.6
2640.394	230.6
2643.983	218.6
2647.57	212.6
2651.153	211.6
2654.734	207.6
2658.311	197.6
2661.885	204.6
2665.456	205.6
2669.025	205.6
2672.589	199.6
2676.151	205.6
2679.71	200.6
2683.266	189.6
2686.819	185.6
2690.368	187.6
2693.915	182.6
2697.458	178.6
2700.999	175.6
2704.536	177.6
2708.071	161.6
2711.602	163.6
2715.13	169.6
2718.656	161.6
2722.178	156.6
2725.697	150.6
2729.214	152.6
2732.727	168.6
2736.237	155.6
2739.744	149.6
2743.249	147.6
2746.75	143.6
2750.248	148.6
2753.743	141.6
2757.236	135.6
2760.725	134.6
2764.211	123.6
2767.695	121.6
2771.175	118.6
2774.652	122.6
2778.127	127.6
2781.598	115.6
2785.067	129.6
2788.532	124.6
2791.995	128.6
2795.455	127.6
2798.911	128.6
2802.365	124.6
2805.816	131.6
2809.264	123.6
2812.709	132.6
2816.151	127.6
2819.59	126.6
2823.026	121.6
2826.46	132.6
2829.89	119.6
2833.318	121.6
2836.742	133.6
2840.164	118.6
2843.583	124.6
2846.999	129.6
2850.412	134.6
2853.822	130.6
2857.229	135.6
2860.634	130.6
2864.035	140.6
2867.434	149.6
2870.83	147.6
2874.223	155.6
2877.613	163.6
2881	172.6
2884.385	178.6
2887.766	154.6
2891.145	166.6
2894.521	169.6
2897.894	168.6
2901.264	175.6
2904.631	170.6
2907.996	169.6
2911.358	172.6
2914.717	176.6
2918.073	177.6
2921.426	186.6
2924.777	200.6
2928.124	190.6
2931.469	201.6
2934.811	216.6
2938.15	211.6
2941.487	208.6
2944.821	211.6
2948.152	205.6
2951.48	209.6
2954.805	224.6
2958.128	213.6
2961.447	204.6
2964.765	208.6
2968.079	213.6
2971.39	209.6
2974.699	214.6
2978.005	211.6
2981.308	218.6
2984.609	216.6
2987.907	217.6
2991.202	224.6
2994.494	219.6
2997.784	218.6
3001.07	221.6
3004.355	228.6
3007.636	234.6
3010.915	240.6
3014.191	244.6
3017.464	240.6
3020.734	236.6
3024.002	239.6
3027.267	261.6
3030.53	257.6
3033.789	272.6
3037.046	273.6
3040.301	270.6
3043.552	283.6
3046.801	288.6
3050.048	298.6
3053.291	298.6
3056.532	317.6
3059.771	330.6
3063.006	341.6
3066.239	357.6
3069.469	359.6
3072.697	375.6
3075.922	375.6
3079.144	384.6
3082.364	401.6
3085.581	416.6
3088.795	417.6
3092.007	416.6
3095.216	430.6
3098.423	447.6
3101.627	441.6
3104.828	459.6
3108.026	460.6
3111.222	477.6
3114.416	491.6
3117.607	499.6
3120.795	502.6
3123.98	531.6
3127.163	536.6
3130.344	551.6
3133.521	550.6
3136.696	571.6
3139.869	578.6
3143.039	589.6
3146.206	603.6
3149.371	609.6
3152.533	621.6
3155.693	627.6
3158.85	623.6
3162.005	619.6
3165.157	624.6
3168.306	641.6
3171.453	648.6
3174.597	647.6
3177.739	640.6
3180.878	648.6
3184.014	663.6
3187.149	648.6
3190.28	673.6
3193.409	666.6
3196.536	662.6
3199.659	664.6
3202.781	680.6
3205.9	678.6
3209.016	679.6
3212.13	679.6
3215.241	664.6
3218.35	659.6
3221.456	645.6
3224.56	655.6
3227.661	639.6
3230.76	645.6
3233.856	630.6
3236.95	611.6
3240.041	607.6
3243.13	597.6
3246.216	586.6
3249.3	582.6
3252.382	580.6
3255.46	575.6
3258.537	573.6
3261.611	550.6
3264.682	553.6
3267.751	552.6
3270.818	552.6
3273.882	542.6
3276.943	540.6
3280.002	530.6
3283.059	531.6
3286.113	526.6
3289.165	519.6
3292.214	516.6
3295.261	506.6
3298.306	519.6
3301.348	497.6
3304.387	479.6
3307.425	490.6
3310.459	487.6
3313.492	475.6
3316.521	464.6
3319.549	465.6
3322.574	456.6
3325.597	464.6
3328.617	467.6
3331.635	453.6
3334.65	451.6
3337.663	437.6
3340.674	462.6
3343.682	454.6
3346.688	439.6
3349.691	456.6
3352.692	446.6
3355.691	442.6
3358.687	428.6
3361.681	442.6
3364.673	423.6
3367.662	433.6
3370.649	418.6
3373.633	410.6
3376.615	394.6
3379.595	398.6
3382.572	389.6
3385.547	381.6
3388.52	377.6
3391.49	371.6
3394.458	362.6
3397.424	353.6
3400.387	354.6
3403.348	351.6
3406.307	334.6
3409.263	335.6
3412.217	334.6
3415.168	339.6
3418.118	330.6
3421.065	314.6
3424.009	319.6
3426.951	323.6
3429.891	300.6
3432.829	297.6
3435.764	280.6
3438.697	280.6
3441.628	277.6
3444.557	255.6
3447.483	256.6
3450.407	237.6
3453.328	234.6
3456.247	220.6
3459.164	207.6
3462.079	209.6
3464.991	195.6
3467.902	196.6
3470.809	184.6
3473.715	168.6
3476.618	168.6
3479.519	159.6
3482.418	156.6
3485.315	147.6
3488.209	137.6
3491.101	125.6
3493.99	136.6
3496.878	119.6
3499.763	114.6
3502.646	103.6
3505.527	97.6
3508.405	92.6
3511.281	85.6
3514.155	76.6
3517.027	75.6
3519.897	71.6
3522.764	62.6
3525.629	46.6
3528.492	46.6
3531.352	36.6
3534.211	31.6
3537.067	29.6
3539.921	28.6
3542.773	17.6
3545.622	5.6
3548.469	0.6
3551.315	1.6
3554.157	1.6
3556.998	-13.4
3559.837	-12.4
3562.673	-15.4
3565.507	-21.4
3568.339	-22.4
3571.169	-34.4
3573.996	-33.4
3576.822	-33.4
3579.645	-30.4
3582.466	-32.4
3585.285	-41.4
3588.101	-37.4
3590.916	-51.4
3593.728	-56.4
3596.538	-57.4
3599.346	-61.4
3602.152	-59.4
3604.956	-61.4
3607.757	-58.4
3610.556	-68.4
3613.354	-68.4
3616.149	-77.4
3618.942	-75.4
3621.732	-79.4
3624.521	-77.4
3627.307	-80.4
3630.092	-83.4
3632.874	-78.4
3635.654	-84.4
3638.432	-87.4
3641.208	-91.4
3643.982	-94.4
3646.753	-96.4
3649.523	-92.4
3652.29	-92.4
3655.055	-94.4
3657.818	-97.4
3660.579	-97.4
3663.338	-100.4
3666.095	-107.4
3668.849	-104.4
3671.602	-103.4
3674.352	-106.4
3677.101	-110.4
3679.847	-113.4
3682.591	-112.4
3685.333	-109.4
3688.073	-106.4
3690.811	-113.4
3693.547	-121.4
3696.281	-115.4
3699.013	-115.4
3701.742	-123.4
3704.47	-120.4
3707.195	-122.4
3709.919	-124.4
3712.64	-122.4
3715.359	-127.4
3718.076	-122.4
3720.792	-125.4
3723.505	-124.4
3726.216	-122.4
3728.925	-127.4
3731.632	-125.4
3734.336	-138.4
3737.039	-126.4
3739.74	-128.4
3742.439	-133.4
3745.136	-124.4
3747.83	-131.4
3750.523	-132.4
3753.213	-143.4
3755.902	-127.4
3758.589	-134.4
3761.273	-129.4
3763.956	-127.4
3766.636	-129.4
3769.315	-126.4
3771.991	-130.4
3774.665	-140.4
3777.338	-125.4
3780.008	-129.4
3782.677	-135.4
3785.343	-133.4
3788.007	-134.4
3790.67	-137.4
3793.33	-135.4
3795.989	-132.4
3798.645	-131.4
3801.299	-128.4
3803.952	-139.4
3806.602	-129.4
3809.251	-143.4
3811.897	-136.4
3814.542	-141.4
3817.184	-128.4
3819.825	-134.4
3822.463	-134.4
3825.1	-138.4
3827.735	-137.4
3830.367	-137.4
3832.998	-142.4
3835.627	-135.4
3838.253	-129.4
3840.878	-130.4
3843.501	-129.4
3846.122	-139.4
3848.741	-142.4
3851.358	-137.4
3853.973	-140.4
3856.586	-134.4
3859.197	-137.4
3861.806	-133.4
3864.414	-138.4
3867.019	-128.4
3869.622	-134.4
3872.224	-124.4
3874.823	-120.4
3877.421	-107.4
3880.016	-84.4
3882.61	-67.4
3885.202	-64.4
3887.792	-77.4
3890.38	-102.4
3892.966	-130.4
3895.55	-131.4
3898.132	-133.4
3900.713	-131.4
3903.291	-140.4
3905.868	-135.4
3908.442	-133.4
3911.015	-142.4
3913.586	-141.4
3916.155	-137.4
3918.722	-139.4
3921.287	-139.4
3923.85	-135.4
3926.411	-140.4
3928.971	-140.4
3931.528	-142.4
3934.084	-138.4
3936.638	-134.4
3939.19	-140.4
3941.74	-140.4
3944.288	-140.4
3946.834	-136.4
3949.378	-141.4
3951.921	-139.4
3954.462	-145.4
3957	-136.4
3959.537	-131.4
3962.072	-139.4
3964.606	-138.4
3967.137	-139.4
3969.667	-141.4
3972.194	-141.4
3974.72	-139.4
3977.244	-140.4
3979.766	-136.4
3982.286	-139.4
3984.805	-143.4
3987.321	-138.4
3989.836	-131.4
3992.349	-139.4
3994.86	-132.4
3997.369	-135.4
3999.877	-137.4
4002.382	-130.4
4004.886	-136.4
4007.388	-134.4
4009.888	-134.4
4012.386	-140.4
4014.883	-134.4
4017.377	-135.4
4019.87	-137.4
4022.361	-139.4
4024.85	-141.4
4027.338	-134.4
4029.823	-139.4
4032.307	-132.4
4034.789	-137.4
4037.269	-136.4
4039.747	-131.4
4042.224	-133.4
4044.699	-144.4
4047.172	-137.4
4049.643	-133.4
4052.112	-138.4
4054.58	-138.4
4057.046	-137.4
4059.51	-139.4
4061.972	-142.4
4064.432	-137.4
4066.891	-141.4
4069.348	-132.4
4071.803	-137.4
4074.256	-143.4
4076.708	-131.4
4079.158	-134.4
4081.606	-130.4
4084.052	-137.4
4086.497	-134.4
4088.939	-134.4
4091.38	-133.4
4093.819	-134.4
4096.257	-144.4
4098.693	-141.4
4101.127	-144.4
4103.559	-139.4
4105.989	8.6
4108.418	-0.4
4110.845	-6.4
4113.27	2.6
4115.694	-14.4
4118.115	-0.4
4120.535	-136.4
4122.954	-139.4
4125.37	-134.4
4127.785	-135.4
4130.198	-137.4
4132.609	-136.4
4135.019	-144.4
4137.427	-148.4
4139.833	-142.4
4142.237	-143.4
