Data from 2018-2-8_conc=4_n=4_RamanShift_03.txt Node
Date: Mon Mar 12 15:22:58 IST 2018
User: aro
Spectrometer: QEPB0276
Trigger mode: 0
Integration Time (sec): 3.000000E1
Scans to average: 1
Electric dark correction enabled: true
Nonlinearity correction enabled: false
Boxcar width: 0
XAxis mode: Raman Shifts
Number of Pixels in Spectrum: 1044
>>>>>Begin Spectral Data<<<<<
160.701	16.8
166.742	44.8
172.777	116.8
178.805	359.8
184.826	996.8
190.841	2150.8
196.849	3602.8
202.85	4758.8
208.845	5180.8
214.833	5209.8
220.815	5119.8
226.789	5117.8
232.758	5121.8
238.719	5104.8
244.674	5109.8
250.623	5043.8
256.565	4956.8
262.5	4876.8
268.429	4820.8
274.351	4766.8
280.267	4738.8
286.176	4691.8
292.079	4676.8
297.975	4688.8
303.865	4650.8
309.748	4663.8
315.625	4623.8
321.495	4609.8
327.359	4631.8
333.217	4601.8
339.068	4606.8
344.912	4633.8
350.751	4652.8
356.583	4656.8
362.408	4654.8
368.227	4675.8
374.04	4678.8
379.847	4718.8
385.647	4693.8
391.44	4720.8
397.228	4756.8
403.009	4789.8
408.784	4796.8
414.553	4785.8
420.315	4821.8
426.071	4818.8
431.821	4793.8
437.565	4837.8
443.302	4795.8
449.033	4796.8
454.758	4766.8
460.477	4736.8
466.189	4732.8
471.896	4715.8
477.596	4655.8
483.29	4652.8
488.978	4626.8
494.66	4624.8
500.335	4587.8
506.005	4467.8
511.668	4330.8
517.325	4198.8
522.977	4113.8
528.622	4021.8
534.261	3986.8
539.894	3913.8
545.521	3846.8
551.141	3862.8
556.756	3871.8
562.365	3828.8
567.968	3794.8
573.565	3760.8
579.155	3771.8
584.74	3756.8
590.319	3740.8
595.892	3729.8
601.459	3714.8
607.02	3677.8
612.575	3690.8
618.124	3619.8
623.667	3597.8
629.204	3592.8
634.735	3545.8
640.261	3515.8
645.781	3483.8
651.294	3489.8
656.802	3483.8
662.304	3485.8
667.8	3475.8
673.29	3479.8
678.775	3467.8
684.254	3455.8
689.726	3444.8
695.193	3415.8
700.655	3392.8
706.11	3388.8
711.56	3364.8
717.004	3326.8
722.442	3334.8
727.874	3317.8
733.301	3305.8
738.722	3285.8
744.137	3272.8
749.547	3278.8
754.951	3276.8
760.349	3269.8
765.741	3262.8
771.128	3277.8
776.509	3311.8
781.885	3317.8
787.254	3337.8
792.618	3335.8
797.977	3300.8
803.33	3292.8
808.677	3269.8
814.019	3249.8
819.355	3217.8
824.686	3192.8
830.011	3167.8
835.33	3185.8
840.644	3161.8
845.952	3155.8
851.255	3156.8
856.552	3136.8
861.844	3117.8
867.13	3113.8
872.41	3093.8
877.686	3055.8
882.955	3060.8
888.219	3032.8
893.478	3004.8
898.731	2968.8
903.979	2918.8
909.221	2904.8
914.458	2873.8
919.69	2878.8
924.916	2881.8
930.136	2888.8
935.351	2884.8
940.561	2906.8
945.766	2896.8
950.965	2887.8
956.158	2844.8
961.347	2801.8
966.529	2787.8
971.707	2766.8
976.879	2722.8
982.046	2681.8
987.208	2695.8
992.364	2655.8
997.515	2653.8
1002.66	2692.8
1007.801	2727.8
1012.936	2756.8
1018.066	2776.8
1023.19	2745.8
1028.309	2775.8
1033.423	2781.8
1038.532	2736.8
1043.636	2723.8
1048.734	2703.8
1053.827	2653.8
1058.915	2633.8
1063.998	2613.8
1069.075	2617.8
1074.147	2618.8
1079.214	2608.8
1084.276	2606.8
1089.333	2643.8
1094.385	2647.8
1099.431	2630.8
1104.472	2623.8
1109.509	2618.8
1114.54	2602.8
1119.565	2557.8
1124.586	2498.8
1129.602	2497.8
1134.613	2485.8
1139.618	2460.8
1144.619	2449.8
1149.614	2420.8
1154.604	2459.8
1159.589	2470.8
1164.57	2453.8
1169.545	2475.8
1174.515	2472.8
1179.48	2461.8
1184.44	2445.8
1189.395	2411.8
1194.345	2379.8
1199.29	2366.8
1204.23	2410.8
1209.165	2395.8
1214.095	2402.8
1219.021	2419.8
1223.941	2434.8
1228.856	2438.8
1233.766	2419.8
1238.672	2434.8
1243.572	2444.8
1248.467	2425.8
1253.358	2382.8
1258.244	2371.8
1263.124	2330.8
1268	2276.8
1272.871	2269.8
1277.737	2249.8
1282.599	2222.8
1287.455	2219.8
1292.306	2232.8
1297.153	2226.8
1301.995	2261.8
1306.832	2264.8
1311.664	2280.8
1316.491	2288.8
1321.314	2268.8
1326.132	2266.8
1330.945	2263.8
1335.753	2218.8
1340.556	2179.8
1345.354	2121.8
1350.148	2114.8
1354.937	2062.8
1359.722	2052.8
1364.501	2016.8
1369.276	1984.8
1374.046	1954.8
1378.811	1927.8
1383.572	1899.8
1388.327	1915.8
1393.079	1891.8
1397.825	1915.8
1402.567	1905.8
1407.304	1904.8
1412.036	1922.8
1416.764	1897.8
1421.487	1926.8
1426.205	1920.8
1430.919	1920.8
1435.628	1934.8
1440.333	1941.8
1445.032	1954.8
1449.727	1983.8
1454.418	1989.8
1459.104	1983.8
1463.785	1969.8
1468.462	1956.8
1473.134	1872.8
1477.802	1851.8
1482.465	1826.8
1487.123	1773.8
1491.777	1766.8
1496.426	1750.8
1501.071	1739.8
1505.711	1717.8
1510.347	1705.8
1514.978	1704.8
1519.604	1709.8
1524.226	1708.8
1528.844	1692.8
1533.457	1697.8
1538.065	1668.8
1542.669	1678.8
1547.269	1680.8
1551.864	1670.8
1556.454	1677.8
1561.041	1709.8
1565.622	1707.8
1570.199	1715.8
1574.772	1732.8
1579.34	1755.8
1583.904	1779.8
1588.464	1790.8
1593.019	1791.8
1597.569	1799.8
1602.115	1794.8
1606.657	1784.8
1611.195	1774.8
1615.728	1783.8
1620.256	1753.8
1624.78	1760.8
1629.3	1772.8
1633.816	1769.8
1638.327	1785.8
1642.834	1794.8
1647.336	1798.8
1651.834	1789.8
1656.328	1809.8
1660.817	1795.8
1665.302	1791.8
1669.783	1742.8
1674.259	1709.8
1678.732	1689.8
1683.199	1629.8
1687.663	1577.8
1692.122	1532.8
1696.577	1461.8
1701.028	1410.8
1705.474	1362.8
1709.917	1312.8
1714.355	1288.8
1718.788	1279.8
1723.218	1285.8
1727.643	1276.8
1732.064	1286.8
1736.481	1251.8
1740.893	1237.8
1745.301	1233.8
1749.705	1197.8
1754.105	1166.8
1758.501	1140.8
1762.893	1129.8
1767.28	1116.8
1771.663	1111.8
1776.042	1105.8
1780.417	1085.8
1784.787	1070.8
1789.154	1059.8
1793.516	1063.8
1797.874	1042.8
1802.228	1027.8
1806.578	1036.8
1810.924	1016.8
1815.266	1003.8
1819.603	997.8
1823.937	1005.8
1828.266	987.8
1832.591	1001.8
1836.913	990.8
1841.23	1005.8
1845.543	990.8
1849.852	979.8
1854.156	1011.8
1858.457	998.8
1862.754	1005.8
1867.047	991.8
1871.335	994.8
1875.62	1002.8
1879.9	993.8
1884.177	990.8
1888.449	973.8
1892.718	961.8
1896.982	954.8
1901.243	936.8
1905.499	927.8
1909.752	933.8
1914	895.8
1918.245	907.8
1922.485	883.8
1926.722	887.8
1930.954	861.8
1935.183	871.8
1939.408	876.8
1943.628	880.8
1947.845	858.8
1952.058	844.8
1956.267	834.8
1960.472	835.8
1964.673	814.8
1968.87	829.8
1973.063	812.8
1977.252	790.8
1981.438	813.8
1985.619	799.8
1989.797	798.8
1993.971	807.8
1998.14	805.8
2002.306	802.8
2006.469	811.8
2010.627	815.8
2014.781	825.8
2018.932	807.8
2023.078	812.8
2027.221	806.8
2031.36	798.8
2035.495	782.8
2039.627	775.8
2043.754	765.8
2047.878	763.8
2051.998	747.8
2056.114	749.8
2060.226	747.8
2064.334	749.8
2068.439	750.8
2072.54	736.8
2076.637	745.8
2080.73	727.8
2084.82	718.8
2088.906	729.8
2092.988	724.8
2097.066	722.8
2101.14	693.8
2105.211	687.8
2109.278	686.8
2113.342	676.8
2117.401	665.8
2121.457	667.8
2125.509	645.8
2129.558	660.8
2133.602	658.8
2137.643	654.8
2141.681	647.8
2145.714	655.8
2149.744	654.8
2153.77	641.8
2157.793	649.8
2161.812	650.8
2165.827	640.8
2169.838	644.8
2173.846	620.8
2177.851	613.8
2181.851	592.8
2185.848	593.8
2189.841	602.8
2193.831	580.8
2197.817	570.8
2201.799	573.8
2205.778	574.8
2209.753	574.8
2213.725	582.8
2217.693	578.8
2221.657	570.8
2225.618	573.8
2229.575	567.8
2233.529	562.8
2237.479	551.8
2241.425	558.8
2245.368	539.8
2249.307	533.8
2253.243	529.8
2257.175	515.8
2261.104	502.8
2265.029	503.8
2268.95	498.8
2272.868	492.8
2276.783	481.8
2280.694	476.8
2284.601	484.8
2288.505	474.8
2292.405	473.8
2296.302	465.8
2300.195	466.8
2304.085	462.8
2307.971	443.8
2311.854	445.8
2315.734	429.8
2319.609	417.8
2323.482	421.8
2327.351	422.8
2331.216	433.8
2335.078	440.8
2338.937	423.8
2342.792	409.8
2346.643	394.8
2350.492	406.8
2354.336	400.8
2358.178	398.8
2362.015	401.8
2365.85	403.8
2369.681	408.8
2373.508	406.8
2377.333	399.8
2381.153	404.8
2384.971	412.8
2388.785	398.8
2392.595	392.8
2396.402	384.8
2400.206	393.8
2404.007	392.8
2407.804	383.8
2411.597	381.8
2415.388	375.8
2419.174	389.8
2422.958	376.8
2426.738	367.8
2430.515	371.8
2434.289	374.8
2438.059	373.8
2441.825	367.8
2445.589	368.8
2449.349	351.8
2453.106	353.8
2456.859	354.8
2460.61	344.8
2464.356	331.8
2468.1	338.8
2471.84	323.8
2475.577	339.8
2479.311	323.8
2483.041	317.8
2486.768	324.8
2490.492	316.8
2494.213	330.8
2497.93	324.8
2501.644	313.8
2505.355	311.8
2509.062	307.8
2512.766	305.8
2516.467	288.8
2520.165	292.8
2523.859	289.8
2527.551	290.8
2531.239	282.8
2534.923	283.8
2538.605	276.8
2542.283	273.8
2545.958	272.8
2549.63	267.8
2553.299	264.8
2556.964	277.8
2560.626	261.8
2564.285	257.8
2567.941	260.8
2571.594	254.8
2575.243	238.8
2578.89	235.8
2582.533	241.8
2586.173	238.8
2589.809	229.8
2593.443	234.8
2597.073	225.8
2600.701	228.8
2604.325	222.8
2607.946	220.8
2611.564	228.8
2615.178	229.8
2618.79	225.8
2622.398	230.8
2626.004	222.8
2629.606	221.8
2633.205	209.8
2636.801	209.8
2640.394	205.8
2643.983	208.8
2647.57	212.8
2651.153	208.8
2654.734	196.8
2658.311	191.8
2661.885	192.8
2665.456	200.8
2669.025	196.8
2672.589	197.8
2676.151	197.8
2679.71	185.8
2683.266	187.8
2686.819	181.8
2690.368	175.8
2693.915	167.8
2697.458	168.8
2700.999	169.8
2704.536	172.8
2708.071	158.8
2711.602	158.8
2715.13	158.8
2718.656	155.8
2722.178	153.8
2725.697	147.8
2729.214	149.8
2732.727	146.8
2736.237	153.8
2739.744	142.8
2743.249	142.8
2746.75	145.8
2750.248	124.8
2753.743	131.8
2757.236	135.8
2760.725	128.8
2764.211	122.8
2767.695	121.8
2771.175	116.8
2774.652	110.8
2778.127	120.8
2781.598	117.8
2785.067	115.8
2788.532	124.8
2791.995	124.8
2795.455	119.8
2798.911	116.8
2802.365	125.8
2805.816	128.8
2809.264	122.8
2812.709	128.8
2816.151	126.8
2819.59	127.8
2823.026	120.8
2826.46	122.8
2829.89	119.8
2833.318	112.8
2836.742	125.8
2840.164	123.8
2843.583	122.8
2846.999	130.8
2850.412	123.8
2853.822	124.8
2857.229	121.8
2860.634	124.8
2864.035	133.8
2867.434	138.8
2870.83	137.8
2874.223	151.8
2877.613	151.8
2881	163.8
2884.385	170.8
2887.766	157.8
2891.145	149.8
2894.521	164.8
2897.894	165.8
2901.264	166.8
2904.631	169.8
2907.996	166.8
2911.358	166.8
2914.717	169.8
2918.073	184.8
2921.426	175.8
2924.777	183.8
2928.124	193.8
2931.469	194.8
2934.811	195.8
2938.15	192.8
2941.487	205.8
2944.821	207.8
2948.152	218.8
2951.48	200.8
2954.805	204.8
2958.128	206.8
2961.447	198.8
2964.765	201.8
2968.079	202.8
2971.39	200.8
2974.699	203.8
2978.005	203.8
2981.308	209.8
2984.609	208.8
2987.907	209.8
2991.202	210.8
2994.494	212.8
2997.784	209.8
3001.07	219.8
3004.355	222.8
3007.636	226.8
3010.915	222.8
3014.191	220.8
3017.464	229.8
3020.734	232.8
3024.002	233.8
3027.267	245.8
3030.53	249.8
3033.789	252.8
3037.046	251.8
3040.301	256.8
3043.552	274.8
3046.801	277.8
3050.048	290.8
3053.291	291.8
3056.532	313.8
3059.771	322.8
3063.006	326.8
3066.239	340.8
3069.469	359.8
3072.697	355.8
3075.922	368.8
3079.144	374.8
3082.364	394.8
3085.581	401.8
3088.795	393.8
3092.007	417.8
3095.216	418.8
3098.423	429.8
3101.627	446.8
3104.828	440.8
3108.026	461.8
3111.222	462.8
3114.416	468.8
3117.607	489.8
3120.795	493.8
3123.98	500.8
3127.163	504.8
3130.344	537.8
3133.521	538.8
3136.696	565.8
3139.869	566.8
3143.039	575.8
3146.206	570.8
3149.371	576.8
3152.533	603.8
3155.693	605.8
3158.85	604.8
3162.005	608.8
3165.157	619.8
3168.306	627.8
3171.453	615.8
3174.597	627.8
3177.739	635.8
3180.878	624.8
3184.014	638.8
3187.149	635.8
3190.28	635.8
3193.409	650.8
3196.536	642.8
3199.659	644.8
3202.781	646.8
3205.9	663.8
3209.016	657.8
3212.13	647.8
3215.241	642.8
3218.35	633.8
3221.456	634.8
3224.56	615.8
3227.661	627.8
3230.76	619.8
3233.856	596.8
3236.95	595.8
3240.041	583.8
3243.13	560.8
3246.216	565.8
3249.3	557.8
3252.382	555.8
3255.46	557.8
3258.537	543.8
3261.611	544.8
3264.682	521.8
3267.751	547.8
3270.818	522.8
3273.882	528.8
3276.943	533.8
3280.002	528.8
3283.059	512.8
3286.113	507.8
3289.165	494.8
3292.214	510.8
3295.261	485.8
3298.306	476.8
3301.348	476.8
3304.387	474.8
3307.425	478.8
3310.459	456.8
3313.492	448.8
3316.521	450.8
3319.549	449.8
3322.574	445.8
3325.597	445.8
3328.617	447.8
3331.635	442.8
3334.65	435.8
3337.663	432.8
3340.674	437.8
3343.682	425.8
3346.688	440.8
3349.691	432.8
3352.692	434.8
3355.691	429.8
3358.687	422.8
3361.681	415.8
3364.673	418.8
3367.662	414.8
3370.649	408.8
3373.633	391.8
3376.615	386.8
3379.595	381.8
3382.572	381.8
3385.547	373.8
3388.52	375.8
3391.49	359.8
3394.458	364.8
3397.424	355.8
3400.387	338.8
3403.348	336.8
3406.307	323.8
3409.263	329.8
3412.217	327.8
3415.168	319.8
3418.118	319.8
3421.065	316.8
3424.009	302.8
3426.951	298.8
3429.891	294.8
3432.829	283.8
3435.764	274.8
3438.697	281.8
3441.628	270.8
3444.557	257.8
3447.483	252.8
3450.407	237.8
3453.328	222.8
3456.247	222.8
3459.164	217.8
3462.079	196.8
3464.991	194.8
3467.902	186.8
3470.809	184.8
3473.715	169.8
3476.618	163.8
3479.519	158.8
3482.418	146.8
3485.315	145.8
3488.209	135.8
3491.101	135.8
3493.99	132.8
3496.878	118.8
3499.763	111.8
3502.646	106.8
3505.527	96.8
3508.405	91.8
3511.281	88.8
3514.155	80.8
3517.027	76.8
3519.897	61.8
3522.764	64.8
3525.629	55.8
3528.492	40.8
3531.352	36.8
3534.211	31.8
3537.067	29.8
3539.921	25.8
3542.773	15.8
3545.622	4.8
3548.469	3.8
3551.315	8.8
3554.157	1.8
3556.998	-3.2
3559.837	-7.2
3562.673	-14.2
3565.507	-16.2
3568.339	-19.2
3571.169	-30.2
3573.996	-27.2
3576.822	-26.2
3579.645	-35.2
3582.466	-29.2
3585.285	-41.2
3588.101	-38.2
3590.916	-43.2
3593.728	-53.2
3596.538	-54.2
3599.346	-55.2
3602.152	-55.2
3604.956	-59.2
3607.757	-63.2
3610.556	-63.2
3613.354	-63.2
3616.149	-70.2
3618.942	-71.2
3621.732	-67.2
3624.521	-70.2
3627.307	-73.2
3630.092	-73.2
3632.874	-71.2
3635.654	-84.2
3638.432	-77.2
3641.208	-82.2
3643.982	-84.2
3646.753	-86.2
3649.523	-90.2
3652.29	-87.2
3655.055	-87.2
3657.818	-91.2
3660.579	-98.2
3663.338	-92.2
3666.095	-96.2
3668.849	-93.2
3671.602	-100.2
3674.352	-105.2
3677.101	-106.2
3679.847	-107.2
3682.591	-112.2
3685.333	-105.2
3688.073	-105.2
3690.811	-106.2
3693.547	-115.2
3696.281	-114.2
3699.013	-118.2
3701.742	-115.2
3704.47	-114.2
3707.195	-106.2
3709.919	-115.2
3712.64	-116.2
3715.359	-114.2
3718.076	-113.2
3720.792	-114.2
3723.505	-122.2
3726.216	-115.2
3728.925	-121.2
3731.632	-113.2
3734.336	-126.2
3737.039	-113.2
3739.74	-119.2
3742.439	-126.2
3745.136	-117.2
3747.83	-129.2
3750.523	-120.2
3753.213	-128.2
3755.902	-117.2
3758.589	-124.2
3761.273	-120.2
3763.956	-123.2
3766.636	-123.2
3769.315	-117.2
3771.991	-120.2
3774.665	-130.2
3777.338	-117.2
3780.008	-120.2
3782.677	-121.2
3785.343	-124.2
3788.007	-127.2
3790.67	-130.2
3793.33	-127.2
3795.989	-125.2
3798.645	-118.2
3801.299	-120.2
3803.952	-126.2
3806.602	-123.2
3809.251	-131.2
3811.897	-128.2
3814.542	-131.2
3817.184	-121.2
3819.825	-127.2
3822.463	-127.2
3825.1	-127.2
3827.735	-126.2
3830.367	-130.2
3832.998	-132.2
3835.627	-125.2
3838.253	-127.2
3840.878	-126.2
3843.501	-125.2
3846.122	-124.2
3848.741	-126.2
3851.358	-126.2
3853.973	-130.2
3856.586	-123.2
3859.197	-130.2
3861.806	-125.2
3864.414	-128.2
3867.019	-122.2
3869.622	-129.2
3872.224	-117.2
3874.823	-109.2
3877.421	-107.2
3880.016	-79.2
3882.61	-64.2
3885.202	-59.2
3887.792	-73.2
3890.38	-100.2
3892.966	-119.2
3895.55	-120.2
3898.132	-124.2
3900.713	-133.2
3903.291	-135.2
3905.868	-126.2
3908.442	-127.2
3911.015	-129.2
3913.586	-128.2
3916.155	-133.2
3918.722	-131.2
3921.287	-131.2
3923.85	-133.2
3926.411	-132.2
3928.971	-128.2
3931.528	-136.2
3934.084	-129.2
3936.638	-125.2
3939.19	-133.2
3941.74	-133.2
3944.288	-136.2
3946.834	-124.2
3949.378	-129.2
3951.921	-130.2
3954.462	-133.2
3957	-131.2
3959.537	-124.2
3962.072	-131.2
3964.606	-126.2
3967.137	-131.2
3969.667	-132.2
3972.194	-131.2
3974.72	-127.2
3977.244	-126.2
3979.766	-130.2
3982.286	-133.2
3984.805	-129.2
3987.321	-129.2
3989.836	-119.2
3992.349	-130.2
3994.86	-126.2
3997.369	-128.2
3999.877	-132.2
4002.382	-124.2
4004.886	-135.2
4007.388	-132.2
4009.888	-126.2
4012.386	-130.2
4014.883	-128.2
4017.377	-130.2
4019.87	-128.2
4022.361	-135.2
4024.85	-128.2
4027.338	-128.2
4029.823	-127.2
4032.307	-123.2
4034.789	-130.2
4037.269	-128.2
4039.747	-127.2
4042.224	-127.2
4044.699	-131.2
4047.172	-125.2
4049.643	-123.2
4052.112	-131.2
4054.58	-126.2
4057.046	-122.2
4059.51	-125.2
4061.972	-128.2
4064.432	-129.2
4066.891	-128.2
4069.348	-122.2
4071.803	-131.2
4074.256	-128.2
4076.708	-125.2
4079.158	-127.2
4081.606	-127.2
4084.052	-130.2
4086.497	-125.2
4088.939	-120.2
4091.38	-125.2
4093.819	-124.2
4096.257	-135.2
4098.693	-131.2
4101.127	-130.2
4103.559	-127.2
4105.989	0.8
4108.418	-5.2
4110.845	-9.2
4113.27	-9.2
4115.694	-14.2
4118.115	-8.2
4120.535	-131.2
4122.954	-133.2
4125.37	-128.2
4127.785	-130.2
4130.198	-131.2
4132.609	-127.2
4135.019	-133.2
4137.427	-134.2
4139.833	-135.2
4142.237	-135.2
