Data from 2018-2-8_conc=4_n=4_RamanShift_05.txt Node
Date: Mon Mar 12 15:23:58 IST 2018
User: aro
Spectrometer: QEPB0276
Trigger mode: 0
Integration Time (sec): 3.000000E1
Scans to average: 1
Electric dark correction enabled: true
Nonlinearity correction enabled: false
Boxcar width: 0
XAxis mode: Raman Shifts
Number of Pixels in Spectrum: 1044
>>>>>Begin Spectral Data<<<<<
160.701	2.5
166.742	35.5
172.777	119.5
178.805	365.5
184.826	1013.5
190.841	2213.5
196.849	3658.5
202.85	4772.5
208.845	5226.5
214.833	5250.5
220.815	5188.5
226.789	5134.5
232.758	5163.5
238.719	5119.5
244.674	5098.5
250.623	5068.5
256.565	4973.5
262.5	4883.5
268.429	4833.5
274.351	4770.5
280.267	4732.5
286.176	4707.5
292.079	4679.5
297.975	4677.5
303.865	4641.5
309.748	4620.5
315.625	4630.5
321.495	4615.5
327.359	4620.5
333.217	4604.5
339.068	4593.5
344.912	4615.5
350.751	4625.5
356.583	4635.5
362.408	4617.5
368.227	4633.5
374.04	4655.5
379.847	4672.5
385.647	4660.5
391.44	4703.5
397.228	4714.5
403.009	4764.5
408.784	4785.5
414.553	4762.5
420.315	4759.5
426.071	4800.5
431.821	4773.5
437.565	4756.5
443.302	4770.5
449.033	4742.5
454.758	4741.5
460.477	4715.5
466.189	4719.5
471.896	4650.5
477.596	4627.5
483.29	4602.5
488.978	4643.5
494.66	4618.5
500.335	4552.5
506.005	4428.5
511.668	4316.5
517.325	4192.5
522.977	4074.5
528.622	4043.5
534.261	3960.5
539.894	3916.5
545.521	3895.5
551.141	3867.5
556.756	3850.5
562.365	3834.5
567.968	3792.5
573.565	3752.5
579.155	3739.5
584.74	3724.5
590.319	3715.5
595.892	3713.5
601.459	3697.5
607.02	3707.5
612.575	3684.5
618.124	3644.5
623.667	3592.5
629.204	3568.5
634.735	3549.5
640.261	3522.5
645.781	3525.5
651.294	3497.5
656.802	3500.5
662.304	3474.5
667.8	3465.5
673.29	3449.5
678.775	3466.5
684.254	3447.5
689.726	3449.5
695.193	3405.5
700.655	3410.5
706.11	3395.5
711.56	3363.5
717.004	3354.5
722.442	3321.5
727.874	3306.5
733.301	3306.5
738.722	3283.5
744.137	3278.5
749.547	3291.5
754.951	3281.5
760.349	3291.5
765.741	3262.5
771.128	3289.5
776.509	3311.5
781.885	3336.5
787.254	3320.5
792.618	3344.5
797.977	3314.5
803.33	3293.5
808.677	3273.5
814.019	3228.5
819.355	3230.5
824.686	3185.5
830.011	3181.5
835.33	3188.5
840.644	3183.5
845.952	3146.5
851.255	3179.5
856.552	3163.5
861.844	3126.5
867.13	3132.5
872.41	3120.5
877.686	3069.5
882.955	3056.5
888.219	3064.5
893.478	3011.5
898.731	2949.5
903.979	2942.5
909.221	2888.5
914.458	2878.5
919.69	2894.5
924.916	2913.5
930.136	2910.5
935.351	2883.5
940.561	2876.5
945.766	2879.5
950.965	2876.5
956.158	2867.5
961.347	2818.5
966.529	2792.5
971.707	2758.5
976.879	2723.5
982.046	2703.5
987.208	2671.5
992.364	2686.5
997.515	2695.5
1002.66	2719.5
1007.801	2743.5
1012.936	2764.5
1018.066	2776.5
1023.19	2761.5
1028.309	2769.5
1033.423	2788.5
1038.532	2760.5
1043.636	2742.5
1048.734	2705.5
1053.827	2669.5
1058.915	2641.5
1063.998	2640.5
1069.075	2610.5
1074.147	2623.5
1079.214	2626.5
1084.276	2625.5
1089.333	2656.5
1094.385	2673.5
1099.431	2666.5
1104.472	2637.5
1109.509	2644.5
1114.54	2593.5
1119.565	2564.5
1124.586	2548.5
1129.602	2515.5
1134.613	2502.5
1139.618	2454.5
1144.619	2456.5
1149.614	2464.5
1154.604	2470.5
1159.589	2484.5
1164.57	2469.5
1169.545	2489.5
1174.515	2483.5
1179.48	2482.5
1184.44	2426.5
1189.395	2427.5
1194.345	2412.5
1199.29	2406.5
1204.23	2403.5
1209.165	2403.5
1214.095	2432.5
1219.021	2430.5
1223.941	2432.5
1228.856	2446.5
1233.766	2464.5
1238.672	2466.5
1243.572	2459.5
1248.467	2435.5
1253.358	2409.5
1258.244	2387.5
1263.124	2347.5
1268	2315.5
1272.871	2287.5
1277.737	2256.5
1282.599	2245.5
1287.455	2273.5
1292.306	2240.5
1297.153	2280.5
1301.995	2275.5
1306.832	2282.5
1311.664	2301.5
1316.491	2294.5
1321.314	2296.5
1326.132	2285.5
1330.945	2263.5
1335.753	2232.5
1340.556	2196.5
1345.354	2177.5
1350.148	2136.5
1354.937	2109.5
1359.722	2048.5
1364.501	2043.5
1369.276	1988.5
1374.046	1954.5
1378.811	1925.5
1383.572	1935.5
1388.327	1937.5
1393.079	1928.5
1397.825	1918.5
1402.567	1943.5
1407.304	1933.5
1412.036	1937.5
1416.764	1943.5
1421.487	1941.5
1426.205	1944.5
1430.919	1947.5
1435.628	1929.5
1440.333	1976.5
1445.032	1998.5
1449.727	2016.5
1454.418	2019.5
1459.104	2020.5
1463.785	1968.5
1468.462	1943.5
1473.134	1923.5
1477.802	1876.5
1482.465	1838.5
1487.123	1814.5
1491.777	1779.5
1496.426	1762.5
1501.071	1751.5
1505.711	1734.5
1510.347	1731.5
1514.978	1718.5
1519.604	1737.5
1524.226	1746.5
1528.844	1704.5
1533.457	1696.5
1538.065	1682.5
1542.669	1675.5
1547.269	1689.5
1551.864	1693.5
1556.454	1703.5
1561.041	1724.5
1565.622	1742.5
1570.199	1726.5
1574.772	1767.5
1579.34	1778.5
1583.904	1793.5
1588.464	1826.5
1593.019	1821.5
1597.569	1813.5
1602.115	1820.5
1606.657	1801.5
1611.195	1792.5
1615.728	1802.5
1620.256	1788.5
1624.78	1798.5
1629.3	1814.5
1633.816	1795.5
1638.327	1835.5
1642.834	1800.5
1647.336	1825.5
1651.834	1833.5
1656.328	1840.5
1660.817	1810.5
1665.302	1819.5
1669.783	1779.5
1674.259	1742.5
1678.732	1692.5
1683.199	1643.5
1687.663	1614.5
1692.122	1567.5
1696.577	1501.5
1701.028	1437.5
1705.474	1367.5
1709.917	1337.5
1714.355	1297.5
1718.788	1283.5
1723.218	1286.5
1727.643	1305.5
1732.064	1292.5
1736.481	1283.5
1740.893	1265.5
1745.301	1223.5
1749.705	1198.5
1754.105	1182.5
1758.501	1160.5
1762.893	1147.5
1767.28	1136.5
1771.663	1122.5
1776.042	1136.5
1780.417	1119.5
1784.787	1072.5
1789.154	1079.5
1793.516	1065.5
1797.874	1061.5
1802.228	1040.5
1806.578	1019.5
1810.924	1021.5
1815.266	1004.5
1819.603	1003.5
1823.937	1012.5
1828.266	988.5
1832.591	1011.5
1836.913	1003.5
1841.23	1004.5
1845.543	989.5
1849.852	1003.5
1854.156	999.5
1858.457	999.5
1862.754	1019.5
1867.047	999.5
1871.335	1032.5
1875.62	1008.5
1879.9	1004.5
1884.177	999.5
1888.449	993.5
1892.718	961.5
1896.982	961.5
1901.243	952.5
1905.499	942.5
1909.752	932.5
1914	915.5
1918.245	904.5
1922.485	886.5
1926.722	904.5
1930.954	885.5
1935.183	893.5
1939.408	881.5
1943.628	864.5
1947.845	860.5
1952.058	859.5
1956.267	834.5
1960.472	847.5
1964.673	809.5
1968.87	827.5
1973.063	816.5
1977.252	814.5
1981.438	826.5
1985.619	815.5
1989.797	806.5
1993.971	819.5
1998.14	822.5
2002.306	806.5
2006.469	829.5
2010.627	821.5
2014.781	832.5
2018.932	814.5
2023.078	811.5
2027.221	818.5
2031.36	811.5
2035.495	792.5
2039.627	787.5
2043.754	762.5
2047.878	767.5
2051.998	757.5
2056.114	759.5
2060.226	764.5
2064.334	755.5
2068.439	751.5
2072.54	751.5
2076.637	757.5
2080.73	759.5
2084.82	754.5
2088.906	730.5
2092.988	736.5
2097.066	717.5
2101.14	720.5
2105.211	700.5
2109.278	692.5
2113.342	677.5
2117.401	680.5
2121.457	685.5
2125.509	659.5
2129.558	669.5
2133.602	673.5
2137.643	668.5
2141.681	667.5
2145.714	660.5
2149.744	662.5
2153.77	667.5
2157.793	662.5
2161.812	654.5
2165.827	647.5
2169.838	631.5
2173.846	632.5
2177.851	613.5
2181.851	607.5
2185.848	618.5
2189.841	602.5
2193.831	608.5
2197.817	593.5
2201.799	590.5
2205.778	583.5
2209.753	589.5
2213.725	583.5
2217.693	590.5
2221.657	578.5
2225.618	582.5
2229.575	583.5
2233.529	577.5
2237.479	587.5
2241.425	560.5
2245.368	550.5
2249.307	557.5
2253.243	545.5
2257.175	533.5
2261.104	520.5
2265.029	517.5
2268.95	510.5
2272.868	501.5
2276.783	501.5
2280.694	496.5
2284.601	482.5
2288.505	485.5
2292.405	483.5
2296.302	471.5
2300.195	471.5
2304.085	469.5
2307.971	453.5
2311.854	445.5
2315.734	440.5
2319.609	448.5
2323.482	434.5
2327.351	431.5
2331.216	438.5
2335.078	452.5
2338.937	432.5
2342.792	421.5
2346.643	425.5
2350.492	411.5
2354.336	423.5
2358.178	410.5
2362.015	422.5
2365.85	418.5
2369.681	417.5
2373.508	420.5
2377.333	423.5
2381.153	425.5
2384.971	431.5
2388.785	422.5
2392.595	412.5
2396.402	394.5
2400.206	406.5
2404.007	399.5
2407.804	405.5
2411.597	399.5
2415.388	394.5
2419.174	399.5
2422.958	392.5
2426.738	393.5
2430.515	396.5
2434.289	390.5
2438.059	378.5
2441.825	376.5
2445.589	381.5
2449.349	367.5
2453.106	373.5
2456.859	364.5
2460.61	373.5
2464.356	356.5
2468.1	347.5
2471.84	346.5
2475.577	343.5
2479.311	330.5
2483.041	342.5
2486.768	333.5
2490.492	335.5
2494.213	335.5
2497.93	327.5
2501.644	339.5
2505.355	326.5
2509.062	315.5
2512.766	307.5
2516.467	318.5
2520.165	316.5
2523.859	311.5
2527.551	301.5
2531.239	299.5
2534.923	285.5
2538.605	292.5
2542.283	282.5
2545.958	281.5
2549.63	289.5
2553.299	284.5
2556.964	278.5
2560.626	276.5
2564.285	257.5
2567.941	265.5
2571.594	264.5
2575.243	261.5
2578.89	254.5
2582.533	252.5
2586.173	256.5
2589.809	246.5
2593.443	241.5
2597.073	243.5
2600.701	242.5
2604.325	235.5
2607.946	238.5
2611.564	231.5
2615.178	243.5
2618.79	223.5
2622.398	242.5
2626.004	222.5
2629.606	228.5
2633.205	216.5
2636.801	229.5
2640.394	228.5
2643.983	216.5
2647.57	227.5
2651.153	210.5
2654.734	210.5
2658.311	198.5
2661.885	198.5
2665.456	208.5
2669.025	214.5
2672.589	198.5
2676.151	204.5
2679.71	196.5
2683.266	189.5
2686.819	188.5
2690.368	190.5
2693.915	190.5
2697.458	177.5
2700.999	184.5
2704.536	186.5
2708.071	168.5
2711.602	174.5
2715.13	173.5
2718.656	170.5
2722.178	162.5
2725.697	157.5
2729.214	151.5
2732.727	168.5
2736.237	161.5
2739.744	154.5
2743.249	150.5
2746.75	149.5
2750.248	147.5
2753.743	143.5
2757.236	143.5
2760.725	142.5
2764.211	138.5
2767.695	127.5
2771.175	129.5
2774.652	119.5
2778.127	130.5
2781.598	120.5
2785.067	143.5
2788.532	132.5
2791.995	132.5
2795.455	129.5
2798.911	119.5
2802.365	135.5
2805.816	131.5
2809.264	132.5
2812.709	137.5
2816.151	137.5
2819.59	131.5
2823.026	134.5
2826.46	130.5
2829.89	134.5
2833.318	128.5
2836.742	133.5
2840.164	123.5
2843.583	141.5
2846.999	140.5
2850.412	139.5
2853.822	137.5
2857.229	134.5
2860.634	145.5
2864.035	146.5
2867.434	152.5
2870.83	160.5
2874.223	167.5
2877.613	171.5
2881	173.5
2884.385	174.5
2887.766	163.5
2891.145	173.5
2894.521	175.5
2897.894	171.5
2901.264	175.5
2904.631	186.5
2907.996	180.5
2911.358	174.5
2914.717	187.5
2918.073	185.5
2921.426	196.5
2924.777	196.5
2928.124	206.5
2931.469	207.5
2934.811	207.5
2938.15	216.5
2941.487	223.5
2944.821	215.5
2948.152	215.5
2951.48	221.5
2954.805	222.5
2958.128	213.5
2961.447	212.5
2964.765	219.5
2968.079	212.5
2971.39	211.5
2974.699	220.5
2978.005	227.5
2981.308	224.5
2984.609	218.5
2987.907	222.5
2991.202	228.5
2994.494	226.5
2997.784	222.5
3001.07	236.5
3004.355	239.5
3007.636	231.5
3010.915	238.5
3014.191	242.5
3017.464	254.5
3020.734	242.5
3024.002	239.5
3027.267	258.5
3030.53	257.5
3033.789	271.5
3037.046	276.5
3040.301	276.5
3043.552	299.5
3046.801	295.5
3050.048	303.5
3053.291	318.5
3056.532	332.5
3059.771	345.5
3063.006	348.5
3066.239	356.5
3069.469	360.5
3072.697	378.5
3075.922	393.5
3079.144	400.5
3082.364	413.5
3085.581	420.5
3088.795	415.5
3092.007	427.5
3095.216	444.5
3098.423	434.5
3101.627	448.5
3104.828	469.5
3108.026	482.5
3111.222	490.5
3114.416	505.5
3117.607	514.5
3120.795	522.5
3123.98	516.5
3127.163	533.5
3130.344	568.5
3133.521	574.5
3136.696	593.5
3139.869	580.5
3143.039	580.5
3146.206	599.5
3149.371	614.5
3152.533	617.5
3155.693	617.5
3158.85	632.5
3162.005	639.5
3165.157	640.5
3168.306	658.5
3171.453	660.5
3174.597	639.5
3177.739	653.5
3180.878	654.5
3184.014	672.5
3187.149	656.5
3190.28	667.5
3193.409	672.5
3196.536	672.5
3199.659	675.5
3202.781	681.5
3205.9	675.5
3209.016	684.5
3212.13	673.5
3215.241	671.5
3218.35	663.5
3221.456	658.5
3224.56	652.5
3227.661	627.5
3230.76	634.5
3233.856	632.5
3236.95	615.5
3240.041	616.5
3243.13	588.5
3246.216	596.5
3249.3	579.5
3252.382	575.5
3255.46	567.5
3258.537	569.5
3261.611	568.5
3264.682	549.5
3267.751	552.5
3270.818	551.5
3273.882	539.5
3276.943	543.5
3280.002	534.5
3283.059	538.5
3286.113	540.5
3289.165	527.5
3292.214	526.5
3295.261	517.5
3298.306	507.5
3301.348	506.5
3304.387	493.5
3307.425	491.5
3310.459	488.5
3313.492	482.5
3316.521	477.5
3319.549	480.5
3322.574	466.5
3325.597	476.5
3328.617	468.5
3331.635	460.5
3334.65	459.5
3337.663	447.5
3340.674	462.5
3343.682	451.5
3346.688	444.5
3349.691	450.5
3352.692	454.5
3355.691	439.5
3358.687	446.5
3361.681	447.5
3364.673	438.5
3367.662	432.5
3370.649	424.5
3373.633	408.5
3376.615	413.5
3379.595	401.5
3382.572	396.5
3385.547	399.5
3388.52	381.5
3391.49	381.5
3394.458	374.5
3397.424	376.5
3400.387	359.5
3403.348	351.5
3406.307	353.5
3409.263	345.5
3412.217	353.5
3415.168	337.5
3418.118	334.5
3421.065	326.5
3424.009	325.5
3426.951	317.5
3429.891	317.5
3432.829	291.5
3435.764	299.5
3438.697	288.5
3441.628	279.5
3444.557	275.5
3447.483	273.5
3450.407	252.5
3453.328	243.5
3456.247	234.5
3459.164	225.5
3462.079	211.5
3464.991	202.5
3467.902	205.5
3470.809	201.5
3473.715	188.5
3476.618	178.5
3479.519	166.5
3482.418	165.5
3485.315	162.5
3488.209	142.5
3491.101	145.5
3493.99	146.5
3496.878	134.5
3499.763	123.5
3502.646	115.5
3505.527	106.5
3508.405	101.5
3511.281	102.5
3514.155	86.5
3517.027	86.5
3519.897	71.5
3522.764	68.5
3525.629	61.5
3528.492	46.5
3531.352	55.5
3534.211	44.5
3537.067	36.5
3539.921	36.5
3542.773	32.5
3545.622	14.5
3548.469	16.5
3551.315	14.5
3554.157	3.5
3556.998	2.5
3559.837	-3.5
3562.673	-7.5
3565.507	-12.5
3568.339	-15.5
3571.169	-24.5
3573.996	-26.5
3576.822	-18.5
3579.645	-28.5
3582.466	-25.5
3585.285	-38.5
3588.101	-27.5
3590.916	-39.5
3593.728	-51.5
3596.538	-44.5
3599.346	-50.5
3602.152	-46.5
3604.956	-52.5
3607.757	-53.5
3610.556	-58.5
3613.354	-59.5
3616.149	-71.5
3618.942	-73.5
3621.732	-67.5
3624.521	-69.5
3627.307	-64.5
3630.092	-70.5
3632.874	-69.5
3635.654	-78.5
3638.432	-78.5
3641.208	-77.5
3643.982	-76.5
3646.753	-80.5
3649.523	-87.5
3652.29	-80.5
3655.055	-87.5
3657.818	-85.5
3660.579	-85.5
3663.338	-85.5
3666.095	-90.5
3668.849	-93.5
3671.602	-94.5
3674.352	-99.5
3677.101	-101.5
3679.847	-101.5
3682.591	-99.5
3685.333	-95.5
3688.073	-100.5
3690.811	-101.5
3693.547	-108.5
3696.281	-104.5
3699.013	-110.5
3701.742	-107.5
3704.47	-109.5
3707.195	-102.5
3709.919	-111.5
3712.64	-108.5
3715.359	-119.5
3718.076	-108.5
3720.792	-117.5
3723.505	-117.5
3726.216	-110.5
3728.925	-112.5
3731.632	-112.5
3734.336	-120.5
3737.039	-113.5
3739.74	-119.5
3742.439	-122.5
3745.136	-116.5
3747.83	-125.5
3750.523	-120.5
3753.213	-118.5
3755.902	-114.5
3758.589	-125.5
3761.273	-117.5
3763.956	-115.5
3766.636	-116.5
3769.315	-117.5
3771.991	-114.5
3774.665	-123.5
3777.338	-116.5
3780.008	-122.5
3782.677	-121.5
3785.343	-118.5
3788.007	-125.5
3790.67	-123.5
3793.33	-119.5
3795.989	-121.5
3798.645	-113.5
3801.299	-120.5
3803.952	-124.5
3806.602	-117.5
3809.251	-129.5
3811.897	-126.5
3814.542	-124.5
3817.184	-122.5
3819.825	-119.5
3822.463	-123.5
3825.1	-122.5
3827.735	-122.5
3830.367	-126.5
3832.998	-127.5
3835.627	-124.5
3838.253	-120.5
3840.878	-119.5
3843.501	-118.5
3846.122	-121.5
3848.741	-129.5
3851.358	-123.5
3853.973	-129.5
3856.586	-124.5
3859.197	-132.5
3861.806	-121.5
3864.414	-128.5
3867.019	-117.5
3869.622	-124.5
3872.224	-113.5
3874.823	-106.5
3877.421	-105.5
3880.016	-84.5
3882.61	-66.5
3885.202	-67.5
3887.792	-81.5
3890.38	-100.5
3892.966	-119.5
3895.55	-124.5
3898.132	-127.5
3900.713	-123.5
3903.291	-130.5
3905.868	-125.5
3908.442	-122.5
3911.015	-126.5
3913.586	-129.5
3916.155	-130.5
3918.722	-128.5
3921.287	-123.5
3923.85	-131.5
3926.411	-126.5
3928.971	-128.5
3931.528	-128.5
3934.084	-125.5
3936.638	-120.5
3939.19	-136.5
3941.74	-135.5
3944.288	-130.5
3946.834	-122.5
3949.378	-124.5
3951.921	-124.5
3954.462	-131.5
3957	-131.5
3959.537	-125.5
3962.072	-125.5
3964.606	-118.5
3967.137	-125.5
3969.667	-119.5
3972.194	-129.5
3974.72	-126.5
3977.244	-125.5
3979.766	-128.5
3982.286	-122.5
3984.805	-128.5
3987.321	-121.5
3989.836	-118.5
3992.349	-126.5
3994.86	-124.5
3997.369	-124.5
3999.877	-127.5
4002.382	-122.5
4004.886	-132.5
4007.388	-124.5
4009.888	-122.5
4012.386	-125.5
4014.883	-124.5
4017.377	-127.5
4019.87	-124.5
4022.361	-128.5
4024.85	-127.5
4027.338	-125.5
4029.823	-123.5
4032.307	-122.5
4034.789	-126.5
4037.269	-128.5
4039.747	-119.5
4042.224	-120.5
4044.699	-125.5
4047.172	-123.5
4049.643	-120.5
4052.112	-121.5
4054.58	-124.5
4057.046	-123.5
4059.51	-126.5
4061.972	-127.5
4064.432	-125.5
4066.891	-124.5
4069.348	-120.5
4071.803	-125.5
4074.256	-123.5
4076.708	-124.5
4079.158	-122.5
4081.606	-117.5
4084.052	-130.5
4086.497	-125.5
4088.939	-118.5
4091.38	-120.5
4093.819	-123.5
4096.257	-132.5
4098.693	-129.5
4101.127	-128.5
4103.559	-130.5
4105.989	-13.5
4108.418	-10.5
4110.845	-14.5
4113.27	-13.5
4115.694	-19.5
4118.115	-10.5
4120.535	-126.5
4122.954	-134.5
4125.37	-122.5
4127.785	-127.5
4130.198	-125.5
4132.609	-121.5
4135.019	-129.5
4137.427	-129.5
4139.833	-131.5
4142.237	-132.5
