Data from 2018-2-8_conc=3_n=3_RamanShift_02.txt Node
Date: Mon Mar 12 14:35:28 IST 2018
User: aro
Spectrometer: QEPB0276
Trigger mode: 0
Integration Time (sec): 3.000000E1
Scans to average: 1
Electric dark correction enabled: true
Nonlinearity correction enabled: false
Boxcar width: 0
XAxis mode: Raman Shifts
Number of Pixels in Spectrum: 1044
>>>>>Begin Spectral Data<<<<<
160.701	21.9
166.742	53.9
172.777	135.9
178.805	413.9
184.826	1094.9
190.841	2365.9
196.849	3920.9
202.85	5167.9
208.845	5650.9
214.833	5684.9
220.815	5569.9
226.789	5537.9
232.758	5536.9
238.719	5545.9
244.674	5507.9
250.623	5458.9
256.565	5388.9
262.5	5312.9
268.429	5229.9
274.351	5156.9
280.267	5138.9
286.176	5125.9
292.079	5084.9
297.975	5086.9
303.865	5063.9
309.748	5053.9
315.625	5047.9
321.495	5005.9
327.359	5019.9
333.217	4998.9
339.068	5044.9
344.912	5046.9
350.751	5058.9
356.583	5076.9
362.408	5066.9
368.227	5063.9
374.04	5068.9
379.847	5101.9
385.647	5119.9
391.44	5129.9
397.228	5170.9
403.009	5193.9
408.784	5229.9
414.553	5221.9
420.315	5250.9
426.071	5247.9
431.821	5222.9
437.565	5239.9
443.302	5221.9
449.033	5206.9
454.758	5185.9
460.477	5128.9
466.189	5143.9
471.896	5101.9
477.596	5078.9
483.29	5061.9
488.978	5053.9
494.66	5005.9
500.335	4991.9
506.005	4839.9
511.668	4718.9
517.325	4566.9
522.977	4425.9
528.622	4349.9
534.261	4309.9
539.894	4246.9
545.521	4179.9
551.141	4177.9
556.756	4147.9
562.365	4109.9
567.968	4088.9
573.565	4083.9
579.155	4052.9
584.74	4047.9
590.319	4000.9
595.892	3980.9
601.459	4004.9
607.02	3990.9
612.575	3986.9
618.124	3887.9
623.667	3898.9
629.204	3883.9
634.735	3822.9
640.261	3782.9
645.781	3781.9
651.294	3767.9
656.802	3763.9
662.304	3746.9
667.8	3727.9
673.29	3733.9
678.775	3722.9
684.254	3704.9
689.726	3671.9
695.193	3683.9
700.655	3659.9
706.11	3626.9
711.56	3629.9
717.004	3583.9
722.442	3579.9
727.874	3561.9
733.301	3533.9
738.722	3526.9
744.137	3519.9
749.547	3518.9
754.951	3515.9
760.349	3525.9
765.741	3539.9
771.128	3548.9
776.509	3569.9
781.885	3563.9
787.254	3587.9
792.618	3571.9
797.977	3576.9
803.33	3563.9
808.677	3505.9
814.019	3487.9
819.355	3462.9
824.686	3422.9
830.011	3441.9
835.33	3440.9
840.644	3403.9
845.952	3393.9
851.255	3374.9
856.552	3407.9
861.844	3380.9
867.13	3322.9
872.41	3330.9
877.686	3314.9
882.955	3268.9
888.219	3262.9
893.478	3219.9
898.731	3182.9
903.979	3151.9
909.221	3120.9
914.458	3087.9
919.69	3087.9
924.916	3082.9
930.136	3101.9
935.351	3081.9
940.561	3111.9
945.766	3071.9
950.965	3099.9
956.158	3067.9
961.347	3043.9
966.529	3001.9
971.707	2935.9
976.879	2903.9
982.046	2895.9
987.208	2874.9
992.364	2873.9
997.515	2895.9
1002.66	2889.9
1007.801	2917.9
1012.936	2960.9
1018.066	2964.9
1023.19	2959.9
1028.309	2959.9
1033.423	2974.9
1038.532	2939.9
1043.636	2911.9
1048.734	2894.9
1053.827	2860.9
1058.915	2830.9
1063.998	2796.9
1069.075	2790.9
1074.147	2785.9
1079.214	2785.9
1084.276	2817.9
1089.333	2841.9
1094.385	2834.9
1099.431	2831.9
1104.472	2818.9
1109.509	2803.9
1114.54	2752.9
1119.565	2735.9
1124.586	2680.9
1129.602	2685.9
1134.613	2655.9
1139.618	2624.9
1144.619	2629.9
1149.614	2630.9
1154.604	2643.9
1159.589	2639.9
1164.57	2653.9
1169.545	2627.9
1174.515	2656.9
1179.48	2656.9
1184.44	2622.9
1189.395	2571.9
1194.345	2570.9
1199.29	2557.9
1204.23	2555.9
1209.165	2568.9
1214.095	2573.9
1219.021	2574.9
1223.941	2591.9
1228.856	2612.9
1233.766	2606.9
1238.672	2625.9
1243.572	2605.9
1248.467	2602.9
1253.358	2588.9
1258.244	2548.9
1263.124	2487.9
1268	2455.9
1272.871	2420.9
1277.737	2407.9
1282.599	2408.9
1287.455	2383.9
1292.306	2394.9
1297.153	2394.9
1301.995	2421.9
1306.832	2440.9
1311.664	2439.9
1316.491	2446.9
1321.314	2425.9
1326.132	2418.9
1330.945	2417.9
1335.753	2330.9
1340.556	2324.9
1345.354	2300.9
1350.148	2264.9
1354.937	2224.9
1359.722	2189.9
1364.501	2148.9
1369.276	2127.9
1374.046	2086.9
1378.811	2058.9
1383.572	2037.9
1388.327	2046.9
1393.079	2043.9
1397.825	2044.9
1402.567	2034.9
1407.304	2053.9
1412.036	2044.9
1416.764	2063.9
1421.487	2057.9
1426.205	2050.9
1430.919	2055.9
1435.628	2063.9
1440.333	2100.9
1445.032	2114.9
1449.727	2118.9
1454.418	2130.9
1459.104	2117.9
1463.785	2109.9
1468.462	2076.9
1473.134	2020.9
1477.802	2004.9
1482.465	1930.9
1487.123	1893.9
1491.777	1885.9
1496.426	1870.9
1501.071	1837.9
1505.711	1822.9
1510.347	1832.9
1514.978	1847.9
1519.604	1814.9
1524.226	1825.9
1528.844	1809.9
1533.457	1813.9
1538.065	1795.9
1542.669	1771.9
1547.269	1782.9
1551.864	1792.9
1556.454	1820.9
1561.041	1822.9
1565.622	1822.9
1570.199	1833.9
1574.772	1851.9
1579.34	1896.9
1583.904	1902.9
1588.464	1892.9
1593.019	1919.9
1597.569	1905.9
1602.115	1927.9
1606.657	1922.9
1611.195	1889.9
1615.728	1897.9
1620.256	1893.9
1624.78	1895.9
1629.3	1884.9
1633.816	1916.9
1638.327	1909.9
1642.834	1912.9
1647.336	1918.9
1651.834	1935.9
1656.328	1925.9
1660.817	1924.9
1665.302	1909.9
1669.783	1864.9
1674.259	1818.9
1678.732	1803.9
1683.199	1726.9
1687.663	1673.9
1692.122	1624.9
1696.577	1561.9
1701.028	1500.9
1705.474	1459.9
1709.917	1413.9
1714.355	1354.9
1718.788	1358.9
1723.218	1356.9
1727.643	1349.9
1732.064	1347.9
1736.481	1341.9
1740.893	1294.9
1745.301	1282.9
1749.705	1254.9
1754.105	1233.9
1758.501	1228.9
1762.893	1208.9
1767.28	1184.9
1771.663	1179.9
1776.042	1160.9
1780.417	1144.9
1784.787	1141.9
1789.154	1134.9
1793.516	1138.9
1797.874	1106.9
1802.228	1087.9
1806.578	1085.9
1810.924	1066.9
1815.266	1058.9
1819.603	1053.9
1823.937	1049.9
1828.266	1056.9
1832.591	1052.9
1836.913	1047.9
1841.23	1046.9
1845.543	1044.9
1849.852	1053.9
1854.156	1057.9
1858.457	1069.9
1862.754	1039.9
1867.047	1059.9
1871.335	1055.9
1875.62	1050.9
1879.9	1049.9
1884.177	1035.9
1888.449	1039.9
1892.718	1017.9
1896.982	993.9
1901.243	995.9
1905.499	990.9
1909.752	964.9
1914	946.9
1918.245	955.9
1922.485	916.9
1926.722	922.9
1930.954	919.9
1935.183	917.9
1939.408	902.9
1943.628	894.9
1947.845	896.9
1952.058	893.9
1956.267	885.9
1960.472	874.9
1964.673	860.9
1968.87	861.9
1973.063	855.9
1977.252	854.9
1981.438	847.9
1985.619	853.9
1989.797	848.9
1993.971	859.9
1998.14	862.9
2002.306	845.9
2006.469	860.9
2010.627	858.9
2014.781	861.9
2018.932	844.9
2023.078	861.9
2027.221	852.9
2031.36	842.9
2035.495	825.9
2039.627	820.9
2043.754	808.9
2047.878	799.9
2051.998	790.9
2056.114	790.9
2060.226	781.9
2064.334	780.9
2068.439	779.9
2072.54	778.9
2076.637	774.9
2080.73	780.9
2084.82	762.9
2088.906	761.9
2092.988	761.9
2097.066	746.9
2101.14	734.9
2105.211	741.9
2109.278	707.9
2113.342	706.9
2117.401	698.9
2121.457	707.9
2125.509	691.9
2129.558	695.9
2133.602	690.9
2137.643	697.9
2141.681	690.9
2145.714	696.9
2149.744	686.9
2153.77	678.9
2157.793	679.9
2161.812	683.9
2165.827	683.9
2169.838	658.9
2173.846	658.9
2177.851	635.9
2181.851	636.9
2185.848	621.9
2189.841	620.9
2193.831	613.9
2197.817	610.9
2201.799	620.9
2205.778	604.9
2209.753	595.9
2213.725	598.9
2217.693	610.9
2221.657	611.9
2225.618	601.9
2229.575	597.9
2233.529	589.9
2237.479	589.9
2241.425	572.9
2245.368	575.9
2249.307	552.9
2253.243	552.9
2257.175	548.9
2261.104	536.9
2265.029	533.9
2268.95	532.9
2272.868	526.9
2276.783	511.9
2280.694	511.9
2284.601	510.9
2288.505	494.9
2292.405	490.9
2296.302	490.9
2300.195	470.9
2304.085	474.9
2307.971	460.9
2311.854	471.9
2315.734	443.9
2319.609	439.9
2323.482	444.9
2327.351	440.9
2331.216	451.9
2335.078	455.9
2338.937	430.9
2342.792	421.9
2346.643	427.9
2350.492	418.9
2354.336	415.9
2358.178	424.9
2362.015	430.9
2365.85	423.9
2369.681	420.9
2373.508	422.9
2377.333	429.9
2381.153	417.9
2384.971	427.9
2388.785	421.9
2392.595	415.9
2396.402	401.9
2400.206	418.9
2404.007	415.9
2407.804	403.9
2411.597	393.9
2415.388	406.9
2419.174	406.9
2422.958	389.9
2426.738	391.9
2430.515	387.9
2434.289	387.9
2438.059	380.9
2441.825	378.9
2445.589	375.9
2449.349	367.9
2453.106	368.9
2456.859	360.9
2460.61	374.9
2464.356	347.9
2468.1	350.9
2471.84	333.9
2475.577	343.9
2479.311	331.9
2483.041	333.9
2486.768	341.9
2490.492	328.9
2494.213	334.9
2497.93	325.9
2501.644	314.9
2505.355	309.9
2509.062	326.9
2512.766	311.9
2516.467	301.9
2520.165	303.9
2523.859	299.9
2527.551	292.9
2531.239	289.9
2534.923	281.9
2538.605	271.9
2542.283	276.9
2545.958	274.9
2549.63	268.9
2553.299	268.9
2556.964	269.9
2560.626	270.9
2564.285	265.9
2567.941	265.9
2571.594	261.9
2575.243	259.9
2578.89	252.9
2582.533	238.9
2586.173	245.9
2589.809	233.9
2593.443	237.9
2597.073	238.9
2600.701	226.9
2604.325	233.9
2607.946	231.9
2611.564	225.9
2615.178	236.9
2618.79	224.9
2622.398	227.9
2626.004	223.9
2629.606	220.9
2633.205	217.9
2636.801	204.9
2640.394	212.9
2643.983	217.9
2647.57	210.9
2651.153	204.9
2654.734	196.9
2658.311	198.9
2661.885	198.9
2665.456	188.9
2669.025	200.9
2672.589	199.9
2676.151	194.9
2679.71	189.9
2683.266	184.9
2686.819	177.9
2690.368	172.9
2693.915	173.9
2697.458	172.9
2700.999	164.9
2704.536	165.9
2708.071	164.9
2711.602	160.9
2715.13	154.9
2718.656	151.9
2722.178	152.9
2725.697	149.9
2729.214	138.9
2732.727	147.9
2736.237	146.9
2739.744	145.9
2743.249	141.9
2746.75	140.9
2750.248	138.9
2753.743	126.9
2757.236	126.9
2760.725	129.9
2764.211	123.9
2767.695	113.9
2771.175	115.9
2774.652	109.9
2778.127	113.9
2781.598	108.9
2785.067	118.9
2788.532	111.9
2791.995	123.9
2795.455	117.9
2798.911	113.9
2802.365	127.9
2805.816	125.9
2809.264	120.9
2812.709	121.9
2816.151	119.9
2819.59	121.9
2823.026	116.9
2826.46	113.9
2829.89	120.9
2833.318	122.9
2836.742	117.9
2840.164	114.9
2843.583	124.9
2846.999	132.9
2850.412	120.9
2853.822	123.9
2857.229	120.9
2860.634	135.9
2864.035	133.9
2867.434	138.9
2870.83	146.9
2874.223	158.9
2877.613	153.9
2881	166.9
2884.385	162.9
2887.766	156.9
2891.145	152.9
2894.521	173.9
2897.894	164.9
2901.264	164.9
2904.631	161.9
2907.996	172.9
2911.358	166.9
2914.717	177.9
2918.073	178.9
2921.426	187.9
2924.777	184.9
2928.124	200.9
2931.469	193.9
2934.811	202.9
2938.15	207.9
2941.487	213.9
2944.821	214.9
2948.152	212.9
2951.48	220.9
2954.805	216.9
2958.128	214.9
2961.447	210.9
2964.765	210.9
2968.079	199.9
2971.39	206.9
2974.699	212.9
2978.005	220.9
2981.308	210.9
2984.609	217.9
2987.907	213.9
2991.202	216.9
2994.494	215.9
2997.784	223.9
3001.07	231.9
3004.355	241.9
3007.636	235.9
3010.915	235.9
3014.191	241.9
3017.464	245.9
3020.734	247.9
3024.002	240.9
3027.267	260.9
3030.53	259.9
3033.789	265.9
3037.046	265.9
3040.301	273.9
3043.552	285.9
3046.801	300.9
3050.048	311.9
3053.291	304.9
3056.532	322.9
3059.771	343.9
3063.006	354.9
3066.239	366.9
3069.469	379.9
3072.697	377.9
3075.922	391.9
3079.144	400.9
3082.364	414.9
3085.581	441.9
3088.795	440.9
3092.007	428.9
3095.216	456.9
3098.423	462.9
3101.627	474.9
3104.828	486.9
3108.026	482.9
3111.222	493.9
3114.416	509.9
3117.607	523.9
3120.795	535.9
3123.98	542.9
3127.163	557.9
3130.344	570.9
3133.521	580.9
3136.696	585.9
3139.869	599.9
3143.039	613.9
3146.206	626.9
3149.371	631.9
3152.533	647.9
3155.693	645.9
3158.85	656.9
3162.005	664.9
3165.157	660.9
3168.306	666.9
3171.453	670.9
3174.597	673.9
3177.739	670.9
3180.878	681.9
3184.014	692.9
3187.149	694.9
3190.28	691.9
3193.409	673.9
3196.536	683.9
3199.659	702.9
3202.781	696.9
3205.9	702.9
3209.016	700.9
3212.13	696.9
3215.241	698.9
3218.35	679.9
3221.456	673.9
3224.56	673.9
3227.661	673.9
3230.76	654.9
3233.856	654.9
3236.95	640.9
3240.041	629.9
3243.13	622.9
3246.216	613.9
3249.3	606.9
3252.382	602.9
3255.46	595.9
3258.537	589.9
3261.611	572.9
3264.682	582.9
3267.751	582.9
3270.818	575.9
3273.882	569.9
3276.943	557.9
3280.002	559.9
3283.059	546.9
3286.113	558.9
3289.165	543.9
3292.214	538.9
3295.261	521.9
3298.306	532.9
3301.348	514.9
3304.387	518.9
3307.425	514.9
3310.459	500.9
3313.492	492.9
3316.521	488.9
3319.549	484.9
3322.574	483.9
3325.597	474.9
3328.617	478.9
3331.635	473.9
3334.65	461.9
3337.663	463.9
3340.674	482.9
3343.682	470.9
3346.688	464.9
3349.691	471.9
3352.692	464.9
3355.691	468.9
3358.687	454.9
3361.681	455.9
3364.673	446.9
3367.662	442.9
3370.649	429.9
3373.633	429.9
3376.615	422.9
3379.595	404.9
3382.572	410.9
3385.547	397.9
3388.52	389.9
3391.49	390.9
3394.458	384.9
3397.424	377.9
3400.387	367.9
3403.348	370.9
3406.307	358.9
3409.263	352.9
3412.217	348.9
3415.168	340.9
3418.118	339.9
3421.065	339.9
3424.009	331.9
3426.951	325.9
3429.891	314.9
3432.829	300.9
3435.764	305.9
3438.697	298.9
3441.628	279.9
3444.557	280.9
3447.483	263.9
3450.407	250.9
3453.328	238.9
3456.247	230.9
3459.164	214.9
3462.079	218.9
3464.991	198.9
3467.902	197.9
3470.809	191.9
3473.715	176.9
3476.618	174.9
3479.519	170.9
3482.418	151.9
3485.315	145.9
3488.209	139.9
3491.101	135.9
3493.99	134.9
3496.878	126.9
3499.763	115.9
3502.646	99.9
3505.527	97.9
3508.405	93.9
3511.281	82.9
3514.155	80.9
3517.027	67.9
3519.897	69.9
3522.764	54.9
3525.629	48.9
3528.492	39.9
3531.352	32.9
3534.211	20.9
3537.067	19.9
3539.921	17.9
3542.773	14.9
3545.622	-3.1
3548.469	2.9
3551.315	-4.1
3554.157	-14.1
3556.998	-19.1
3559.837	-18.1
3562.673	-20.1
3565.507	-26.1
3568.339	-28.1
3571.169	-42.1
3573.996	-37.1
3576.822	-43.1
3579.645	-51.1
3582.466	-55.1
3585.285	-57.1
3588.101	-43.1
3590.916	-60.1
3593.728	-67.1
3596.538	-68.1
3599.346	-71.1
3602.152	-69.1
3604.956	-75.1
3607.757	-70.1
3610.556	-75.1
3613.354	-77.1
3616.149	-81.1
3618.942	-91.1
3621.732	-91.1
3624.521	-90.1
3627.307	-92.1
3630.092	-92.1
3632.874	-90.1
3635.654	-93.1
3638.432	-97.1
3641.208	-97.1
3643.982	-108.1
3646.753	-100.1
3649.523	-111.1
3652.29	-102.1
3655.055	-107.1
3657.818	-103.1
3660.579	-107.1
3663.338	-109.1
3666.095	-112.1
3668.849	-119.1
3671.602	-119.1
3674.352	-124.1
3677.101	-126.1
3679.847	-119.1
3682.591	-125.1
3685.333	-121.1
3688.073	-122.1
3690.811	-125.1
3693.547	-140.1
3696.281	-130.1
3699.013	-126.1
3701.742	-130.1
3704.47	-130.1
3707.195	-128.1
3709.919	-129.1
3712.64	-135.1
3715.359	-142.1
3718.076	-136.1
3720.792	-138.1
3723.505	-140.1
3726.216	-133.1
3728.925	-141.1
3731.632	-140.1
3734.336	-147.1
3737.039	-137.1
3739.74	-141.1
3742.439	-149.1
3745.136	-141.1
3747.83	-141.1
3750.523	-143.1
3753.213	-150.1
3755.902	-137.1
3758.589	-149.1
3761.273	-138.1
3763.956	-139.1
3766.636	-147.1
3769.315	-138.1
3771.991	-142.1
3774.665	-148.1
3777.338	-140.1
3780.008	-139.1
3782.677	-144.1
3785.343	-146.1
3788.007	-148.1
3790.67	-146.1
3793.33	-141.1
3795.989	-152.1
3798.645	-143.1
3801.299	-150.1
3803.952	-153.1
3806.602	-140.1
3809.251	-147.1
3811.897	-154.1
3814.542	-148.1
3817.184	-142.1
3819.825	-148.1
3822.463	-145.1
3825.1	-150.1
3827.735	-145.1
3830.367	-150.1
3832.998	-153.1
3835.627	-145.1
3838.253	-147.1
3840.878	-149.1
3843.501	-146.1
3846.122	-154.1
3848.741	-151.1
3851.358	-148.1
3853.973	-149.1
3856.586	-146.1
3859.197	-156.1
3861.806	-144.1
3864.414	-151.1
3867.019	-145.1
3869.622	-148.1
3872.224	-138.1
3874.823	-121.1
3877.421	-106.1
3880.016	-84.1
3882.61	-49.1
3885.202	-58.1
3887.792	-69.1
3890.38	-103.1
3892.966	-129.1
3895.55	-139.1
3898.132	-144.1
3900.713	-147.1
3903.291	-149.1
3905.868	-150.1
3908.442	-144.1
3911.015	-153.1
3913.586	-150.1
3916.155	-156.1
3918.722	-152.1
3921.287	-150.1
3923.85	-151.1
3926.411	-152.1
3928.971	-149.1
3931.528	-152.1
3934.084	-147.1
3936.638	-142.1
3939.19	-155.1
3941.74	-151.1
3944.288	-154.1
3946.834	-154.1
3949.378	-151.1
3951.921	-152.1
3954.462	-156.1
3957	-152.1
3959.537	-147.1
3962.072	-156.1
3964.606	-149.1
3967.137	-153.1
3969.667	-153.1
3972.194	-155.1
3974.72	-151.1
3977.244	-152.1
3979.766	-152.1
3982.286	-150.1
3984.805	-154.1
3987.321	-151.1
3989.836	-141.1
3992.349	-150.1
3994.86	-147.1
3997.369	-147.1
3999.877	-154.1
4002.382	-147.1
4004.886	-152.1
4007.388	-148.1
4009.888	-145.1
4012.386	-146.1
4014.883	-146.1
4017.377	-153.1
4019.87	-151.1
4022.361	-147.1
4024.85	-148.1
4027.338	-148.1
4029.823	-147.1
4032.307	-149.1
4034.789	-151.1
4037.269	-145.1
4039.747	-153.1
4042.224	-142.1
4044.699	-154.1
4047.172	-147.1
4049.643	-146.1
4052.112	-147.1
4054.58	-150.1
4057.046	-146.1
4059.51	-157.1
4061.972	-145.1
4064.432	-146.1
4066.891	-148.1
4069.348	-146.1
4071.803	-154.1
4074.256	-147.1
4076.708	-149.1
4079.158	-152.1
4081.606	-146.1
4084.052	-150.1
4086.497	-149.1
4088.939	-141.1
4091.38	-149.1
4093.819	-152.1
4096.257	-159.1
4098.693	-157.1
4101.127	-152.1
4103.559	-150.1
4105.989	16.9
4108.418	6.9
4110.845	6.9
4113.27	1.9
4115.694	-0.1
4118.115	1.9
4120.535	-150.1
4122.954	-156.1
4125.37	-147.1
4127.785	-148.1
4130.198	-147.1
4132.609	-144.1
4135.019	-157.1
4137.427	-158.1
4139.833	-155.1
4142.237	-155.1
