Data from 2018-2-8_conc=6_n=3_RamanShift_03.txt Node
Date: Mon Mar 12 16:30:58 IST 2018
User: aro
Spectrometer: QEPB0276
Trigger mode: 0
Integration Time (sec): 3.000000E1
Scans to average: 1
Electric dark correction enabled: true
Nonlinearity correction enabled: false
Boxcar width: 0
XAxis mode: Raman Shifts
Number of Pixels in Spectrum: 1044
>>>>>Begin Spectral Data<<<<<
160.701	8.4
166.742	39.4
172.777	112.4
178.805	368.4
184.826	1004.4
190.841	2160.4
196.849	3600.4
202.85	4709.4
208.845	5126.4
214.833	5147.4
220.815	5089.4
226.789	5047.4
232.758	5073.4
238.719	5064.4
244.674	5035.4
250.623	4990.4
256.565	4948.4
262.5	4875.4
268.429	4794.4
274.351	4724.4
280.267	4702.4
286.176	4665.4
292.079	4661.4
297.975	4621.4
303.865	4607.4
309.748	4587.4
315.625	4590.4
321.495	4590.4
327.359	4603.4
333.217	4573.4
339.068	4544.4
344.912	4595.4
350.751	4592.4
356.583	4623.4
362.408	4585.4
368.227	4608.4
374.04	4651.4
379.847	4650.4
385.647	4657.4
391.44	4687.4
397.228	4685.4
403.009	4722.4
408.784	4750.4
414.553	4760.4
420.315	4762.4
426.071	4770.4
431.821	4783.4
437.565	4756.4
443.302	4753.4
449.033	4741.4
454.758	4710.4
460.477	4722.4
466.189	4682.4
471.896	4640.4
477.596	4609.4
483.29	4602.4
488.978	4606.4
494.66	4586.4
500.335	4517.4
506.005	4425.4
511.668	4252.4
517.325	4169.4
522.977	4057.4
528.622	4021.4
534.261	3928.4
539.894	3881.4
545.521	3870.4
551.141	3819.4
556.756	3828.4
562.365	3789.4
567.968	3771.4
573.565	3746.4
579.155	3697.4
584.74	3719.4
590.319	3678.4
595.892	3693.4
601.459	3666.4
607.02	3656.4
612.575	3646.4
618.124	3601.4
623.667	3567.4
629.204	3545.4
634.735	3487.4
640.261	3479.4
645.781	3491.4
651.294	3465.4
656.802	3474.4
662.304	3451.4
667.8	3419.4
673.29	3409.4
678.775	3441.4
684.254	3419.4
689.726	3410.4
695.193	3385.4
700.655	3381.4
706.11	3357.4
711.56	3330.4
717.004	3296.4
722.442	3284.4
727.874	3277.4
733.301	3260.4
738.722	3246.4
744.137	3229.4
749.547	3233.4
754.951	3264.4
760.349	3249.4
765.741	3276.4
771.128	3262.4
776.509	3267.4
781.885	3300.4
787.254	3275.4
792.618	3300.4
797.977	3300.4
803.33	3264.4
808.677	3228.4
814.019	3215.4
819.355	3189.4
824.686	3155.4
830.011	3141.4
835.33	3147.4
840.644	3139.4
845.952	3109.4
851.255	3147.4
856.552	3115.4
861.844	3089.4
867.13	3089.4
872.41	3075.4
877.686	3056.4
882.955	3037.4
888.219	2983.4
893.478	2961.4
898.731	2934.4
903.979	2891.4
909.221	2877.4
914.458	2863.4
919.69	2835.4
924.916	2849.4
930.136	2868.4
935.351	2863.4
940.561	2859.4
945.766	2836.4
950.965	2858.4
956.158	2823.4
961.347	2811.4
966.529	2740.4
971.707	2735.4
976.879	2690.4
982.046	2663.4
987.208	2652.4
992.364	2651.4
997.515	2662.4
1002.66	2691.4
1007.801	2703.4
1012.936	2734.4
1018.066	2718.4
1023.19	2748.4
1028.309	2753.4
1033.423	2747.4
1038.532	2729.4
1043.636	2727.4
1048.734	2669.4
1053.827	2656.4
1058.915	2600.4
1063.998	2592.4
1069.075	2571.4
1074.147	2581.4
1079.214	2555.4
1084.276	2630.4
1089.333	2613.4
1094.385	2606.4
1099.431	2620.4
1104.472	2622.4
1109.509	2577.4
1114.54	2559.4
1119.565	2540.4
1124.586	2488.4
1129.602	2466.4
1134.613	2456.4
1139.618	2438.4
1144.619	2437.4
1149.614	2421.4
1154.604	2431.4
1159.589	2446.4
1164.57	2445.4
1169.545	2441.4
1174.515	2443.4
1179.48	2427.4
1184.44	2410.4
1189.395	2394.4
1194.345	2394.4
1199.29	2342.4
1204.23	2382.4
1209.165	2380.4
1214.095	2385.4
1219.021	2404.4
1223.941	2404.4
1228.856	2419.4
1233.766	2434.4
1238.672	2434.4
1243.572	2429.4
1248.467	2415.4
1253.358	2392.4
1258.244	2342.4
1263.124	2303.4
1268	2275.4
1272.871	2237.4
1277.737	2236.4
1282.599	2200.4
1287.455	2220.4
1292.306	2208.4
1297.153	2222.4
1301.995	2237.4
1306.832	2237.4
1311.664	2270.4
1316.491	2288.4
1321.314	2253.4
1326.132	2263.4
1330.945	2220.4
1335.753	2191.4
1340.556	2161.4
1345.354	2108.4
1350.148	2101.4
1354.937	2078.4
1359.722	2026.4
1364.501	2015.4
1369.276	1971.4
1374.046	1943.4
1378.811	1908.4
1383.572	1906.4
1388.327	1905.4
1393.079	1891.4
1397.825	1908.4
1402.567	1895.4
1407.304	1907.4
1412.036	1910.4
1416.764	1922.4
1421.487	1922.4
1426.205	1903.4
1430.919	1922.4
1435.628	1925.4
1440.333	1963.4
1445.032	1966.4
1449.727	1977.4
1454.418	1988.4
1459.104	1979.4
1463.785	1957.4
1468.462	1925.4
1473.134	1889.4
1477.802	1839.4
1482.465	1806.4
1487.123	1776.4
1491.777	1759.4
1496.426	1748.4
1501.071	1733.4
1505.711	1707.4
1510.347	1719.4
1514.978	1723.4
1519.604	1702.4
1524.226	1717.4
1528.844	1704.4
1533.457	1680.4
1538.065	1680.4
1542.669	1682.4
1547.269	1663.4
1551.864	1681.4
1556.454	1694.4
1561.041	1702.4
1565.622	1717.4
1570.199	1719.4
1574.772	1721.4
1579.34	1754.4
1583.904	1781.4
1588.464	1790.4
1593.019	1780.4
1597.569	1782.4
1602.115	1785.4
1606.657	1781.4
1611.195	1785.4
1615.728	1785.4
1620.256	1770.4
1624.78	1777.4
1629.3	1784.4
1633.816	1771.4
1638.327	1803.4
1642.834	1807.4
1647.336	1817.4
1651.834	1809.4
1656.328	1796.4
1660.817	1805.4
1665.302	1793.4
1669.783	1770.4
1674.259	1729.4
1678.732	1670.4
1683.199	1642.4
1687.663	1590.4
1692.122	1542.4
1696.577	1486.4
1701.028	1429.4
1705.474	1352.4
1709.917	1328.4
1714.355	1290.4
1718.788	1287.4
1723.218	1303.4
1727.643	1291.4
1732.064	1268.4
1736.481	1280.4
1740.893	1242.4
1745.301	1216.4
1749.705	1188.4
1754.105	1171.4
1758.501	1171.4
1762.893	1144.4
1767.28	1129.4
1771.663	1127.4
1776.042	1122.4
1780.417	1106.4
1784.787	1102.4
1789.154	1079.4
1793.516	1097.4
1797.874	1055.4
1802.228	1044.4
1806.578	1038.4
1810.924	1033.4
1815.266	1008.4
1819.603	1008.4
1823.937	1001.4
1828.266	1005.4
1832.591	1001.4
1836.913	991.4
1841.23	1010.4
1845.543	1003.4
1849.852	999.4
1854.156	989.4
1858.457	999.4
1862.754	997.4
1867.047	1004.4
1871.335	1001.4
1875.62	1008.4
1879.9	1009.4
1884.177	1003.4
1888.449	992.4
1892.718	968.4
1896.982	969.4
1901.243	956.4
1905.499	931.4
1909.752	920.4
1914	907.4
1918.245	912.4
1922.485	894.4
1926.722	888.4
1930.954	891.4
1935.183	883.4
1939.408	869.4
1943.628	879.4
1947.845	858.4
1952.058	867.4
1956.267	862.4
1960.472	842.4
1964.673	829.4
1968.87	817.4
1973.063	826.4
1977.252	813.4
1981.438	824.4
1985.619	811.4
1989.797	818.4
1993.971	822.4
1998.14	820.4
2002.306	803.4
2006.469	819.4
2010.627	834.4
2014.781	828.4
2018.932	816.4
2023.078	827.4
2027.221	813.4
2031.36	802.4
2035.495	806.4
2039.627	778.4
2043.754	767.4
2047.878	769.4
2051.998	781.4
2056.114	760.4
2060.226	749.4
2064.334	759.4
2068.439	750.4
2072.54	751.4
2076.637	755.4
2080.73	746.4
2084.82	734.4
2088.906	738.4
2092.988	739.4
2097.066	706.4
2101.14	710.4
2105.211	699.4
2109.278	700.4
2113.342	682.4
2117.401	674.4
2121.457	669.4
2125.509	679.4
2129.558	664.4
2133.602	661.4
2137.643	663.4
2141.681	675.4
2145.714	662.4
2149.744	668.4
2153.77	667.4
2157.793	666.4
2161.812	653.4
2165.827	649.4
2169.838	646.4
2173.846	641.4
2177.851	612.4
2181.851	610.4
2185.848	613.4
2189.841	605.4
2193.831	599.4
2197.817	583.4
2201.799	580.4
2205.778	592.4
2209.753	587.4
2213.725	584.4
2217.693	582.4
2221.657	585.4
2225.618	580.4
2229.575	576.4
2233.529	574.4
2237.479	572.4
2241.425	554.4
2245.368	552.4
2249.307	554.4
2253.243	535.4
2257.175	524.4
2261.104	510.4
2265.029	505.4
2268.95	503.4
2272.868	502.4
2276.783	488.4
2280.694	476.4
2284.601	485.4
2288.505	483.4
2292.405	475.4
2296.302	467.4
2300.195	461.4
2304.085	446.4
2307.971	441.4
2311.854	443.4
2315.734	425.4
2319.609	440.4
2323.482	433.4
2327.351	426.4
2331.216	431.4
2335.078	438.4
2338.937	429.4
2342.792	412.4
2346.643	407.4
2350.492	389.4
2354.336	412.4
2358.178	413.4
2362.015	412.4
2365.85	424.4
2369.681	408.4
2373.508	412.4
2377.333	417.4
2381.153	399.4
2384.971	412.4
2388.785	402.4
2392.595	402.4
2396.402	388.4
2400.206	391.4
2404.007	392.4
2407.804	399.4
2411.597	390.4
2415.388	379.4
2419.174	388.4
2422.958	377.4
2426.738	382.4
2430.515	379.4
2434.289	383.4
2438.059	376.4
2441.825	364.4
2445.589	365.4
2449.349	342.4
2453.106	360.4
2456.859	352.4
2460.61	351.4
2464.356	351.4
2468.1	336.4
2471.84	337.4
2475.577	330.4
2479.311	322.4
2483.041	323.4
2486.768	329.4
2490.492	319.4
2494.213	327.4
2497.93	323.4
2501.644	315.4
2505.355	304.4
2509.062	299.4
2512.766	313.4
2516.467	311.4
2520.165	307.4
2523.859	312.4
2527.551	303.4
2531.239	283.4
2534.923	289.4
2538.605	280.4
2542.283	286.4
2545.958	278.4
2549.63	277.4
2553.299	275.4
2556.964	271.4
2560.626	261.4
2564.285	262.4
2567.941	263.4
2571.594	262.4
2575.243	251.4
2578.89	255.4
2582.533	249.4
2586.173	241.4
2589.809	233.4
2593.443	241.4
2597.073	240.4
2600.701	233.4
2604.325	229.4
2607.946	232.4
2611.564	235.4
2615.178	232.4
2618.79	220.4
2622.398	228.4
2626.004	226.4
2629.606	228.4
2633.205	212.4
2636.801	220.4
2640.394	215.4
2643.983	218.4
2647.57	213.4
2651.153	207.4
2654.734	206.4
2658.311	205.4
2661.885	187.4
2665.456	204.4
2669.025	203.4
2672.589	198.4
2676.151	199.4
2679.71	194.4
2683.266	193.4
2686.819	187.4
2690.368	189.4
2693.915	189.4
2697.458	169.4
2700.999	179.4
2704.536	176.4
2708.071	168.4
2711.602	163.4
2715.13	170.4
2718.656	159.4
2722.178	156.4
2725.697	159.4
2729.214	151.4
2732.727	152.4
2736.237	148.4
2739.744	147.4
2743.249	147.4
2746.75	142.4
2750.248	150.4
2753.743	141.4
2757.236	138.4
2760.725	139.4
2764.211	127.4
2767.695	130.4
2771.175	128.4
2774.652	116.4
2778.127	130.4
2781.598	114.4
2785.067	133.4
2788.532	120.4
2791.995	130.4
2795.455	129.4
2798.911	129.4
2802.365	139.4
2805.816	139.4
2809.264	120.4
2812.709	126.4
2816.151	139.4
2819.59	127.4
2823.026	127.4
2826.46	132.4
2829.89	121.4
2833.318	127.4
2836.742	130.4
2840.164	129.4
2843.583	132.4
2846.999	136.4
2850.412	127.4
2853.822	125.4
2857.229	125.4
2860.634	135.4
2864.035	138.4
2867.434	145.4
2870.83	151.4
2874.223	158.4
2877.613	157.4
2881	168.4
2884.385	162.4
2887.766	149.4
2891.145	152.4
2894.521	163.4
2897.894	173.4
2901.264	173.4
2904.631	167.4
2907.996	169.4
2911.358	157.4
2914.717	172.4
2918.073	179.4
2921.426	191.4
2924.777	191.4
2928.124	198.4
2931.469	192.4
2934.811	197.4
2938.15	198.4
2941.487	215.4
2944.821	213.4
2948.152	203.4
2951.48	218.4
2954.805	213.4
2958.128	213.4
2961.447	195.4
2964.765	210.4
2968.079	207.4
2971.39	207.4
2974.699	216.4
2978.005	207.4
2981.308	209.4
2984.609	209.4
2987.907	209.4
2991.202	213.4
2994.494	219.4
2997.784	220.4
3001.07	232.4
3004.355	234.4
3007.636	229.4
3010.915	225.4
3014.191	228.4
3017.464	241.4
3020.734	239.4
3024.002	241.4
3027.267	249.4
3030.53	261.4
3033.789	264.4
3037.046	262.4
3040.301	262.4
3043.552	279.4
3046.801	285.4
3050.048	300.4
3053.291	300.4
3056.532	325.4
3059.771	327.4
3063.006	323.4
3066.239	342.4
3069.469	351.4
3072.697	366.4
3075.922	382.4
3079.144	399.4
3082.364	394.4
3085.581	403.4
3088.795	408.4
3092.007	422.4
3095.216	432.4
3098.423	436.4
3101.627	457.4
3104.828	463.4
3108.026	469.4
3111.222	479.4
3114.416	480.4
3117.607	494.4
3120.795	508.4
3123.98	512.4
3127.163	532.4
3130.344	542.4
3133.521	546.4
3136.696	573.4
3139.869	573.4
3143.039	571.4
3146.206	600.4
3149.371	600.4
3152.533	613.4
3155.693	623.4
3158.85	626.4
3162.005	636.4
3165.157	626.4
3168.306	623.4
3171.453	634.4
3174.597	635.4
3177.739	639.4
3180.878	652.4
3184.014	656.4
3187.149	650.4
3190.28	649.4
3193.409	660.4
3196.536	662.4
3199.659	670.4
3202.781	673.4
3205.9	660.4
3209.016	663.4
3212.13	664.4
3215.241	650.4
3218.35	662.4
3221.456	643.4
3224.56	646.4
3227.661	622.4
3230.76	627.4
3233.856	618.4
3236.95	601.4
3240.041	606.4
3243.13	592.4
3246.216	587.4
3249.3	573.4
3252.382	567.4
3255.46	579.4
3258.537	558.4
3261.611	554.4
3264.682	543.4
3267.751	558.4
3270.818	547.4
3273.882	539.4
3276.943	546.4
3280.002	543.4
3283.059	527.4
3286.113	529.4
3289.165	522.4
3292.214	513.4
3295.261	499.4
3298.306	499.4
3301.348	495.4
3304.387	492.4
3307.425	487.4
3310.459	501.4
3313.492	465.4
3316.521	471.4
3319.549	447.4
3322.574	465.4
3325.597	450.4
3328.617	469.4
3331.635	454.4
3334.65	461.4
3337.663	439.4
3340.674	447.4
3343.682	447.4
3346.688	439.4
3349.691	440.4
3352.692	442.4
3355.691	446.4
3358.687	427.4
3361.681	438.4
3364.673	424.4
3367.662	429.4
3370.649	419.4
3373.633	405.4
3376.615	389.4
3379.595	393.4
3382.572	395.4
3385.547	379.4
3388.52	378.4
3391.49	371.4
3394.458	365.4
3397.424	357.4
3400.387	350.4
3403.348	355.4
3406.307	339.4
3409.263	344.4
3412.217	340.4
3415.168	323.4
3418.118	327.4
3421.065	318.4
3424.009	321.4
3426.951	309.4
3429.891	307.4
3432.829	293.4
3435.764	289.4
3438.697	283.4
3441.628	268.4
3444.557	268.4
3447.483	263.4
3450.407	245.4
3453.328	238.4
3456.247	220.4
3459.164	224.4
3462.079	205.4
3464.991	193.4
3467.902	189.4
3470.809	196.4
3473.715	171.4
3476.618	174.4
3479.519	166.4
3482.418	159.4
3485.315	149.4
3488.209	139.4
3491.101	137.4
3493.99	142.4
3496.878	124.4
3499.763	121.4
3502.646	110.4
3505.527	106.4
3508.405	103.4
3511.281	88.4
3514.155	78.4
3517.027	82.4
3519.897	66.4
3522.764	70.4
3525.629	56.4
3528.492	49.4
3531.352	47.4
3534.211	33.4
3537.067	32.4
3539.921	33.4
3542.773	32.4
3545.622	10.4
3548.469	4.4
3551.315	17.4
3554.157	-2.6
3556.998	-11.6
3559.837	-5.6
3562.673	-6.6
3565.507	-15.6
3568.339	-13.6
3571.169	-27.6
3573.996	-21.6
3576.822	-30.6
3579.645	-25.6
3582.466	-28.6
3585.285	-34.6
3588.101	-31.6
3590.916	-43.6
3593.728	-49.6
3596.538	-45.6
3599.346	-54.6
3602.152	-51.6
3604.956	-54.6
3607.757	-50.6
3610.556	-58.6
3613.354	-56.6
3616.149	-67.6
3618.942	-72.6
3621.732	-72.6
3624.521	-70.6
3627.307	-70.6
3630.092	-77.6
3632.874	-71.6
3635.654	-79.6
3638.432	-70.6
3641.208	-79.6
3643.982	-84.6
3646.753	-87.6
3649.523	-87.6
3652.29	-87.6
3655.055	-88.6
3657.818	-87.6
3660.579	-89.6
3663.338	-85.6
3666.095	-94.6
3668.849	-96.6
3671.602	-100.6
3674.352	-100.6
3677.101	-103.6
3679.847	-95.6
3682.591	-102.6
3685.333	-99.6
3688.073	-99.6
3690.811	-105.6
3693.547	-109.6
3696.281	-107.6
3699.013	-109.6
3701.742	-108.6
3704.47	-108.6
3707.195	-106.6
3709.919	-109.6
3712.64	-115.6
3715.359	-120.6
3718.076	-113.6
3720.792	-111.6
3723.505	-112.6
3726.216	-111.6
3728.925	-115.6
3731.632	-113.6
3734.336	-120.6
3737.039	-115.6
3739.74	-125.6
3742.439	-124.6
3745.136	-115.6
3747.83	-123.6
3750.523	-120.6
3753.213	-128.6
3755.902	-115.6
3758.589	-128.6
3761.273	-116.6
3763.956	-118.6
3766.636	-121.6
3769.315	-115.6
3771.991	-118.6
3774.665	-123.6
3777.338	-120.6
3780.008	-121.6
3782.677	-120.6
3785.343	-117.6
3788.007	-124.6
3790.67	-124.6
3793.33	-119.6
3795.989	-124.6
3798.645	-120.6
3801.299	-123.6
3803.952	-127.6
3806.602	-121.6
3809.251	-127.6
3811.897	-130.6
3814.542	-121.6
3817.184	-120.6
3819.825	-127.6
3822.463	-123.6
3825.1	-126.6
3827.735	-125.6
3830.367	-123.6
3832.998	-124.6
3835.627	-123.6
3838.253	-123.6
3840.878	-128.6
3843.501	-121.6
3846.122	-126.6
3848.741	-128.6
3851.358	-118.6
3853.973	-123.6
3856.586	-122.6
3859.197	-130.6
3861.806	-123.6
3864.414	-125.6
3867.019	-120.6
3869.622	-124.6
3872.224	-115.6
3874.823	-107.6
3877.421	-101.6
3880.016	-84.6
3882.61	-70.6
3885.202	-73.6
3887.792	-83.6
3890.38	-102.6
3892.966	-116.6
3895.55	-123.6
3898.132	-128.6
3900.713	-129.6
3903.291	-132.6
3905.868	-128.6
3908.442	-123.6
3911.015	-127.6
3913.586	-129.6
3916.155	-134.6
3918.722	-133.6
3921.287	-130.6
3923.85	-124.6
3926.411	-130.6
3928.971	-124.6
3931.528	-126.6
3934.084	-126.6
3936.638	-124.6
3939.19	-136.6
3941.74	-133.6
3944.288	-129.6
3946.834	-129.6
3949.378	-124.6
3951.921	-125.6
3954.462	-131.6
3957	-131.6
3959.537	-128.6
3962.072	-133.6
3964.606	-122.6
3967.137	-128.6
3969.667	-122.6
3972.194	-133.6
3974.72	-129.6
3977.244	-127.6
3979.766	-124.6
3982.286	-129.6
3984.805	-129.6
3987.321	-126.6
3989.836	-117.6
3992.349	-130.6
3994.86	-128.6
3997.369	-131.6
3999.877	-128.6
4002.382	-124.6
4004.886	-124.6
4007.388	-123.6
4009.888	-124.6
4012.386	-123.6
4014.883	-127.6
4017.377	-127.6
4019.87	-128.6
4022.361	-131.6
4024.85	-121.6
4027.338	-123.6
4029.823	-124.6
4032.307	-125.6
4034.789	-127.6
4037.269	-128.6
4039.747	-122.6
4042.224	-125.6
4044.699	-123.6
4047.172	-126.6
4049.643	-123.6
4052.112	-131.6
4054.58	-124.6
4057.046	-127.6
4059.51	-127.6
4061.972	-125.6
4064.432	-123.6
4066.891	-125.6
4069.348	-120.6
4071.803	-124.6
4074.256	-124.6
4076.708	-121.6
4079.158	-125.6
4081.606	-121.6
4084.052	-129.6
4086.497	-127.6
4088.939	-122.6
4091.38	-124.6
4093.819	-120.6
4096.257	-129.6
4098.693	-128.6
4101.127	-135.6
4103.559	-129.6
4105.989	-13.6
4108.418	-11.6
4110.845	-3.6
4113.27	-11.6
4115.694	-14.6
4118.115	-10.6
4120.535	-129.6
4122.954	-130.6
4125.37	-127.6
4127.785	-128.6
4130.198	-129.6
4132.609	-127.6
4135.019	-132.6
4137.427	-130.6
4139.833	-130.6
4142.237	-134.6
