Data from 2018-2-8_conc=5_n=9_RamanShift_03.txt Node
Date: Mon Mar 12 16:18:28 IST 2018
User: aro
Spectrometer: QEPB0276
Trigger mode: 0
Integration Time (sec): 3.000000E1
Scans to average: 1
Electric dark correction enabled: true
Nonlinearity correction enabled: false
Boxcar width: 0
XAxis mode: Raman Shifts
Number of Pixels in Spectrum: 1044
>>>>>Begin Spectral Data<<<<<
160.701	18.1
166.742	47.1
172.777	125.1
178.805	361.1
184.826	974.1
190.841	2080.1
196.849	3473.1
202.85	4532.1
208.845	4952.1
214.833	4962.1
220.815	4894.1
226.789	4905.1
232.758	4898.1
238.719	4899.1
244.674	4884.1
250.623	4819.1
256.565	4778.1
262.5	4666.1
268.429	4656.1
274.351	4615.1
280.267	4583.1
286.176	4555.1
292.079	4550.1
297.975	4533.1
303.865	4517.1
309.748	4510.1
315.625	4507.1
321.495	4490.1
327.359	4484.1
333.217	4485.1
339.068	4485.1
344.912	4496.1
350.751	4495.1
356.583	4514.1
362.408	4510.1
368.227	4545.1
374.04	4578.1
379.847	4573.1
385.647	4576.1
391.44	4606.1
397.228	4606.1
403.009	4637.1
408.784	4662.1
414.553	4704.1
420.315	4699.1
426.071	4719.1
431.821	4702.1
437.565	4714.1
443.302	4689.1
449.033	4676.1
454.758	4656.1
460.477	4617.1
466.189	4581.1
471.896	4578.1
477.596	4533.1
483.29	4531.1
488.978	4520.1
494.66	4489.1
500.335	4433.1
506.005	4346.1
511.668	4182.1
517.325	4010.1
522.977	3914.1
528.622	3832.1
534.261	3768.1
539.894	3723.1
545.521	3674.1
551.141	3679.1
556.756	3643.1
562.365	3606.1
567.968	3602.1
573.565	3562.1
579.155	3553.1
584.74	3532.1
590.319	3524.1
595.892	3540.1
601.459	3511.1
607.02	3501.1
612.575	3466.1
618.124	3443.1
623.667	3402.1
629.204	3369.1
634.735	3334.1
640.261	3332.1
645.781	3281.1
651.294	3305.1
656.802	3294.1
662.304	3280.1
667.8	3220.1
673.29	3270.1
678.775	3274.1
684.254	3251.1
689.726	3227.1
695.193	3237.1
700.655	3201.1
706.11	3196.1
711.56	3162.1
717.004	3137.1
722.442	3139.1
727.874	3106.1
733.301	3118.1
738.722	3097.1
744.137	3109.1
749.547	3065.1
754.951	3075.1
760.349	3088.1
765.741	3092.1
771.128	3097.1
776.509	3129.1
781.885	3160.1
787.254	3178.1
792.618	3162.1
797.977	3145.1
803.33	3117.1
808.677	3098.1
814.019	3093.1
819.355	3047.1
824.686	3016.1
830.011	3016.1
835.33	3025.1
840.644	2974.1
845.952	2972.1
851.255	2992.1
856.552	2949.1
861.844	2937.1
867.13	2923.1
872.41	2908.1
877.686	2884.1
882.955	2862.1
888.219	2851.1
893.478	2819.1
898.731	2770.1
903.979	2741.1
909.221	2728.1
914.458	2711.1
919.69	2709.1
924.916	2692.1
930.136	2726.1
935.351	2710.1
940.561	2713.1
945.766	2723.1
950.965	2700.1
956.158	2682.1
961.347	2655.1
966.529	2614.1
971.707	2590.1
976.879	2552.1
982.046	2527.1
987.208	2495.1
992.364	2517.1
997.515	2517.1
1002.66	2542.1
1007.801	2567.1
1012.936	2597.1
1018.066	2598.1
1023.19	2603.1
1028.309	2598.1
1033.423	2601.1
1038.532	2584.1
1043.636	2599.1
1048.734	2550.1
1053.827	2494.1
1058.915	2482.1
1063.998	2467.1
1069.075	2430.1
1074.147	2466.1
1079.214	2447.1
1084.276	2455.1
1089.333	2487.1
1094.385	2503.1
1099.431	2482.1
1104.472	2470.1
1109.509	2476.1
1114.54	2432.1
1119.565	2396.1
1124.586	2369.1
1129.602	2331.1
1134.613	2328.1
1139.618	2313.1
1144.619	2317.1
1149.614	2287.1
1154.604	2312.1
1159.589	2323.1
1164.57	2329.1
1169.545	2353.1
1174.515	2332.1
1179.48	2320.1
1184.44	2284.1
1189.395	2289.1
1194.345	2271.1
1199.29	2255.1
1204.23	2253.1
1209.165	2255.1
1214.095	2269.1
1219.021	2277.1
1223.941	2273.1
1228.856	2292.1
1233.766	2322.1
1238.672	2301.1
1243.572	2320.1
1248.467	2288.1
1253.358	2266.1
1258.244	2232.1
1263.124	2193.1
1268	2148.1
1272.871	2125.1
1277.737	2118.1
1282.599	2110.1
1287.455	2097.1
1292.306	2100.1
1297.153	2113.1
1301.995	2121.1
1306.832	2147.1
1311.664	2157.1
1316.491	2157.1
1321.314	2149.1
1326.132	2163.1
1330.945	2113.1
1335.753	2085.1
1340.556	2046.1
1345.354	2017.1
1350.148	1997.1
1354.937	1968.1
1359.722	1916.1
1364.501	1916.1
1369.276	1865.1
1374.046	1830.1
1378.811	1840.1
1383.572	1803.1
1388.327	1802.1
1393.079	1791.1
1397.825	1792.1
1402.567	1806.1
1407.304	1807.1
1412.036	1800.1
1416.764	1804.1
1421.487	1834.1
1426.205	1797.1
1430.919	1844.1
1435.628	1827.1
1440.333	1851.1
1445.032	1865.1
1449.727	1886.1
1454.418	1894.1
1459.104	1882.1
1463.785	1860.1
1468.462	1814.1
1473.134	1803.1
1477.802	1753.1
1482.465	1728.1
1487.123	1705.1
1491.777	1659.1
1496.426	1653.1
1501.071	1659.1
1505.711	1641.1
1510.347	1632.1
1514.978	1611.1
1519.604	1632.1
1524.226	1623.1
1528.844	1600.1
1533.457	1590.1
1538.065	1585.1
1542.669	1581.1
1547.269	1574.1
1551.864	1584.1
1556.454	1595.1
1561.041	1604.1
1565.622	1634.1
1570.199	1626.1
1574.772	1640.1
1579.34	1665.1
1583.904	1676.1
1588.464	1692.1
1593.019	1708.1
1597.569	1712.1
1602.115	1708.1
1606.657	1692.1
1611.195	1691.1
1615.728	1687.1
1620.256	1682.1
1624.78	1677.1
1629.3	1679.1
1633.816	1678.1
1638.327	1706.1
1642.834	1711.1
1647.336	1722.1
1651.834	1718.1
1656.328	1692.1
1660.817	1703.1
1665.302	1702.1
1669.783	1664.1
1674.259	1618.1
1678.732	1590.1
1683.199	1557.1
1687.663	1506.1
1692.122	1442.1
1696.577	1393.1
1701.028	1338.1
1705.474	1294.1
1709.917	1256.1
1714.355	1236.1
1718.788	1230.1
1723.218	1220.1
1727.643	1220.1
1732.064	1228.1
1736.481	1219.1
1740.893	1174.1
1745.301	1179.1
1749.705	1142.1
1754.105	1108.1
1758.501	1100.1
1762.893	1072.1
1767.28	1062.1
1771.663	1055.1
1776.042	1051.1
1780.417	1036.1
1784.787	1014.1
1789.154	1011.1
1793.516	1009.1
1797.874	996.1
1802.228	990.1
1806.578	962.1
1810.924	960.1
1815.266	955.1
1819.603	943.1
1823.937	951.1
1828.266	951.1
1832.591	937.1
1836.913	948.1
1841.23	952.1
1845.543	945.1
1849.852	946.1
1854.156	951.1
1858.457	949.1
1862.754	946.1
1867.047	944.1
1871.335	968.1
1875.62	961.1
1879.9	956.1
1884.177	950.1
1888.449	943.1
1892.718	920.1
1896.982	896.1
1901.243	899.1
1905.499	892.1
1909.752	882.1
1914	879.1
1918.245	863.1
1922.485	838.1
1926.722	853.1
1930.954	833.1
1935.183	829.1
1939.408	825.1
1943.628	830.1
1947.845	822.1
1952.058	814.1
1956.267	801.1
1960.472	793.1
1964.673	782.1
1968.87	782.1
1973.063	770.1
1977.252	766.1
1981.438	763.1
1985.619	767.1
1989.797	759.1
1993.971	770.1
1998.14	778.1
2002.306	761.1
2006.469	777.1
2010.627	772.1
2014.781	768.1
2018.932	770.1
2023.078	777.1
2027.221	764.1
2031.36	763.1
2035.495	730.1
2039.627	745.1
2043.754	731.1
2047.878	717.1
2051.998	707.1
2056.114	726.1
2060.226	712.1
2064.334	705.1
2068.439	722.1
2072.54	705.1
2076.637	700.1
2080.73	700.1
2084.82	694.1
2088.906	692.1
2092.988	693.1
2097.066	681.1
2101.14	669.1
2105.211	665.1
2109.278	662.1
2113.342	649.1
2117.401	651.1
2121.457	638.1
2125.509	633.1
2129.558	624.1
2133.602	627.1
2137.643	624.1
2141.681	629.1
2145.714	624.1
2149.744	629.1
2153.77	625.1
2157.793	623.1
2161.812	613.1
2165.827	609.1
2169.838	601.1
2173.846	589.1
2177.851	582.1
2181.851	575.1
2185.848	572.1
2189.841	570.1
2193.831	569.1
2197.817	552.1
2201.799	552.1
2205.778	547.1
2209.753	547.1
2213.725	545.1
2217.693	554.1
2221.657	556.1
2225.618	548.1
2229.575	543.1
2233.529	528.1
2237.479	538.1
2241.425	531.1
2245.368	531.1
2249.307	513.1
2253.243	497.1
2257.175	491.1
2261.104	493.1
2265.029	477.1
2268.95	481.1
2272.868	471.1
2276.783	465.1
2280.694	452.1
2284.601	446.1
2288.505	447.1
2292.405	439.1
2296.302	445.1
2300.195	436.1
2304.085	432.1
2307.971	408.1
2311.854	406.1
2315.734	400.1
2319.609	403.1
2323.482	407.1
2327.351	403.1
2331.216	422.1
2335.078	438.1
2338.937	402.1
2342.792	387.1
2346.643	382.1
2350.492	381.1
2354.336	389.1
2358.178	382.1
2362.015	398.1
2365.85	396.1
2369.681	390.1
2373.508	389.1
2377.333	379.1
2381.153	390.1
2384.971	397.1
2388.785	396.1
2392.595	382.1
2396.402	383.1
2400.206	382.1
2404.007	371.1
2407.804	366.1
2411.597	364.1
2415.388	370.1
2419.174	361.1
2422.958	357.1
2426.738	366.1
2430.515	357.1
2434.289	363.1
2438.059	352.1
2441.825	349.1
2445.589	343.1
2449.349	338.1
2453.106	327.1
2456.859	328.1
2460.61	339.1
2464.356	324.1
2468.1	323.1
2471.84	319.1
2475.577	320.1
2479.311	306.1
2483.041	308.1
2486.768	305.1
2490.492	306.1
2494.213	313.1
2497.93	305.1
2501.644	297.1
2505.355	294.1
2509.062	304.1
2512.766	297.1
2516.467	293.1
2520.165	293.1
2523.859	279.1
2527.551	280.1
2531.239	261.1
2534.923	278.1
2538.605	267.1
2542.283	264.1
2545.958	261.1
2549.63	253.1
2553.299	256.1
2556.964	271.1
2560.626	263.1
2564.285	255.1
2567.941	242.1
2571.594	243.1
2575.243	238.1
2578.89	239.1
2582.533	226.1
2586.173	231.1
2589.809	220.1
2593.443	225.1
2597.073	223.1
2600.701	216.1
2604.325	211.1
2607.946	218.1
2611.564	216.1
2615.178	210.1
2618.79	219.1
2622.398	223.1
2626.004	211.1
2629.606	196.1
2633.205	204.1
2636.801	212.1
2640.394	204.1
2643.983	195.1
2647.57	196.1
2651.153	189.1
2654.734	190.1
2658.311	189.1
2661.885	186.1
2665.456	192.1
2669.025	188.1
2672.589	181.1
2676.151	176.1
2679.71	177.1
2683.266	172.1
2686.819	171.1
2690.368	166.1
2693.915	167.1
2697.458	167.1
2700.999	161.1
2704.536	159.1
2708.071	149.1
2711.602	153.1
2715.13	148.1
2718.656	152.1
2722.178	148.1
2725.697	137.1
2729.214	132.1
2732.727	141.1
2736.237	139.1
2739.744	141.1
2743.249	131.1
2746.75	132.1
2750.248	131.1
2753.743	127.1
2757.236	120.1
2760.725	124.1
2764.211	116.1
2767.695	114.1
2771.175	106.1
2774.652	102.1
2778.127	108.1
2781.598	108.1
2785.067	111.1
2788.532	112.1
2791.995	116.1
2795.455	112.1
2798.911	117.1
2802.365	116.1
2805.816	124.1
2809.264	120.1
2812.709	122.1
2816.151	116.1
2819.59	117.1
2823.026	118.1
2826.46	110.1
2829.89	107.1
2833.318	110.1
2836.742	118.1
2840.164	114.1
2843.583	112.1
2846.999	119.1
2850.412	121.1
2853.822	115.1
2857.229	123.1
2860.634	125.1
2864.035	128.1
2867.434	128.1
2870.83	139.1
2874.223	137.1
2877.613	145.1
2881	156.1
2884.385	155.1
2887.766	145.1
2891.145	146.1
2894.521	155.1
2897.894	152.1
2901.264	149.1
2904.631	154.1
2907.996	149.1
2911.358	152.1
2914.717	155.1
2918.073	161.1
2921.426	164.1
2924.777	168.1
2928.124	181.1
2931.469	180.1
2934.811	186.1
2938.15	187.1
2941.487	197.1
2944.821	201.1
2948.152	185.1
2951.48	195.1
2954.805	201.1
2958.128	187.1
2961.447	185.1
2964.765	191.1
2968.079	179.1
2971.39	183.1
2974.699	202.1
2978.005	192.1
2981.308	185.1
2984.609	191.1
2987.907	192.1
2991.202	194.1
2994.494	195.1
2997.784	196.1
3001.07	207.1
3004.355	204.1
3007.636	200.1
3010.915	204.1
3014.191	211.1
3017.464	219.1
3020.734	218.1
3024.002	213.1
3027.267	236.1
3030.53	225.1
3033.789	236.1
3037.046	237.1
3040.301	238.1
3043.552	258.1
3046.801	266.1
3050.048	273.1
3053.291	279.1
3056.532	298.1
3059.771	296.1
3063.006	307.1
3066.239	324.1
3069.469	317.1
3072.697	331.1
3075.922	348.1
3079.144	364.1
3082.364	361.1
3085.581	373.1
3088.795	379.1
3092.007	383.1
3095.216	393.1
3098.423	400.1
3101.627	412.1
3104.828	421.1
3108.026	426.1
3111.222	436.1
3114.416	440.1
3117.607	455.1
3120.795	471.1
3123.98	482.1
3127.163	490.1
3130.344	498.1
3133.521	510.1
3136.696	525.1
3139.869	530.1
3143.039	537.1
3146.206	533.1
3149.371	561.1
3152.533	558.1
3155.693	569.1
3158.85	583.1
3162.005	582.1
3165.157	576.1
3168.306	566.1
3171.453	566.1
3174.597	575.1
3177.739	593.1
3180.878	588.1
3184.014	608.1
3187.149	586.1
3190.28	598.1
3193.409	590.1
3196.536	598.1
3199.659	607.1
3202.781	604.1
3205.9	609.1
3209.016	613.1
3212.13	610.1
3215.241	594.1
3218.35	600.1
3221.456	587.1
3224.56	578.1
3227.661	582.1
3230.76	564.1
3233.856	571.1
3236.95	547.1
3240.041	543.1
3243.13	535.1
3246.216	538.1
3249.3	523.1
3252.382	518.1
3255.46	516.1
3258.537	516.1
3261.611	506.1
3264.682	489.1
3267.751	495.1
3270.818	485.1
3273.882	491.1
3276.943	487.1
3280.002	477.1
3283.059	478.1
3286.113	479.1
3289.165	472.1
3292.214	472.1
3295.261	457.1
3298.306	449.1
3301.348	449.1
3304.387	434.1
3307.425	439.1
3310.459	433.1
3313.492	430.1
3316.521	424.1
3319.549	407.1
3322.574	410.1
3325.597	419.1
3328.617	422.1
3331.635	411.1
3334.65	418.1
3337.663	401.1
3340.674	405.1
3343.682	390.1
3346.688	392.1
3349.691	404.1
3352.692	387.1
3355.691	396.1
3358.687	387.1
3361.681	393.1
3364.673	390.1
3367.662	380.1
3370.649	372.1
3373.633	372.1
3376.615	361.1
3379.595	357.1
3382.572	350.1
3385.547	349.1
3388.52	341.1
3391.49	335.1
3394.458	325.1
3397.424	323.1
3400.387	324.1
3403.348	308.1
3406.307	311.1
3409.263	302.1
3412.217	295.1
3415.168	292.1
3418.118	304.1
3421.065	288.1
3424.009	285.1
3426.951	283.1
3429.891	270.1
3432.829	260.1
3435.764	259.1
3438.697	250.1
3441.628	245.1
3444.557	241.1
3447.483	226.1
3450.407	214.1
3453.328	204.1
3456.247	198.1
3459.164	180.1
3462.079	182.1
3464.991	174.1
3467.902	167.1
3470.809	169.1
3473.715	141.1
3476.618	144.1
3479.519	138.1
3482.418	131.1
3485.315	119.1
3488.209	116.1
3491.101	116.1
3493.99	112.1
3496.878	112.1
3499.763	98.1
3502.646	90.1
3505.527	77.1
3508.405	82.1
3511.281	76.1
3514.155	70.1
3517.027	64.1
3519.897	56.1
3522.764	44.1
3525.629	34.1
3528.492	36.1
3531.352	26.1
3534.211	21.1
3537.067	10.1
3539.921	17.1
3542.773	16.1
3545.622	5.1
3548.469	-3.9
3551.315	-9.9
3554.157	-6.9
3556.998	-17.9
3559.837	-18.9
3562.673	-16.9
3565.507	-17.9
3568.339	-26.9
3571.169	-35.9
3573.996	-37.9
3576.822	-36.9
3579.645	-31.9
3582.466	-37.9
3585.285	-48.9
3588.101	-38.9
3590.916	-51.9
3593.728	-60.9
3596.538	-55.9
3599.346	-63.9
3602.152	-61.9
3604.956	-62.9
3607.757	-57.9
3610.556	-67.9
3613.354	-64.9
3616.149	-74.9
3618.942	-76.9
3621.732	-83.9
3624.521	-76.9
3627.307	-80.9
3630.092	-76.9
3632.874	-75.9
3635.654	-88.9
3638.432	-89.9
3641.208	-85.9
3643.982	-91.9
3646.753	-92.9
3649.523	-90.9
3652.29	-87.9
3655.055	-90.9
3657.818	-92.9
3660.579	-102.9
3663.338	-99.9
3666.095	-100.9
3668.849	-103.9
3671.602	-101.9
3674.352	-103.9
3677.101	-107.9
3679.847	-102.9
3682.591	-112.9
3685.333	-108.9
3688.073	-108.9
3690.811	-106.9
3693.547	-113.9
3696.281	-109.9
3699.013	-113.9
3701.742	-119.9
3704.47	-119.9
3707.195	-113.9
3709.919	-116.9
3712.64	-114.9
3715.359	-119.9
3718.076	-117.9
3720.792	-117.9
3723.505	-121.9
3726.216	-118.9
3728.925	-125.9
3731.632	-116.9
3734.336	-131.9
3737.039	-120.9
3739.74	-124.9
3742.439	-132.9
3745.136	-119.9
3747.83	-128.9
3750.523	-126.9
3753.213	-134.9
3755.902	-121.9
3758.589	-125.9
3761.273	-120.9
3763.956	-124.9
3766.636	-129.9
3769.315	-125.9
3771.991	-120.9
3774.665	-126.9
3777.338	-117.9
3780.008	-128.9
3782.677	-127.9
3785.343	-124.9
3788.007	-131.9
3790.67	-126.9
3793.33	-119.9
3795.989	-119.9
3798.645	-117.9
3801.299	-125.9
3803.952	-130.9
3806.602	-127.9
3809.251	-136.9
3811.897	-131.9
3814.542	-131.9
3817.184	-122.9
3819.825	-126.9
3822.463	-128.9
3825.1	-130.9
3827.735	-133.9
3830.367	-132.9
3832.998	-132.9
3835.627	-132.9
3838.253	-126.9
3840.878	-126.9
3843.501	-129.9
3846.122	-132.9
3848.741	-136.9
3851.358	-125.9
3853.973	-131.9
3856.586	-129.9
3859.197	-130.9
3861.806	-129.9
3864.414	-127.9
3867.019	-125.9
3869.622	-125.9
3872.224	-117.9
3874.823	-109.9
3877.421	-98.9
3880.016	-78.9
3882.61	-57.9
3885.202	-54.9
3887.792	-67.9
3890.38	-94.9
3892.966	-118.9
3895.55	-121.9
3898.132	-128.9
3900.713	-132.9
3903.291	-136.9
3905.868	-133.9
3908.442	-127.9
3911.015	-134.9
3913.586	-134.9
3916.155	-131.9
3918.722	-128.9
3921.287	-132.9
3923.85	-133.9
3926.411	-137.9
3928.971	-128.9
3931.528	-131.9
3934.084	-129.9
3936.638	-133.9
3939.19	-135.9
3941.74	-137.9
3944.288	-135.9
3946.834	-133.9
3949.378	-131.9
3951.921	-133.9
3954.462	-135.9
3957	-128.9
3959.537	-132.9
3962.072	-136.9
3964.606	-125.9
3967.137	-126.9
3969.667	-129.9
3972.194	-133.9
3974.72	-128.9
3977.244	-132.9
3979.766	-132.9
3982.286	-130.9
3984.805	-133.9
3987.321	-129.9
3989.836	-123.9
3992.349	-130.9
3994.86	-128.9
3997.369	-133.9
3999.877	-132.9
4002.382	-121.9
4004.886	-138.9
4007.388	-126.9
4009.888	-131.9
4012.386	-130.9
4014.883	-133.9
4017.377	-133.9
4019.87	-130.9
4022.361	-130.9
4024.85	-131.9
4027.338	-123.9
4029.823	-130.9
4032.307	-122.9
4034.789	-134.9
4037.269	-130.9
4039.747	-128.9
4042.224	-128.9
4044.699	-129.9
4047.172	-128.9
4049.643	-120.9
4052.112	-126.9
4054.58	-126.9
4057.046	-129.9
4059.51	-132.9
4061.972	-126.9
4064.432	-128.9
4066.891	-126.9
4069.348	-123.9
4071.803	-133.9
4074.256	-130.9
4076.708	-132.9
4079.158	-130.9
4081.606	-122.9
4084.052	-132.9
4086.497	-129.9
4088.939	-118.9
4091.38	-127.9
4093.819	-129.9
4096.257	-140.9
4098.693	-132.9
4101.127	-134.9
4103.559	-132.9
4105.989	10.1
4108.418	3.1
4110.845	8.1
4113.27	0.1
4115.694	-8.9
4118.115	-0.9
4120.535	-129.9
4122.954	-130.9
4125.37	-129.9
4127.785	-134.9
4130.198	-126.9
4132.609	-126.9
4135.019	-135.9
4137.427	-138.9
4139.833	-136.9
4142.237	-139.9
