Data from 2018-2-8_conc=5_n=2_RamanShift_04.txt Node
Date: Mon Mar 12 15:55:28 IST 2018
User: aro
Spectrometer: QEPB0276
Trigger mode: 0
Integration Time (sec): 3.000000E1
Scans to average: 1
Electric dark correction enabled: true
Nonlinearity correction enabled: false
Boxcar width: 0
XAxis mode: Raman Shifts
Number of Pixels in Spectrum: 1044
>>>>>Begin Spectral Data<<<<<
160.701	28.8
166.742	48.8
172.777	112.8
178.805	334.8
184.826	898.8
190.841	1937.8
196.849	3206.8
202.85	4193.8
208.845	4578.8
214.833	4537.8
220.815	4500.8
226.789	4500.8
232.758	4542.8
238.719	4512.8
244.674	4480.8
250.623	4436.8
256.565	4388.8
262.5	4311.8
268.429	4282.8
274.351	4239.8
280.267	4159.8
286.176	4187.8
292.079	4177.8
297.975	4175.8
303.865	4142.8
309.748	4153.8
315.625	4128.8
321.495	4120.8
327.359	4111.8
333.217	4130.8
339.068	4118.8
344.912	4144.8
350.751	4150.8
356.583	4170.8
362.408	4139.8
368.227	4182.8
374.04	4175.8
379.847	4205.8
385.647	4228.8
391.44	4222.8
397.228	4276.8
403.009	4308.8
408.784	4293.8
414.553	4283.8
420.315	4324.8
426.071	4327.8
431.821	4314.8
437.565	4306.8
443.302	4294.8
449.033	4310.8
454.758	4273.8
460.477	4264.8
466.189	4243.8
471.896	4221.8
477.596	4185.8
483.29	4145.8
488.978	4154.8
494.66	4156.8
500.335	4064.8
506.005	3968.8
511.668	3835.8
517.325	3705.8
522.977	3610.8
528.622	3524.8
534.261	3487.8
539.894	3414.8
545.521	3380.8
551.141	3358.8
556.756	3351.8
562.365	3339.8
567.968	3312.8
573.565	3288.8
579.155	3247.8
584.74	3240.8
590.319	3215.8
595.892	3220.8
601.459	3227.8
607.02	3206.8
612.575	3168.8
618.124	3142.8
623.667	3115.8
629.204	3095.8
634.735	3076.8
640.261	3056.8
645.781	3034.8
651.294	3028.8
656.802	3029.8
662.304	3011.8
667.8	3000.8
673.29	2992.8
678.775	2978.8
684.254	2963.8
689.726	2962.8
695.193	2950.8
700.655	2931.8
706.11	2907.8
711.56	2889.8
717.004	2873.8
722.442	2881.8
727.874	2845.8
733.301	2839.8
738.722	2827.8
744.137	2813.8
749.547	2814.8
754.951	2813.8
760.349	2832.8
765.741	2831.8
771.128	2848.8
776.509	2843.8
781.885	2870.8
787.254	2894.8
792.618	2882.8
797.977	2889.8
803.33	2848.8
808.677	2838.8
814.019	2828.8
819.355	2803.8
824.686	2758.8
830.011	2775.8
835.33	2748.8
840.644	2749.8
845.952	2725.8
851.255	2744.8
856.552	2708.8
861.844	2697.8
867.13	2687.8
872.41	2679.8
877.686	2640.8
882.955	2635.8
888.219	2610.8
893.478	2562.8
898.731	2555.8
903.979	2512.8
909.221	2483.8
914.458	2460.8
919.69	2458.8
924.916	2492.8
930.136	2491.8
935.351	2478.8
940.561	2497.8
945.766	2473.8
950.965	2447.8
956.158	2453.8
961.347	2437.8
966.529	2416.8
971.707	2355.8
976.879	2337.8
982.046	2330.8
987.208	2308.8
992.364	2306.8
997.515	2312.8
1002.66	2327.8
1007.801	2340.8
1012.936	2373.8
1018.066	2362.8
1023.19	2385.8
1028.309	2390.8
1033.423	2377.8
1038.532	2358.8
1043.636	2355.8
1048.734	2323.8
1053.827	2293.8
1058.915	2297.8
1063.998	2254.8
1069.075	2256.8
1074.147	2243.8
1079.214	2251.8
1084.276	2258.8
1089.333	2291.8
1094.385	2277.8
1099.431	2277.8
1104.472	2260.8
1109.509	2245.8
1114.54	2238.8
1119.565	2192.8
1124.586	2183.8
1129.602	2135.8
1134.613	2131.8
1139.618	2105.8
1144.619	2108.8
1149.614	2117.8
1154.604	2125.8
1159.589	2136.8
1164.57	2122.8
1169.545	2128.8
1174.515	2136.8
1179.48	2117.8
1184.44	2100.8
1189.395	2079.8
1194.345	2088.8
1199.29	2059.8
1204.23	2065.8
1209.165	2046.8
1214.095	2077.8
1219.021	2074.8
1223.941	2091.8
1228.856	2121.8
1233.766	2117.8
1238.672	2118.8
1243.572	2092.8
1248.467	2095.8
1253.358	2060.8
1258.244	2035.8
1263.124	2003.8
1268	1974.8
1272.871	1949.8
1277.737	1934.8
1282.599	1928.8
1287.455	1922.8
1292.306	1933.8
1297.153	1940.8
1301.995	1933.8
1306.832	1974.8
1311.664	1961.8
1316.491	1975.8
1321.314	1978.8
1326.132	1967.8
1330.945	1911.8
1335.753	1904.8
1340.556	1886.8
1345.354	1850.8
1350.148	1820.8
1354.937	1804.8
1359.722	1767.8
1364.501	1754.8
1369.276	1704.8
1374.046	1676.8
1378.811	1664.8
1383.572	1647.8
1388.327	1640.8
1393.079	1654.8
1397.825	1667.8
1402.567	1658.8
1407.304	1657.8
1412.036	1665.8
1416.764	1658.8
1421.487	1674.8
1426.205	1662.8
1430.919	1669.8
1435.628	1670.8
1440.333	1694.8
1445.032	1694.8
1449.727	1724.8
1454.418	1737.8
1459.104	1721.8
1463.785	1690.8
1468.462	1696.8
1473.134	1650.8
1477.802	1620.8
1482.465	1576.8
1487.123	1532.8
1491.777	1534.8
1496.426	1524.8
1501.071	1503.8
1505.711	1487.8
1510.347	1498.8
1514.978	1511.8
1519.604	1482.8
1524.226	1479.8
1528.844	1476.8
1533.457	1463.8
1538.065	1446.8
1542.669	1436.8
1547.269	1448.8
1551.864	1454.8
1556.454	1461.8
1561.041	1495.8
1565.622	1501.8
1570.199	1495.8
1574.772	1501.8
1579.34	1527.8
1583.904	1539.8
1588.464	1559.8
1593.019	1544.8
1597.569	1555.8
1602.115	1549.8
1606.657	1536.8
1611.195	1541.8
1615.728	1536.8
1620.256	1548.8
1624.78	1515.8
1629.3	1529.8
1633.816	1553.8
1638.327	1541.8
1642.834	1559.8
1647.336	1564.8
1651.834	1554.8
1656.328	1566.8
1660.817	1548.8
1665.302	1532.8
1669.783	1501.8
1674.259	1486.8
1678.732	1461.8
1683.199	1418.8
1687.663	1366.8
1692.122	1342.8
1696.577	1279.8
1701.028	1239.8
1705.474	1185.8
1709.917	1142.8
1714.355	1133.8
1718.788	1116.8
1723.218	1120.8
1727.643	1120.8
1732.064	1106.8
1736.481	1103.8
1740.893	1076.8
1745.301	1056.8
1749.705	1062.8
1754.105	1017.8
1758.501	995.8
1762.893	996.8
1767.28	986.8
1771.663	964.8
1776.042	962.8
1780.417	956.8
1784.787	943.8
1789.154	943.8
1793.516	941.8
1797.874	905.8
1802.228	900.8
1806.578	893.8
1810.924	877.8
1815.266	860.8
1819.603	881.8
1823.937	869.8
1828.266	863.8
1832.591	872.8
1836.913	865.8
1841.23	868.8
1845.543	870.8
1849.852	860.8
1854.156	866.8
1858.457	870.8
1862.754	854.8
1867.047	852.8
1871.335	868.8
1875.62	858.8
1879.9	876.8
1884.177	848.8
1888.449	841.8
1892.718	845.8
1896.982	832.8
1901.243	817.8
1905.499	814.8
1909.752	795.8
1914	798.8
1918.245	781.8
1922.485	788.8
1926.722	770.8
1930.954	785.8
1935.183	761.8
1939.408	749.8
1943.628	748.8
1947.845	750.8
1952.058	740.8
1956.267	735.8
1960.472	735.8
1964.673	721.8
1968.87	705.8
1973.063	704.8
1977.252	699.8
1981.438	711.8
1985.619	705.8
1989.797	707.8
1993.971	696.8
1998.14	712.8
2002.306	702.8
2006.469	703.8
2010.627	703.8
2014.781	720.8
2018.932	712.8
2023.078	708.8
2027.221	702.8
2031.36	690.8
2035.495	680.8
2039.627	676.8
2043.754	667.8
2047.878	660.8
2051.998	654.8
2056.114	654.8
2060.226	655.8
2064.334	653.8
2068.439	655.8
2072.54	645.8
2076.637	646.8
2080.73	628.8
2084.82	645.8
2088.906	633.8
2092.988	625.8
2097.066	626.8
2101.14	607.8
2105.211	612.8
2109.278	600.8
2113.342	589.8
2117.401	580.8
2121.457	583.8
2125.509	569.8
2129.558	573.8
2133.602	561.8
2137.643	575.8
2141.681	587.8
2145.714	573.8
2149.744	563.8
2153.77	562.8
2157.793	568.8
2161.812	568.8
2165.827	548.8
2169.838	548.8
2173.846	536.8
2177.851	525.8
2181.851	529.8
2185.848	519.8
2189.841	501.8
2193.831	514.8
2197.817	502.8
2201.799	504.8
2205.778	504.8
2209.753	496.8
2213.725	492.8
2217.693	497.8
2221.657	500.8
2225.618	498.8
2229.575	503.8
2233.529	499.8
2237.479	487.8
2241.425	474.8
2245.368	477.8
2249.307	467.8
2253.243	455.8
2257.175	453.8
2261.104	449.8
2265.029	443.8
2268.95	437.8
2272.868	428.8
2276.783	423.8
2280.694	424.8
2284.601	415.8
2288.505	410.8
2292.405	411.8
2296.302	408.8
2300.195	406.8
2304.085	393.8
2307.971	369.8
2311.854	379.8
2315.734	370.8
2319.609	366.8
2323.482	367.8
2327.351	369.8
2331.216	390.8
2335.078	393.8
2338.937	373.8
2342.792	352.8
2346.643	359.8
2350.492	353.8
2354.336	354.8
2358.178	359.8
2362.015	353.8
2365.85	359.8
2369.681	353.8
2373.508	371.8
2377.333	355.8
2381.153	349.8
2384.971	355.8
2388.785	361.8
2392.595	345.8
2396.402	333.8
2400.206	342.8
2404.007	348.8
2407.804	346.8
2411.597	330.8
2415.388	337.8
2419.174	328.8
2422.958	324.8
2426.738	337.8
2430.515	326.8
2434.289	339.8
2438.059	325.8
2441.825	318.8
2445.589	318.8
2449.349	301.8
2453.106	309.8
2456.859	311.8
2460.61	306.8
2464.356	292.8
2468.1	304.8
2471.84	298.8
2475.577	296.8
2479.311	279.8
2483.041	278.8
2486.768	283.8
2490.492	283.8
2494.213	289.8
2497.93	287.8
2501.644	276.8
2505.355	270.8
2509.062	262.8
2512.766	276.8
2516.467	262.8
2520.165	273.8
2523.859	260.8
2527.551	264.8
2531.239	246.8
2534.923	243.8
2538.605	256.8
2542.283	241.8
2545.958	247.8
2549.63	245.8
2553.299	238.8
2556.964	245.8
2560.626	222.8
2564.285	228.8
2567.941	224.8
2571.594	235.8
2575.243	225.8
2578.89	220.8
2582.533	209.8
2586.173	205.8
2589.809	198.8
2593.443	206.8
2597.073	209.8
2600.701	203.8
2604.325	190.8
2607.946	196.8
2611.564	199.8
2615.178	195.8
2618.79	190.8
2622.398	198.8
2626.004	192.8
2629.606	201.8
2633.205	184.8
2636.801	180.8
2640.394	189.8
2643.983	180.8
2647.57	184.8
2651.153	179.8
2654.734	178.8
2658.311	171.8
2661.885	166.8
2665.456	166.8
2669.025	169.8
2672.589	172.8
2676.151	166.8
2679.71	159.8
2683.266	163.8
2686.819	156.8
2690.368	158.8
2693.915	148.8
2697.458	146.8
2700.999	140.8
2704.536	150.8
2708.071	139.8
2711.602	137.8
2715.13	139.8
2718.656	135.8
2722.178	130.8
2725.697	135.8
2729.214	123.8
2732.727	130.8
2736.237	128.8
2739.744	127.8
2743.249	119.8
2746.75	115.8
2750.248	117.8
2753.743	120.8
2757.236	115.8
2760.725	113.8
2764.211	114.8
2767.695	106.8
2771.175	102.8
2774.652	96.8
2778.127	100.8
2781.598	100.8
2785.067	111.8
2788.532	100.8
2791.995	106.8
2795.455	109.8
2798.911	98.8
2802.365	104.8
2805.816	106.8
2809.264	103.8
2812.709	113.8
2816.151	106.8
2819.59	106.8
2823.026	107.8
2826.46	100.8
2829.89	106.8
2833.318	107.8
2836.742	106.8
2840.164	109.8
2843.583	116.8
2846.999	116.8
2850.412	109.8
2853.822	117.8
2857.229	108.8
2860.634	112.8
2864.035	113.8
2867.434	117.8
2870.83	126.8
2874.223	141.8
2877.613	136.8
2881	152.8
2884.385	143.8
2887.766	132.8
2891.145	131.8
2894.521	136.8
2897.894	151.8
2901.264	142.8
2904.631	133.8
2907.996	136.8
2911.358	141.8
2914.717	148.8
2918.073	145.8
2921.426	154.8
2924.777	156.8
2928.124	161.8
2931.469	157.8
2934.811	162.8
2938.15	170.8
2941.487	173.8
2944.821	167.8
2948.152	172.8
2951.48	181.8
2954.805	181.8
2958.128	168.8
2961.447	160.8
2964.765	171.8
2968.079	168.8
2971.39	177.8
2974.699	167.8
2978.005	172.8
2981.308	176.8
2984.609	171.8
2987.907	171.8
2991.202	176.8
2994.494	172.8
2997.784	176.8
3001.07	181.8
3004.355	197.8
3007.636	199.8
3010.915	196.8
3014.191	199.8
3017.464	203.8
3020.734	196.8
3024.002	196.8
3027.267	213.8
3030.53	208.8
3033.789	219.8
3037.046	222.8
3040.301	212.8
3043.552	223.8
3046.801	237.8
3050.048	244.8
3053.291	254.8
3056.532	266.8
3059.771	271.8
3063.006	279.8
3066.239	285.8
3069.469	304.8
3072.697	294.8
3075.922	321.8
3079.144	332.8
3082.364	338.8
3085.581	346.8
3088.795	344.8
3092.007	353.8
3095.216	359.8
3098.423	371.8
3101.627	382.8
3104.828	376.8
3108.026	392.8
3111.222	403.8
3114.416	409.8
3117.607	420.8
3120.795	427.8
3123.98	434.8
3127.163	457.8
3130.344	464.8
3133.521	456.8
3136.696	488.8
3139.869	493.8
3143.039	499.8
3146.206	492.8
3149.371	509.8
3152.533	513.8
3155.693	527.8
3158.85	533.8
3162.005	525.8
3165.157	529.8
3168.306	523.8
3171.453	535.8
3174.597	536.8
3177.739	545.8
3180.878	540.8
3184.014	558.8
3187.149	545.8
3190.28	541.8
3193.409	546.8
3196.536	554.8
3199.659	558.8
3202.781	556.8
3205.9	556.8
3209.016	552.8
3212.13	565.8
3215.241	549.8
3218.35	547.8
3221.456	536.8
3224.56	523.8
3227.661	531.8
3230.76	514.8
3233.856	506.8
3236.95	501.8
3240.041	502.8
3243.13	484.8
3246.216	487.8
3249.3	465.8
3252.382	468.8
3255.46	472.8
3258.537	469.8
3261.611	461.8
3264.682	456.8
3267.751	457.8
3270.818	442.8
3273.882	443.8
3276.943	436.8
3280.002	438.8
3283.059	437.8
3286.113	447.8
3289.165	432.8
3292.214	424.8
3295.261	412.8
3298.306	410.8
3301.348	401.8
3304.387	399.8
3307.425	394.8
3310.459	403.8
3313.492	396.8
3316.521	379.8
3319.549	381.8
3322.574	369.8
3325.597	375.8
3328.617	368.8
3331.635	361.8
3334.65	380.8
3337.663	360.8
3340.674	370.8
3343.682	375.8
3346.688	356.8
3349.691	368.8
3352.692	357.8
3355.691	361.8
3358.687	358.8
3361.681	365.8
3364.673	352.8
3367.662	341.8
3370.649	336.8
3373.633	321.8
3376.615	317.8
3379.595	319.8
3382.572	314.8
3385.547	311.8
3388.52	314.8
3391.49	301.8
3394.458	296.8
3397.424	292.8
3400.387	283.8
3403.348	285.8
3406.307	277.8
3409.263	271.8
3412.217	272.8
3415.168	260.8
3418.118	266.8
3421.065	254.8
3424.009	254.8
3426.951	244.8
3429.891	246.8
3432.829	233.8
3435.764	227.8
3438.697	229.8
3441.628	213.8
3444.557	210.8
3447.483	206.8
3450.407	197.8
3453.328	183.8
3456.247	179.8
3459.164	165.8
3462.079	165.8
3464.991	160.8
3467.902	145.8
3470.809	151.8
3473.715	138.8
3476.618	128.8
3479.519	132.8
3482.418	122.8
3485.315	112.8
3488.209	101.8
3491.101	93.8
3493.99	106.8
3496.878	96.8
3499.763	81.8
3502.646	79.8
3505.527	70.8
3508.405	69.8
3511.281	63.8
3514.155	59.8
3517.027	56.8
3519.897	40.8
3522.764	39.8
3525.629	35.8
3528.492	23.8
3531.352	21.8
3534.211	18.8
3537.067	17.8
3539.921	10.8
3542.773	9.8
3545.622	-8.2
3548.469	-13.2
3551.315	-8.2
3554.157	-14.2
3556.998	-19.2
3559.837	-14.2
3562.673	-20.2
3565.507	-18.2
3568.339	-28.2
3571.169	-37.2
3573.996	-30.2
3576.822	-36.2
3579.645	-35.2
3582.466	-39.2
3585.285	-44.2
3588.101	-35.2
3590.916	-52.2
3593.728	-65.2
3596.538	-54.2
3599.346	-56.2
3602.152	-55.2
3604.956	-56.2
3607.757	-58.2
3610.556	-65.2
3613.354	-62.2
3616.149	-69.2
3618.942	-75.2
3621.732	-72.2
3624.521	-73.2
3627.307	-70.2
3630.092	-77.2
3632.874	-77.2
3635.654	-78.2
3638.432	-76.2
3641.208	-79.2
3643.982	-81.2
3646.753	-85.2
3649.523	-91.2
3652.29	-86.2
3655.055	-96.2
3657.818	-89.2
3660.579	-85.2
3663.338	-89.2
3666.095	-94.2
3668.849	-99.2
3671.602	-98.2
3674.352	-98.2
3677.101	-105.2
3679.847	-100.2
3682.591	-102.2
3685.333	-100.2
3688.073	-103.2
3690.811	-104.2
3693.547	-113.2
3696.281	-107.2
3699.013	-107.2
3701.742	-105.2
3704.47	-104.2
3707.195	-100.2
3709.919	-105.2
3712.64	-112.2
3715.359	-114.2
3718.076	-110.2
3720.792	-111.2
3723.505	-113.2
3726.216	-109.2
3728.925	-116.2
3731.632	-112.2
3734.336	-124.2
3737.039	-115.2
3739.74	-116.2
3742.439	-124.2
3745.136	-104.2
3747.83	-120.2
3750.523	-115.2
3753.213	-125.2
3755.902	-117.2
3758.589	-120.2
3761.273	-115.2
3763.956	-119.2
3766.636	-116.2
3769.315	-113.2
3771.991	-114.2
3774.665	-122.2
3777.338	-111.2
3780.008	-122.2
3782.677	-121.2
3785.343	-115.2
3788.007	-118.2
3790.67	-122.2
3793.33	-116.2
3795.989	-117.2
3798.645	-116.2
3801.299	-117.2
3803.952	-128.2
3806.602	-115.2
3809.251	-129.2
3811.897	-125.2
3814.542	-121.2
3817.184	-116.2
3819.825	-119.2
3822.463	-123.2
3825.1	-121.2
3827.735	-122.2
3830.367	-124.2
3832.998	-121.2
3835.627	-121.2
3838.253	-117.2
3840.878	-119.2
3843.501	-115.2
3846.122	-121.2
3848.741	-125.2
3851.358	-115.2
3853.973	-121.2
3856.586	-118.2
3859.197	-124.2
3861.806	-120.2
3864.414	-120.2
3867.019	-123.2
3869.622	-117.2
3872.224	-111.2
3874.823	-100.2
3877.421	-86.2
3880.016	-64.2
3882.61	-47.2
3885.202	-45.2
3887.792	-56.2
3890.38	-82.2
3892.966	-107.2
3895.55	-112.2
3898.132	-119.2
3900.713	-121.2
3903.291	-125.2
3905.868	-125.2
3908.442	-120.2
3911.015	-128.2
3913.586	-127.2
3916.155	-127.2
3918.722	-121.2
3921.287	-124.2
3923.85	-124.2
3926.411	-126.2
3928.971	-126.2
3931.528	-125.2
3934.084	-123.2
3936.638	-123.2
3939.19	-124.2
3941.74	-129.2
3944.288	-128.2
3946.834	-120.2
3949.378	-125.2
3951.921	-127.2
3954.462	-131.2
3957	-123.2
3959.537	-120.2
3962.072	-119.2
3964.606	-118.2
3967.137	-122.2
3969.667	-127.2
3972.194	-128.2
3974.72	-128.2
3977.244	-128.2
3979.766	-125.2
3982.286	-120.2
3984.805	-127.2
3987.321	-122.2
3989.836	-114.2
3992.349	-125.2
3994.86	-121.2
3997.369	-132.2
3999.877	-123.2
4002.382	-119.2
4004.886	-122.2
4007.388	-120.2
4009.888	-116.2
4012.386	-127.2
4014.883	-126.2
4017.377	-130.2
4019.87	-117.2
4022.361	-120.2
4024.85	-121.2
4027.338	-121.2
4029.823	-120.2
4032.307	-118.2
4034.789	-125.2
4037.269	-121.2
4039.747	-117.2
4042.224	-119.2
4044.699	-125.2
4047.172	-120.2
4049.643	-122.2
4052.112	-123.2
4054.58	-124.2
4057.046	-121.2
4059.51	-125.2
4061.972	-119.2
4064.432	-121.2
4066.891	-119.2
4069.348	-120.2
4071.803	-129.2
4074.256	-124.2
4076.708	-119.2
4079.158	-124.2
4081.606	-116.2
4084.052	-125.2
4086.497	-119.2
4088.939	-115.2
4091.38	-117.2
4093.819	-120.2
4096.257	-124.2
4098.693	-125.2
4101.127	-128.2
4103.559	-126.2
4105.989	24.8
4108.418	9.8
4110.845	7.8
4113.27	11.8
4115.694	4.8
4118.115	8.8
4120.535	-125.2
4122.954	-128.2
4125.37	-118.2
4127.785	-125.2
4130.198	-127.2
4132.609	-121.2
4135.019	-129.2
4137.427	-133.2
4139.833	-133.2
4142.237	-129.2
