Data from 2018-2-8_conc=2_n=7_RamanShift_01.txt Node
Date: Mon Mar 12 14:15:58 IST 2018
User: aro
Spectrometer: QEPB0276
Trigger mode: 0
Integration Time (sec): 3.000000E1
Scans to average: 1
Electric dark correction enabled: true
Nonlinearity correction enabled: false
Boxcar width: 0
XAxis mode: Raman Shifts
Number of Pixels in Spectrum: 1044
>>>>>Begin Spectral Data<<<<<
160.701	19.5
166.742	48.5
172.777	124.5
178.805	387.5
184.826	1043.5
190.841	2217.5
196.849	3689.5
202.85	4819.5
208.845	5249.5
214.833	5272.5
220.815	5164.5
226.789	5156.5
232.758	5143.5
238.719	5143.5
244.674	5124.5
250.623	5041.5
256.565	4971.5
262.5	4872.5
268.429	4816.5
274.351	4783.5
280.267	4748.5
286.176	4726.5
292.079	4724.5
297.975	4673.5
303.865	4679.5
309.748	4646.5
315.625	4631.5
321.495	4626.5
327.359	4619.5
333.217	4601.5
339.068	4629.5
344.912	4650.5
350.751	4647.5
356.583	4653.5
362.408	4651.5
368.227	4662.5
374.04	4680.5
379.847	4705.5
385.647	4733.5
391.44	4742.5
397.228	4733.5
403.009	4792.5
408.784	4813.5
414.553	4826.5
420.315	4858.5
426.071	4836.5
431.821	4822.5
437.565	4825.5
443.302	4839.5
449.033	4797.5
454.758	4792.5
460.477	4766.5
466.189	4721.5
471.896	4675.5
477.596	4677.5
483.29	4658.5
488.978	4673.5
494.66	4655.5
500.335	4563.5
506.005	4432.5
511.668	4284.5
517.325	4179.5
522.977	4073.5
528.622	3962.5
534.261	3940.5
539.894	3864.5
545.521	3804.5
551.141	3814.5
556.756	3778.5
562.365	3757.5
567.968	3731.5
573.565	3715.5
579.155	3684.5
584.74	3688.5
590.319	3664.5
595.892	3658.5
601.459	3641.5
607.02	3613.5
612.575	3588.5
618.124	3571.5
623.667	3528.5
629.204	3497.5
634.735	3464.5
640.261	3450.5
645.781	3428.5
651.294	3426.5
656.802	3420.5
662.304	3383.5
667.8	3383.5
673.29	3407.5
678.775	3370.5
684.254	3344.5
689.726	3370.5
695.193	3337.5
700.655	3332.5
706.11	3302.5
711.56	3275.5
717.004	3263.5
722.442	3249.5
727.874	3218.5
733.301	3232.5
738.722	3201.5
744.137	3206.5
749.547	3199.5
754.951	3216.5
760.349	3195.5
765.741	3199.5
771.128	3198.5
776.509	3242.5
781.885	3268.5
787.254	3250.5
792.618	3263.5
797.977	3245.5
803.33	3208.5
808.677	3196.5
814.019	3181.5
819.355	3168.5
824.686	3152.5
830.011	3121.5
835.33	3117.5
840.644	3109.5
845.952	3096.5
851.255	3092.5
856.552	3071.5
861.844	3037.5
867.13	3040.5
872.41	3037.5
877.686	3019.5
882.955	2981.5
888.219	2969.5
893.478	2925.5
898.731	2862.5
903.979	2813.5
909.221	2823.5
914.458	2823.5
919.69	2784.5
924.916	2815.5
930.136	2828.5
935.351	2806.5
940.561	2828.5
945.766	2806.5
950.965	2830.5
956.158	2775.5
961.347	2738.5
966.529	2706.5
971.707	2676.5
976.879	2635.5
982.046	2604.5
987.208	2604.5
992.364	2590.5
997.515	2617.5
1002.66	2634.5
1007.801	2650.5
1012.936	2682.5
1018.066	2695.5
1023.19	2681.5
1028.309	2695.5
1033.423	2693.5
1038.532	2672.5
1043.636	2664.5
1048.734	2618.5
1053.827	2599.5
1058.915	2558.5
1063.998	2556.5
1069.075	2536.5
1074.147	2567.5
1079.214	2543.5
1084.276	2544.5
1089.333	2572.5
1094.385	2583.5
1099.431	2587.5
1104.472	2565.5
1109.509	2582.5
1114.54	2528.5
1119.565	2502.5
1124.586	2454.5
1129.602	2424.5
1134.613	2393.5
1139.618	2375.5
1144.619	2362.5
1149.614	2388.5
1154.604	2377.5
1159.589	2416.5
1164.57	2397.5
1169.545	2398.5
1174.515	2413.5
1179.48	2398.5
1184.44	2376.5
1189.395	2357.5
1194.345	2347.5
1199.29	2312.5
1204.23	2316.5
1209.165	2324.5
1214.095	2358.5
1219.021	2353.5
1223.941	2376.5
1228.856	2380.5
1233.766	2390.5
1238.672	2382.5
1243.572	2378.5
1248.467	2373.5
1253.358	2349.5
1258.244	2287.5
1263.124	2250.5
1268	2227.5
1272.871	2207.5
1277.737	2193.5
1282.599	2164.5
1287.455	2192.5
1292.306	2173.5
1297.153	2196.5
1301.995	2198.5
1306.832	2196.5
1311.664	2217.5
1316.491	2213.5
1321.314	2219.5
1326.132	2203.5
1330.945	2175.5
1335.753	2134.5
1340.556	2099.5
1345.354	2051.5
1350.148	2059.5
1354.937	2005.5
1359.722	1968.5
1364.501	1951.5
1369.276	1926.5
1374.046	1880.5
1378.811	1869.5
1383.572	1864.5
1388.327	1865.5
1393.079	1867.5
1397.825	1858.5
1402.567	1870.5
1407.304	1866.5
1412.036	1868.5
1416.764	1850.5
1421.487	1872.5
1426.205	1869.5
1430.919	1868.5
1435.628	1883.5
1440.333	1909.5
1445.032	1920.5
1449.727	1932.5
1454.418	1937.5
1459.104	1969.5
1463.785	1894.5
1468.462	1882.5
1473.134	1870.5
1477.802	1805.5
1482.465	1757.5
1487.123	1731.5
1491.777	1718.5
1496.426	1684.5
1501.071	1688.5
1505.711	1677.5
1510.347	1653.5
1514.978	1673.5
1519.604	1636.5
1524.226	1670.5
1528.844	1646.5
1533.457	1649.5
1538.065	1634.5
1542.669	1628.5
1547.269	1627.5
1551.864	1626.5
1556.454	1649.5
1561.041	1676.5
1565.622	1670.5
1570.199	1671.5
1574.772	1690.5
1579.34	1714.5
1583.904	1742.5
1588.464	1747.5
1593.019	1762.5
1597.569	1748.5
1602.115	1762.5
1606.657	1755.5
1611.195	1730.5
1615.728	1736.5
1620.256	1732.5
1624.78	1728.5
1629.3	1732.5
1633.816	1748.5
1638.327	1758.5
1642.834	1766.5
1647.336	1765.5
1651.834	1771.5
1656.328	1762.5
1660.817	1774.5
1665.302	1742.5
1669.783	1726.5
1674.259	1670.5
1678.732	1633.5
1683.199	1595.5
1687.663	1535.5
1692.122	1507.5
1696.577	1418.5
1701.028	1361.5
1705.474	1316.5
1709.917	1277.5
1714.355	1246.5
1718.788	1240.5
1723.218	1239.5
1727.643	1259.5
1732.064	1236.5
1736.481	1218.5
1740.893	1180.5
1745.301	1165.5
1749.705	1142.5
1754.105	1130.5
1758.501	1098.5
1762.893	1105.5
1767.28	1080.5
1771.663	1067.5
1776.042	1054.5
1780.417	1050.5
1784.787	1036.5
1789.154	1029.5
1793.516	1030.5
1797.874	1000.5
1802.228	987.5
1806.578	981.5
1810.924	979.5
1815.266	959.5
1819.603	965.5
1823.937	968.5
1828.266	962.5
1832.591	959.5
1836.913	955.5
1841.23	960.5
1845.543	953.5
1849.852	946.5
1854.156	937.5
1858.457	945.5
1862.754	952.5
1867.047	944.5
1871.335	952.5
1875.62	949.5
1879.9	961.5
1884.177	948.5
1888.449	937.5
1892.718	930.5
1896.982	910.5
1901.243	887.5
1905.499	888.5
1909.752	873.5
1914	860.5
1918.245	852.5
1922.485	848.5
1926.722	840.5
1930.954	837.5
1935.183	829.5
1939.408	819.5
1943.628	823.5
1947.845	804.5
1952.058	806.5
1956.267	811.5
1960.472	800.5
1964.673	786.5
1968.87	785.5
1973.063	777.5
1977.252	766.5
1981.438	766.5
1985.619	776.5
1989.797	764.5
1993.971	767.5
1998.14	772.5
2002.306	778.5
2006.469	771.5
2010.627	787.5
2014.781	789.5
2018.932	779.5
2023.078	791.5
2027.221	780.5
2031.36	760.5
2035.495	746.5
2039.627	741.5
2043.754	735.5
2047.878	723.5
2051.998	714.5
2056.114	714.5
2060.226	724.5
2064.334	708.5
2068.439	706.5
2072.54	708.5
2076.637	713.5
2080.73	712.5
2084.82	714.5
2088.906	691.5
2092.988	688.5
2097.066	679.5
2101.14	666.5
2105.211	664.5
2109.278	656.5
2113.342	645.5
2117.401	642.5
2121.457	633.5
2125.509	635.5
2129.558	639.5
2133.602	639.5
2137.643	625.5
2141.681	634.5
2145.714	620.5
2149.744	635.5
2153.77	628.5
2157.793	626.5
2161.812	619.5
2165.827	614.5
2169.838	617.5
2173.846	608.5
2177.851	580.5
2181.851	577.5
2185.848	568.5
2189.841	570.5
2193.831	574.5
2197.817	566.5
2201.799	557.5
2205.778	548.5
2209.753	567.5
2213.725	551.5
2217.693	554.5
2221.657	553.5
2225.618	550.5
2229.575	549.5
2233.529	545.5
2237.479	538.5
2241.425	534.5
2245.368	519.5
2249.307	517.5
2253.243	506.5
2257.175	501.5
2261.104	494.5
2265.029	483.5
2268.95	489.5
2272.868	472.5
2276.783	462.5
2280.694	467.5
2284.601	451.5
2288.505	462.5
2292.405	447.5
2296.302	434.5
2300.195	433.5
2304.085	428.5
2307.971	413.5
2311.854	415.5
2315.734	409.5
2319.609	400.5
2323.482	398.5
2327.351	407.5
2331.216	409.5
2335.078	422.5
2338.937	402.5
2342.792	384.5
2346.643	378.5
2350.492	388.5
2354.336	386.5
2358.178	386.5
2362.015	382.5
2365.85	398.5
2369.681	383.5
2373.508	386.5
2377.333	392.5
2381.153	384.5
2384.971	389.5
2388.785	391.5
2392.595	379.5
2396.402	369.5
2400.206	373.5
2404.007	369.5
2407.804	377.5
2411.597	366.5
2415.388	361.5
2419.174	364.5
2422.958	366.5
2426.738	362.5
2430.515	361.5
2434.289	354.5
2438.059	352.5
2441.825	341.5
2445.589	345.5
2449.349	334.5
2453.106	338.5
2456.859	329.5
2460.61	339.5
2464.356	317.5
2468.1	319.5
2471.84	304.5
2475.577	317.5
2479.311	296.5
2483.041	302.5
2486.768	303.5
2490.492	301.5
2494.213	300.5
2497.93	302.5
2501.644	295.5
2505.355	291.5
2509.062	285.5
2512.766	286.5
2516.467	284.5
2520.165	277.5
2523.859	277.5
2527.551	270.5
2531.239	273.5
2534.923	268.5
2538.605	258.5
2542.283	260.5
2545.958	257.5
2549.63	244.5
2553.299	249.5
2556.964	262.5
2560.626	247.5
2564.285	241.5
2567.941	243.5
2571.594	238.5
2575.243	232.5
2578.89	228.5
2582.533	225.5
2586.173	223.5
2589.809	214.5
2593.443	227.5
2597.073	212.5
2600.701	207.5
2604.325	209.5
2607.946	215.5
2611.564	218.5
2615.178	216.5
2618.79	216.5
2622.398	213.5
2626.004	205.5
2629.606	202.5
2633.205	204.5
2636.801	193.5
2640.394	204.5
2643.983	195.5
2647.57	192.5
2651.153	188.5
2654.734	193.5
2658.311	181.5
2661.885	189.5
2665.456	197.5
2669.025	184.5
2672.589	182.5
2676.151	179.5
2679.71	176.5
2683.266	170.5
2686.819	167.5
2690.368	168.5
2693.915	164.5
2697.458	154.5
2700.999	160.5
2704.536	155.5
2708.071	139.5
2711.602	145.5
2715.13	154.5
2718.656	140.5
2722.178	135.5
2725.697	138.5
2729.214	132.5
2732.727	138.5
2736.237	140.5
2739.744	126.5
2743.249	134.5
2746.75	129.5
2750.248	119.5
2753.743	126.5
2757.236	119.5
2760.725	121.5
2764.211	109.5
2767.695	111.5
2771.175	106.5
2774.652	104.5
2778.127	110.5
2781.598	105.5
2785.067	111.5
2788.532	114.5
2791.995	109.5
2795.455	117.5
2798.911	109.5
2802.365	118.5
2805.816	125.5
2809.264	114.5
2812.709	119.5
2816.151	114.5
2819.59	111.5
2823.026	113.5
2826.46	106.5
2829.89	110.5
2833.318	108.5
2836.742	118.5
2840.164	111.5
2843.583	117.5
2846.999	117.5
2850.412	118.5
2853.822	115.5
2857.229	124.5
2860.634	126.5
2864.035	124.5
2867.434	127.5
2870.83	140.5
2874.223	152.5
2877.613	140.5
2881	155.5
2884.385	151.5
2887.766	151.5
2891.145	153.5
2894.521	155.5
2897.894	164.5
2901.264	158.5
2904.631	160.5
2907.996	160.5
2911.358	168.5
2914.717	176.5
2918.073	170.5
2921.426	183.5
2924.777	175.5
2928.124	180.5
2931.469	187.5
2934.811	207.5
2938.15	195.5
2941.487	206.5
2944.821	202.5
2948.152	212.5
2951.48	206.5
2954.805	205.5
2958.128	203.5
2961.447	192.5
2964.765	200.5
2968.079	201.5
2971.39	201.5
2974.699	208.5
2978.005	210.5
2981.308	212.5
2984.609	205.5
2987.907	203.5
2991.202	208.5
2994.494	208.5
2997.784	215.5
3001.07	219.5
3004.355	224.5
3007.636	219.5
3010.915	217.5
3014.191	226.5
3017.464	226.5
3020.734	239.5
3024.002	238.5
3027.267	245.5
3030.53	249.5
3033.789	251.5
3037.046	264.5
3040.301	258.5
3043.552	275.5
3046.801	283.5
3050.048	286.5
3053.291	302.5
3056.532	305.5
3059.771	318.5
3063.006	325.5
3066.239	341.5
3069.469	358.5
3072.697	358.5
3075.922	379.5
3079.144	379.5
3082.364	393.5
3085.581	413.5
3088.795	411.5
3092.007	420.5
3095.216	411.5
3098.423	439.5
3101.627	443.5
3104.828	453.5
3108.026	466.5
3111.222	468.5
3114.416	484.5
3117.607	485.5
3120.795	500.5
3123.98	507.5
3127.163	528.5
3130.344	556.5
3133.521	539.5
3136.696	561.5
3139.869	570.5
3143.039	587.5
3146.206	590.5
3149.371	605.5
3152.533	602.5
3155.693	616.5
3158.85	618.5
3162.005	623.5
3165.157	619.5
3168.306	630.5
3171.453	632.5
3174.597	634.5
3177.739	645.5
3180.878	658.5
3184.014	651.5
3187.149	655.5
3190.28	644.5
3193.409	646.5
3196.536	661.5
3199.659	653.5
3202.781	657.5
3205.9	663.5
3209.016	669.5
3212.13	673.5
3215.241	660.5
3218.35	661.5
3221.456	650.5
3224.56	635.5
3227.661	639.5
3230.76	619.5
3233.856	614.5
3236.95	590.5
3240.041	602.5
3243.13	587.5
3246.216	570.5
3249.3	585.5
3252.382	573.5
3255.46	561.5
3258.537	562.5
3261.611	561.5
3264.682	541.5
3267.751	546.5
3270.818	526.5
3273.882	540.5
3276.943	529.5
3280.002	537.5
3283.059	519.5
3286.113	517.5
3289.165	525.5
3292.214	516.5
3295.261	500.5
3298.306	495.5
3301.348	492.5
3304.387	481.5
3307.425	492.5
3310.459	484.5
3313.492	476.5
3316.521	456.5
3319.549	462.5
3322.574	451.5
3325.597	448.5
3328.617	464.5
3331.635	461.5
3334.65	457.5
3337.663	443.5
3340.674	445.5
3343.682	453.5
3346.688	443.5
3349.691	448.5
3352.692	439.5
3355.691	445.5
3358.687	429.5
3361.681	431.5
3364.673	428.5
3367.662	429.5
3370.649	419.5
3373.633	404.5
3376.615	389.5
3379.595	388.5
3382.572	393.5
3385.547	386.5
3388.52	382.5
3391.49	376.5
3394.458	371.5
3397.424	367.5
3400.387	357.5
3403.348	339.5
3406.307	335.5
3409.263	340.5
3412.217	338.5
3415.168	339.5
3418.118	321.5
3421.065	318.5
3424.009	322.5
3426.951	306.5
3429.891	311.5
3432.829	293.5
3435.764	277.5
3438.697	280.5
3441.628	275.5
3444.557	264.5
3447.483	251.5
3450.407	247.5
3453.328	227.5
3456.247	233.5
3459.164	219.5
3462.079	207.5
3464.991	191.5
3467.902	177.5
3470.809	184.5
3473.715	170.5
3476.618	159.5
3479.519	160.5
3482.418	148.5
3485.315	146.5
3488.209	139.5
3491.101	131.5
3493.99	136.5
3496.878	116.5
3499.763	109.5
3502.646	101.5
3505.527	99.5
3508.405	90.5
3511.281	82.5
3514.155	74.5
3517.027	65.5
3519.897	66.5
3522.764	57.5
3525.629	43.5
3528.492	42.5
3531.352	37.5
3534.211	29.5
3537.067	23.5
3539.921	15.5
3542.773	13.5
3545.622	10.5
3548.469	0.5
3551.315	7.5
3554.157	-10.5
3556.998	-17.5
3559.837	-16.5
3562.673	-23.5
3565.507	-24.5
3568.339	-28.5
3571.169	-33.5
3573.996	-33.5
3576.822	-39.5
3579.645	-38.5
3582.466	-40.5
3585.285	-53.5
3588.101	-37.5
3590.916	-52.5
3593.728	-55.5
3596.538	-51.5
3599.346	-54.5
3602.152	-65.5
3604.956	-64.5
3607.757	-63.5
3610.556	-68.5
3613.354	-67.5
3616.149	-75.5
3618.942	-76.5
3621.732	-73.5
3624.521	-79.5
3627.307	-79.5
3630.092	-81.5
3632.874	-83.5
3635.654	-93.5
3638.432	-89.5
3641.208	-90.5
3643.982	-93.5
3646.753	-98.5
3649.523	-102.5
3652.29	-92.5
3655.055	-96.5
3657.818	-99.5
3660.579	-99.5
3663.338	-101.5
3666.095	-103.5
3668.849	-110.5
3671.602	-108.5
3674.352	-111.5
3677.101	-115.5
3679.847	-113.5
3682.591	-117.5
3685.333	-113.5
3688.073	-111.5
3690.811	-107.5
3693.547	-119.5
3696.281	-115.5
3699.013	-119.5
3701.742	-127.5
3704.47	-118.5
3707.195	-119.5
3709.919	-121.5
3712.64	-121.5
3715.359	-126.5
3718.076	-122.5
3720.792	-129.5
3723.505	-127.5
3726.216	-122.5
3728.925	-130.5
3731.632	-126.5
3734.336	-133.5
3737.039	-129.5
3739.74	-130.5
3742.439	-135.5
3745.136	-124.5
3747.83	-137.5
3750.523	-131.5
3753.213	-138.5
3755.902	-129.5
3758.589	-131.5
3761.273	-130.5
3763.956	-127.5
3766.636	-134.5
3769.315	-126.5
3771.991	-127.5
3774.665	-136.5
3777.338	-120.5
3780.008	-132.5
3782.677	-131.5
3785.343	-133.5
3788.007	-134.5
3790.67	-133.5
3793.33	-131.5
3795.989	-137.5
3798.645	-127.5
3801.299	-132.5
3803.952	-138.5
3806.602	-131.5
3809.251	-142.5
3811.897	-138.5
3814.542	-136.5
3817.184	-129.5
3819.825	-135.5
3822.463	-135.5
3825.1	-136.5
3827.735	-135.5
3830.367	-135.5
3832.998	-139.5
3835.627	-136.5
3838.253	-133.5
3840.878	-133.5
3843.501	-132.5
3846.122	-130.5
3848.741	-133.5
3851.358	-134.5
3853.973	-143.5
3856.586	-137.5
3859.197	-144.5
3861.806	-136.5
3864.414	-134.5
3867.019	-130.5
3869.622	-133.5
3872.224	-121.5
3874.823	-111.5
3877.421	-103.5
3880.016	-77.5
3882.61	-43.5
3885.202	-40.5
3887.792	-63.5
3890.38	-90.5
3892.966	-117.5
3895.55	-126.5
3898.132	-131.5
3900.713	-135.5
3903.291	-142.5
3905.868	-139.5
3908.442	-131.5
3911.015	-139.5
3913.586	-138.5
3916.155	-141.5
3918.722	-144.5
3921.287	-142.5
3923.85	-142.5
3926.411	-140.5
3928.971	-138.5
3931.528	-136.5
3934.084	-133.5
3936.638	-130.5
3939.19	-140.5
3941.74	-142.5
3944.288	-135.5
3946.834	-137.5
3949.378	-140.5
3951.921	-138.5
3954.462	-147.5
3957	-135.5
3959.537	-136.5
3962.072	-140.5
3964.606	-135.5
3967.137	-134.5
3969.667	-137.5
3972.194	-135.5
3974.72	-143.5
3977.244	-137.5
3979.766	-137.5
3982.286	-134.5
3984.805	-141.5
3987.321	-137.5
3989.836	-130.5
3992.349	-136.5
3994.86	-138.5
3997.369	-136.5
3999.877	-136.5
4002.382	-131.5
4004.886	-136.5
4007.388	-140.5
4009.888	-136.5
4012.386	-137.5
4014.883	-136.5
4017.377	-134.5
4019.87	-133.5
4022.361	-140.5
4024.85	-136.5
4027.338	-141.5
4029.823	-132.5
4032.307	-134.5
4034.789	-143.5
4037.269	-134.5
4039.747	-130.5
4042.224	-135.5
4044.699	-141.5
4047.172	-135.5
4049.643	-132.5
4052.112	-138.5
4054.58	-137.5
4057.046	-135.5
4059.51	-140.5
4061.972	-136.5
4064.432	-134.5
4066.891	-141.5
4069.348	-135.5
4071.803	-136.5
4074.256	-134.5
4076.708	-134.5
4079.158	-133.5
4081.606	-130.5
4084.052	-140.5
4086.497	-137.5
4088.939	-124.5
4091.38	-136.5
4093.819	-131.5
4096.257	-144.5
4098.693	-143.5
4101.127	-142.5
4103.559	-146.5
4105.989	14.5
4108.418	7.5
4110.845	13.5
4113.27	4.5
4115.694	2.5
4118.115	5.5
4120.535	-140.5
4122.954	-140.5
4125.37	-132.5
4127.785	-139.5
4130.198	-135.5
4132.609	-132.5
4135.019	-143.5
4137.427	-145.5
4139.833	-144.5
4142.237	-146.5
