Data from 2018-2-8_conc=6_n=4_RamanShift_02.txt Node
Date: Mon Mar 12 16:33:28 IST 2018
User: aro
Spectrometer: QEPB0276
Trigger mode: 0
Integration Time (sec): 3.000000E1
Scans to average: 1
Electric dark correction enabled: true
Nonlinearity correction enabled: false
Boxcar width: 0
XAxis mode: Raman Shifts
Number of Pixels in Spectrum: 1044
>>>>>Begin Spectral Data<<<<<
160.701	20.2
166.742	51.2
172.777	125.2
178.805	379.2
184.826	1031.2
190.841	2201.2
196.849	3662.2
202.85	4797.2
208.845	5223.2
214.833	5221.2
220.815	5178.2
226.789	5151.2
232.758	5161.2
238.719	5154.2
244.674	5102.2
250.623	5088.2
256.565	4984.2
262.5	4912.2
268.429	4865.2
274.351	4824.2
280.267	4793.2
286.176	4753.2
292.079	4751.2
297.975	4732.2
303.865	4683.2
309.748	4710.2
315.625	4700.2
321.495	4671.2
327.359	4699.2
333.217	4681.2
339.068	4685.2
344.912	4699.2
350.751	4703.2
356.583	4719.2
362.408	4719.2
368.227	4705.2
374.04	4741.2
379.847	4746.2
385.647	4788.2
391.44	4770.2
397.228	4799.2
403.009	4857.2
408.784	4854.2
414.553	4867.2
420.315	4907.2
426.071	4889.2
431.821	4883.2
437.565	4901.2
443.302	4901.2
449.033	4857.2
454.758	4878.2
460.477	4819.2
466.189	4814.2
471.896	4765.2
477.596	4762.2
483.29	4706.2
488.978	4723.2
494.66	4722.2
500.335	4640.2
506.005	4535.2
511.668	4379.2
517.325	4223.2
522.977	4129.2
528.622	4056.2
534.261	3972.2
539.894	3932.2
545.521	3900.2
551.141	3859.2
556.756	3834.2
562.365	3812.2
567.968	3787.2
573.565	3762.2
579.155	3759.2
584.74	3743.2
590.319	3741.2
595.892	3726.2
601.459	3702.2
607.02	3688.2
612.575	3675.2
618.124	3620.2
623.667	3606.2
629.204	3575.2
634.735	3541.2
640.261	3496.2
645.781	3505.2
651.294	3504.2
656.802	3487.2
662.304	3469.2
667.8	3457.2
673.29	3450.2
678.775	3447.2
684.254	3426.2
689.726	3432.2
695.193	3396.2
700.655	3377.2
706.11	3357.2
711.56	3348.2
717.004	3333.2
722.442	3314.2
727.874	3299.2
733.301	3290.2
738.722	3268.2
744.137	3248.2
749.547	3249.2
754.951	3259.2
760.349	3272.2
765.741	3279.2
771.128	3281.2
776.509	3292.2
781.885	3320.2
787.254	3338.2
792.618	3328.2
797.977	3332.2
803.33	3298.2
808.677	3262.2
814.019	3229.2
819.355	3215.2
824.686	3192.2
830.011	3165.2
835.33	3174.2
840.644	3156.2
845.952	3149.2
851.255	3152.2
856.552	3144.2
861.844	3127.2
867.13	3087.2
872.41	3064.2
877.686	3063.2
882.955	3038.2
888.219	2994.2
893.478	2981.2
898.731	2909.2
903.979	2887.2
909.221	2878.2
914.458	2869.2
919.69	2848.2
924.916	2854.2
930.136	2868.2
935.351	2849.2
940.561	2864.2
945.766	2863.2
950.965	2853.2
956.158	2853.2
961.347	2804.2
966.529	2779.2
971.707	2729.2
976.879	2713.2
982.046	2655.2
987.208	2666.2
992.364	2665.2
997.515	2674.2
1002.66	2685.2
1007.801	2706.2
1012.936	2728.2
1018.066	2733.2
1023.19	2718.2
1028.309	2728.2
1033.423	2749.2
1038.532	2759.2
1043.636	2708.2
1048.734	2675.2
1053.827	2662.2
1058.915	2622.2
1063.998	2586.2
1069.075	2600.2
1074.147	2587.2
1079.214	2586.2
1084.276	2606.2
1089.333	2615.2
1094.385	2634.2
1099.431	2629.2
1104.472	2639.2
1109.509	2623.2
1114.54	2576.2
1119.565	2546.2
1124.586	2511.2
1129.602	2474.2
1134.613	2449.2
1139.618	2432.2
1144.619	2424.2
1149.614	2445.2
1154.604	2459.2
1159.589	2459.2
1164.57	2448.2
1169.545	2452.2
1174.515	2475.2
1179.48	2438.2
1184.44	2426.2
1189.395	2418.2
1194.345	2385.2
1199.29	2379.2
1204.23	2357.2
1209.165	2367.2
1214.095	2393.2
1219.021	2389.2
1223.941	2434.2
1228.856	2411.2
1233.766	2411.2
1238.672	2442.2
1243.572	2427.2
1248.467	2401.2
1253.358	2368.2
1258.244	2348.2
1263.124	2313.2
1268	2263.2
1272.871	2244.2
1277.737	2221.2
1282.599	2223.2
1287.455	2197.2
1292.306	2226.2
1297.153	2230.2
1301.995	2229.2
1306.832	2251.2
1311.664	2280.2
1316.491	2262.2
1321.314	2269.2
1326.132	2258.2
1330.945	2240.2
1335.753	2206.2
1340.556	2157.2
1345.354	2136.2
1350.148	2122.2
1354.937	2093.2
1359.722	2034.2
1364.501	2031.2
1369.276	1979.2
1374.046	1945.2
1378.811	1925.2
1383.572	1927.2
1388.327	1904.2
1393.079	1898.2
1397.825	1930.2
1402.567	1918.2
1407.304	1924.2
1412.036	1909.2
1416.764	1920.2
1421.487	1921.2
1426.205	1919.2
1430.919	1917.2
1435.628	1921.2
1440.333	1952.2
1445.032	1961.2
1449.727	1977.2
1454.418	1979.2
1459.104	1966.2
1463.785	1953.2
1468.462	1929.2
1473.134	1890.2
1477.802	1854.2
1482.465	1814.2
1487.123	1781.2
1491.777	1750.2
1496.426	1745.2
1501.071	1730.2
1505.711	1744.2
1510.347	1713.2
1514.978	1720.2
1519.604	1722.2
1524.226	1713.2
1528.844	1706.2
1533.457	1691.2
1538.065	1701.2
1542.669	1688.2
1547.269	1696.2
1551.864	1682.2
1556.454	1700.2
1561.041	1703.2
1565.622	1716.2
1570.199	1724.2
1574.772	1737.2
1579.34	1757.2
1583.904	1777.2
1588.464	1795.2
1593.019	1792.2
1597.569	1798.2
1602.115	1788.2
1606.657	1794.2
1611.195	1778.2
1615.728	1784.2
1620.256	1778.2
1624.78	1777.2
1629.3	1788.2
1633.816	1782.2
1638.327	1780.2
1642.834	1777.2
1647.336	1826.2
1651.834	1804.2
1656.328	1806.2
1660.817	1798.2
1665.302	1803.2
1669.783	1773.2
1674.259	1712.2
1678.732	1690.2
1683.199	1641.2
1687.663	1590.2
1692.122	1546.2
1696.577	1484.2
1701.028	1421.2
1705.474	1381.2
1709.917	1326.2
1714.355	1306.2
1718.788	1289.2
1723.218	1293.2
1727.643	1298.2
1732.064	1274.2
1736.481	1275.2
1740.893	1260.2
1745.301	1213.2
1749.705	1197.2
1754.105	1195.2
1758.501	1154.2
1762.893	1152.2
1767.28	1135.2
1771.663	1121.2
1776.042	1107.2
1780.417	1095.2
1784.787	1079.2
1789.154	1089.2
1793.516	1083.2
1797.874	1058.2
1802.228	1036.2
1806.578	1037.2
1810.924	1024.2
1815.266	1005.2
1819.603	1014.2
1823.937	1016.2
1828.266	995.2
1832.591	1005.2
1836.913	1003.2
1841.23	1000.2
1845.543	1008.2
1849.852	991.2
1854.156	999.2
1858.457	997.2
1862.754	1010.2
1867.047	1004.2
1871.335	1007.2
1875.62	1017.2
1879.9	1011.2
1884.177	987.2
1888.449	983.2
1892.718	967.2
1896.982	956.2
1901.243	941.2
1905.499	933.2
1909.752	928.2
1914	907.2
1918.245	905.2
1922.485	893.2
1926.722	889.2
1930.954	875.2
1935.183	873.2
1939.408	872.2
1943.628	874.2
1947.845	862.2
1952.058	844.2
1956.267	845.2
1960.472	848.2
1964.673	832.2
1968.87	836.2
1973.063	840.2
1977.252	814.2
1981.438	815.2
1985.619	815.2
1989.797	817.2
1993.971	813.2
1998.14	828.2
2002.306	803.2
2006.469	826.2
2010.627	828.2
2014.781	818.2
2018.932	832.2
2023.078	822.2
2027.221	818.2
2031.36	814.2
2035.495	784.2
2039.627	776.2
2043.754	768.2
2047.878	770.2
2051.998	766.2
2056.114	759.2
2060.226	749.2
2064.334	755.2
2068.439	755.2
2072.54	739.2
2076.637	739.2
2080.73	738.2
2084.82	741.2
2088.906	730.2
2092.988	735.2
2097.066	730.2
2101.14	709.2
2105.211	720.2
2109.278	691.2
2113.342	780.2
2117.401	697.2
2121.457	660.2
2125.509	670.2
2129.558	667.2
2133.602	661.2
2137.643	671.2
2141.681	669.2
2145.714	662.2
2149.744	661.2
2153.77	667.2
2157.793	656.2
2161.812	664.2
2165.827	647.2
2169.838	642.2
2173.846	638.2
2177.851	612.2
2181.851	615.2
2185.848	612.2
2189.841	596.2
2193.831	600.2
2197.817	598.2
2201.799	581.2
2205.778	589.2
2209.753	570.2
2213.725	582.2
2217.693	576.2
2221.657	572.2
2225.618	581.2
2229.575	573.2
2233.529	576.2
2237.479	564.2
2241.425	556.2
2245.368	544.2
2249.307	541.2
2253.243	534.2
2257.175	520.2
2261.104	520.2
2265.029	506.2
2268.95	508.2
2272.868	488.2
2276.783	490.2
2280.694	477.2
2284.601	482.2
2288.505	481.2
2292.405	456.2
2296.302	470.2
2300.195	466.2
2304.085	454.2
2307.971	453.2
2311.854	443.2
2315.734	427.2
2319.609	419.2
2323.482	426.2
2327.351	413.2
2331.216	440.2
2335.078	441.2
2338.937	420.2
2342.792	405.2
2346.643	402.2
2350.492	403.2
2354.336	399.2
2358.178	402.2
2362.015	399.2
2365.85	412.2
2369.681	405.2
2373.508	405.2
2377.333	407.2
2381.153	406.2
2384.971	398.2
2388.785	395.2
2392.595	391.2
2396.402	385.2
2400.206	391.2
2404.007	383.2
2407.804	389.2
2411.597	382.2
2415.388	380.2
2419.174	386.2
2422.958	370.2
2426.738	378.2
2430.515	382.2
2434.289	381.2
2438.059	368.2
2441.825	363.2
2445.589	360.2
2449.349	352.2
2453.106	354.2
2456.859	344.2
2460.61	344.2
2464.356	331.2
2468.1	339.2
2471.84	319.2
2475.577	333.2
2479.311	322.2
2483.041	311.2
2486.768	317.2
2490.492	314.2
2494.213	321.2
2497.93	320.2
2501.644	300.2
2505.355	311.2
2509.062	308.2
2512.766	305.2
2516.467	297.2
2520.165	294.2
2523.859	303.2
2527.551	288.2
2531.239	277.2
2534.923	274.2
2538.605	275.2
2542.283	274.2
2545.958	272.2
2549.63	263.2
2553.299	266.2
2556.964	277.2
2560.626	253.2
2564.285	262.2
2567.941	255.2
2571.594	261.2
2575.243	258.2
2578.89	230.2
2582.533	239.2
2586.173	249.2
2589.809	237.2
2593.443	234.2
2597.073	242.2
2600.701	219.2
2604.325	222.2
2607.946	222.2
2611.564	223.2
2615.178	218.2
2618.79	216.2
2622.398	217.2
2626.004	215.2
2629.606	217.2
2633.205	220.2
2636.801	204.2
2640.394	211.2
2643.983	203.2
2647.57	206.2
2651.153	204.2
2654.734	195.2
2658.311	191.2
2661.885	191.2
2665.456	191.2
2669.025	196.2
2672.589	192.2
2676.151	187.2
2679.71	181.2
2683.266	184.2
2686.819	183.2
2690.368	184.2
2693.915	173.2
2697.458	159.2
2700.999	171.2
2704.536	160.2
2708.071	161.2
2711.602	157.2
2715.13	160.2
2718.656	156.2
2722.178	150.2
2725.697	149.2
2729.214	144.2
2732.727	148.2
2736.237	145.2
2739.744	138.2
2743.249	138.2
2746.75	135.2
2750.248	137.2
2753.743	137.2
2757.236	131.2
2760.725	131.2
2764.211	125.2
2767.695	113.2
2771.175	118.2
2774.652	118.2
2778.127	120.2
2781.598	117.2
2785.067	127.2
2788.532	114.2
2791.995	120.2
2795.455	117.2
2798.911	111.2
2802.365	124.2
2805.816	127.2
2809.264	127.2
2812.709	126.2
2816.151	128.2
2819.59	128.2
2823.026	116.2
2826.46	117.2
2829.89	115.2
2833.318	112.2
2836.742	119.2
2840.164	122.2
2843.583	123.2
2846.999	119.2
2850.412	126.2
2853.822	124.2
2857.229	128.2
2860.634	129.2
2864.035	132.2
2867.434	138.2
2870.83	142.2
2874.223	155.2
2877.613	142.2
2881	163.2
2884.385	163.2
2887.766	157.2
2891.145	151.2
2894.521	151.2
2897.894	168.2
2901.264	159.2
2904.631	160.2
2907.996	170.2
2911.358	165.2
2914.717	174.2
2918.073	174.2
2921.426	182.2
2924.777	187.2
2928.124	184.2
2931.469	184.2
2934.811	188.2
2938.15	197.2
2941.487	208.2
2944.821	204.2
2948.152	213.2
2951.48	210.2
2954.805	204.2
2958.128	200.2
2961.447	196.2
2964.765	201.2
2968.079	198.2
2971.39	198.2
2974.699	207.2
2978.005	201.2
2981.308	203.2
2984.609	206.2
2987.907	213.2
2991.202	217.2
2994.494	211.2
2997.784	211.2
3001.07	224.2
3004.355	231.2
3007.636	224.2
3010.915	227.2
3014.191	235.2
3017.464	230.2
3020.734	239.2
3024.002	239.2
3027.267	246.2
3030.53	251.2
3033.789	259.2
3037.046	262.2
3040.301	257.2
3043.552	280.2
3046.801	284.2
3050.048	299.2
3053.291	294.2
3056.532	311.2
3059.771	318.2
3063.006	326.2
3066.239	347.2
3069.469	370.2
3072.697	358.2
3075.922	370.2
3079.144	387.2
3082.364	405.2
3085.581	400.2
3088.795	408.2
3092.007	421.2
3095.216	433.2
3098.423	435.2
3101.627	460.2
3104.828	453.2
3108.026	464.2
3111.222	465.2
3114.416	491.2
3117.607	497.2
3120.795	503.2
3123.98	513.2
3127.163	523.2
3130.344	555.2
3133.521	549.2
3136.696	575.2
3139.869	591.2
3143.039	591.2
3146.206	591.2
3149.371	600.2
3152.533	609.2
3155.693	617.2
3158.85	616.2
3162.005	632.2
3165.157	630.2
3168.306	639.2
3171.453	639.2
3174.597	639.2
3177.739	629.2
3180.878	627.2
3184.014	654.2
3187.149	641.2
3190.28	638.2
3193.409	648.2
3196.536	648.2
3199.659	661.2
3202.781	659.2
3205.9	660.2
3209.016	674.2
3212.13	657.2
3215.241	662.2
3218.35	654.2
3221.456	650.2
3224.56	641.2
3227.661	627.2
3230.76	614.2
3233.856	607.2
3236.95	599.2
3240.041	588.2
3243.13	588.2
3246.216	581.2
3249.3	562.2
3252.382	562.2
3255.46	556.2
3258.537	565.2
3261.611	551.2
3264.682	551.2
3267.751	546.2
3270.818	532.2
3273.882	536.2
3276.943	531.2
3280.002	527.2
3283.059	523.2
3286.113	513.2
3289.165	518.2
3292.214	517.2
3295.261	497.2
3298.306	499.2
3301.348	473.2
3304.387	478.2
3307.425	483.2
3310.459	465.2
3313.492	474.2
3316.521	455.2
3319.549	467.2
3322.574	451.2
3325.597	447.2
3328.617	446.2
3331.635	443.2
3334.65	447.2
3337.663	438.2
3340.674	446.2
3343.682	446.2
3346.688	436.2
3349.691	445.2
3352.692	437.2
3355.691	446.2
3358.687	426.2
3361.681	434.2
3364.673	420.2
3367.662	414.2
3370.649	413.2
3373.633	409.2
3376.615	390.2
3379.595	378.2
3382.572	392.2
3385.547	372.2
3388.52	374.2
3391.49	362.2
3394.458	357.2
3397.424	350.2
3400.387	356.2
3403.348	347.2
3406.307	336.2
3409.263	339.2
3412.217	334.2
3415.168	331.2
3418.118	322.2
3421.065	305.2
3424.009	314.2
3426.951	311.2
3429.891	299.2
3432.829	279.2
3435.764	279.2
3438.697	277.2
3441.628	265.2
3444.557	264.2
3447.483	253.2
3450.407	236.2
3453.328	230.2
3456.247	227.2
3459.164	203.2
3462.079	202.2
3464.991	191.2
3467.902	184.2
3470.809	184.2
3473.715	162.2
3476.618	163.2
3479.519	153.2
3482.418	145.2
3485.315	139.2
3488.209	135.2
3491.101	133.2
3493.99	131.2
3496.878	117.2
3499.763	110.2
3502.646	105.2
3505.527	90.2
3508.405	95.2
3511.281	92.2
3514.155	78.2
3517.027	81.2
3519.897	66.2
3522.764	55.2
3525.629	42.2
3528.492	40.2
3531.352	39.2
3534.211	33.2
3537.067	23.2
3539.921	16.2
3542.773	12.2
3545.622	2.2
3548.469	5.2
3551.315	-2.8
3554.157	-1.8
3556.998	-15.8
3559.837	-12.8
3562.673	-13.8
3565.507	-18.8
3568.339	-25.8
3571.169	-39.8
3573.996	-30.8
3576.822	-32.8
3579.645	-31.8
3582.466	-38.8
3585.285	-52.8
3588.101	-39.8
3590.916	-49.8
3593.728	-62.8
3596.538	-55.8
3599.346	-59.8
3602.152	-60.8
3604.956	-59.8
3607.757	-63.8
3610.556	-70.8
3613.354	-69.8
3616.149	-75.8
3618.942	-80.8
3621.732	-74.8
3624.521	-77.8
3627.307	-78.8
3630.092	-78.8
3632.874	-81.8
3635.654	-90.8
3638.432	-82.8
3641.208	-84.8
3643.982	-93.8
3646.753	-92.8
3649.523	-95.8
3652.29	-94.8
3655.055	-97.8
3657.818	-99.8
3660.579	-96.8
3663.338	-100.8
3666.095	-98.8
3668.849	-104.8
3671.602	-105.8
3674.352	-114.8
3677.101	-110.8
3679.847	-109.8
3682.591	-114.8
3685.333	-105.8
3688.073	-107.8
3690.811	-110.8
3693.547	-123.8
3696.281	-115.8
3699.013	-117.8
3701.742	-121.8
3704.47	-118.8
3707.195	-115.8
3709.919	-120.8
3712.64	-121.8
3715.359	-122.8
3718.076	-119.8
3720.792	-126.8
3723.505	-127.8
3726.216	-121.8
3728.925	-123.8
3731.632	-120.8
3734.336	-132.8
3737.039	-125.8
3739.74	-131.8
3742.439	-135.8
3745.136	-125.8
3747.83	-131.8
3750.523	-130.8
3753.213	-126.8
3755.902	-129.8
3758.589	-134.8
3761.273	-126.8
3763.956	-126.8
3766.636	-128.8
3769.315	-127.8
3771.991	-128.8
3774.665	-136.8
3777.338	-123.8
3780.008	-127.8
3782.677	-134.8
3785.343	-126.8
3788.007	-134.8
3790.67	-135.8
3793.33	-127.8
3795.989	-130.8
3798.645	-130.8
3801.299	-134.8
3803.952	-140.8
3806.602	-127.8
3809.251	-139.8
3811.897	-134.8
3814.542	-137.8
3817.184	-132.8
3819.825	-131.8
3822.463	-129.8
3825.1	-134.8
3827.735	-134.8
3830.367	-135.8
3832.998	-136.8
3835.627	-134.8
3838.253	-128.8
3840.878	-134.8
3843.501	-126.8
3846.122	-134.8
3848.741	-141.8
3851.358	-132.8
3853.973	-131.8
3856.586	-131.8
3859.197	-135.8
3861.806	-130.8
3864.414	-135.8
3867.019	-132.8
3869.622	-136.8
3872.224	-125.8
3874.823	-113.8
3877.421	-101.8
3880.016	-75.8
3882.61	-65.8
3885.202	-60.8
3887.792	-79.8
3890.38	-105.8
3892.966	-132.8
3895.55	-136.8
3898.132	-136.8
3900.713	-128.8
3903.291	-139.8
3905.868	-137.8
3908.442	-128.8
3911.015	-136.8
3913.586	-135.8
3916.155	-142.8
3918.722	-140.8
3921.287	-139.8
3923.85	-132.8
3926.411	-137.8
3928.971	-135.8
3931.528	-141.8
3934.084	-134.8
3936.638	-132.8
3939.19	-141.8
3941.74	-138.8
3944.288	-130.8
3946.834	-133.8
3949.378	-134.8
3951.921	-134.8
3954.462	-146.8
3957	-136.8
3959.537	-136.8
3962.072	-139.8
3964.606	-132.8
3967.137	-133.8
3969.667	-140.8
3972.194	-139.8
3974.72	-138.8
3977.244	-142.8
3979.766	-139.8
3982.286	-133.8
3984.805	-136.8
3987.321	-135.8
3989.836	-127.8
3992.349	-136.8
3994.86	-135.8
3997.369	-132.8
3999.877	-138.8
4002.382	-126.8
4004.886	-136.8
4007.388	-131.8
4009.888	-130.8
4012.386	-135.8
4014.883	-135.8
4017.377	-134.8
4019.87	-134.8
4022.361	-138.8
4024.85	-132.8
4027.338	-130.8
4029.823	-128.8
4032.307	-132.8
4034.789	-142.8
4037.269	-135.8
4039.747	-133.8
4042.224	-131.8
4044.699	-138.8
4047.172	-133.8
4049.643	-129.8
4052.112	-133.8
4054.58	-137.8
4057.046	-129.8
4059.51	-135.8
4061.972	-135.8
4064.432	-134.8
4066.891	-137.8
4069.348	-133.8
4071.803	-138.8
4074.256	-136.8
4076.708	-134.8
4079.158	-133.8
4081.606	-129.8
4084.052	-133.8
4086.497	-133.8
4088.939	-129.8
4091.38	-133.8
4093.819	-135.8
4096.257	-143.8
4098.693	-140.8
4101.127	-142.8
4103.559	-138.8
4105.989	18.2
4108.418	3.2
4110.845	5.2
4113.27	-2.8
4115.694	-8.8
4118.115	0.2
4120.535	-142.8
4122.954	-140.8
4125.37	-131.8
4127.785	-136.8
4130.198	-131.8
4132.609	-134.8
4135.019	-140.8
4137.427	-144.8
4139.833	-140.8
4142.237	-149.8
