Data from 2018-2-8_conc=3_n=4_RamanShift_02.txt Node
Date: Mon Mar 12 14:38:28 IST 2018
User: aro
Spectrometer: QEPB0276
Trigger mode: 0
Integration Time (sec): 3.000000E1
Scans to average: 1
Electric dark correction enabled: true
Nonlinearity correction enabled: false
Boxcar width: 0
XAxis mode: Raman Shifts
Number of Pixels in Spectrum: 1044
>>>>>Begin Spectral Data<<<<<
160.701	28.2
166.742	44.2
172.777	138.2
178.805	407.2
184.826	1079.2
190.841	2327.2
196.849	3898.2
202.85	5075.2
208.845	5547.2
214.833	5553.2
220.815	5490.2
226.789	5438.2
232.758	5455.2
238.719	5491.2
244.674	5419.2
250.623	5380.2
256.565	5316.2
262.5	5216.2
268.429	5150.2
274.351	5106.2
280.267	5080.2
286.176	5064.2
292.079	5028.2
297.975	4985.2
303.865	4987.2
309.748	4967.2
315.625	4948.2
321.495	4954.2
327.359	4945.2
333.217	4938.2
339.068	4953.2
344.912	4988.2
350.751	4970.2
356.583	4963.2
362.408	4989.2
368.227	5000.2
374.04	4994.2
379.847	5025.2
385.647	5042.2
391.44	5097.2
397.228	5066.2
403.009	5124.2
408.784	5125.2
414.553	5157.2
420.315	5151.2
426.071	5169.2
431.821	5163.2
437.565	5160.2
443.302	5151.2
449.033	5120.2
454.758	5104.2
460.477	5094.2
466.189	5048.2
471.896	5048.2
477.596	5013.2
483.29	4958.2
488.978	4971.2
494.66	4974.2
500.335	4895.2
506.005	4800.2
511.668	4605.2
517.325	4480.2
522.977	4346.2
528.622	4280.2
534.261	4219.2
539.894	4148.2
545.521	4112.2
551.141	4102.2
556.756	4076.2
562.365	4032.2
567.968	4019.2
573.565	3978.2
579.155	3979.2
584.74	3964.2
590.319	3958.2
595.892	3935.2
601.459	3931.2
607.02	3937.2
612.575	3911.2
618.124	3832.2
623.667	3842.2
629.204	3818.2
634.735	3738.2
640.261	3729.2
645.781	3685.2
651.294	3708.2
656.802	3708.2
662.304	3698.2
667.8	3669.2
673.29	3652.2
678.775	3645.2
684.254	3616.2
689.726	3614.2
695.193	3594.2
700.655	3595.2
706.11	3568.2
711.56	3549.2
717.004	3550.2
722.442	3521.2
727.874	3511.2
733.301	3464.2
738.722	3470.2
744.137	3453.2
749.547	3443.2
754.951	3459.2
760.349	3431.2
765.741	3462.2
771.128	3449.2
776.509	3466.2
781.885	3492.2
787.254	3525.2
792.618	3520.2
797.977	3516.2
803.33	3471.2
808.677	3453.2
814.019	3430.2
819.355	3400.2
824.686	3376.2
830.011	3359.2
835.33	3356.2
840.644	3342.2
845.952	3325.2
851.255	3322.2
856.552	3321.2
861.844	3311.2
867.13	3282.2
872.41	3264.2
877.686	3249.2
882.955	3212.2
888.219	3190.2
893.478	3163.2
898.731	3115.2
903.979	3085.2
909.221	3054.2
914.458	3028.2
919.69	3048.2
924.916	3052.2
930.136	3043.2
935.351	3030.2
940.561	3018.2
945.766	3036.2
950.965	3042.2
956.158	3007.2
961.347	2966.2
966.529	2931.2
971.707	2906.2
976.879	2840.2
982.046	2813.2
987.208	2803.2
992.364	2794.2
997.515	2822.2
1002.66	2857.2
1007.801	2870.2
1012.936	2870.2
1018.066	2885.2
1023.19	2882.2
1028.309	2924.2
1033.423	2907.2
1038.532	2900.2
1043.636	2869.2
1048.734	2838.2
1053.827	2805.2
1058.915	2772.2
1063.998	2754.2
1069.075	2733.2
1074.147	2753.2
1079.214	2736.2
1084.276	2758.2
1089.333	2778.2
1094.385	2778.2
1099.431	2778.2
1104.472	2761.2
1109.509	2762.2
1114.54	2743.2
1119.565	2687.2
1124.586	2651.2
1129.602	2627.2
1134.613	2600.2
1139.618	2589.2
1144.619	2577.2
1149.614	2573.2
1154.604	2586.2
1159.589	2593.2
1164.57	2592.2
1169.545	2594.2
1174.515	2614.2
1179.48	2582.2
1184.44	2578.2
1189.395	2559.2
1194.345	2514.2
1199.29	2531.2
1204.23	2514.2
1209.165	2508.2
1214.095	2528.2
1219.021	2521.2
1223.941	2565.2
1228.856	2563.2
1233.766	2568.2
1238.672	2586.2
1243.572	2562.2
1248.467	2537.2
1253.358	2544.2
1258.244	2480.2
1263.124	2441.2
1268	2407.2
1272.871	2376.2
1277.737	2361.2
1282.599	2373.2
1287.455	2322.2
1292.306	2343.2
1297.153	2362.2
1301.995	2373.2
1306.832	2396.2
1311.664	2414.2
1316.491	2424.2
1321.314	2406.2
1326.132	2375.2
1330.945	2359.2
1335.753	2311.2
1340.556	2285.2
1345.354	2244.2
1350.148	2210.2
1354.937	2188.2
1359.722	2145.2
1364.501	2118.2
1369.276	2083.2
1374.046	2035.2
1378.811	2015.2
1383.572	2006.2
1388.327	2013.2
1393.079	2023.2
1397.825	2009.2
1402.567	2023.2
1407.304	2025.2
1412.036	1992.2
1416.764	2022.2
1421.487	2026.2
1426.205	2010.2
1430.919	2012.2
1435.628	2036.2
1440.333	2060.2
1445.032	2058.2
1449.727	2086.2
1454.418	2096.2
1459.104	2085.2
1463.785	2051.2
1468.462	2046.2
1473.134	1994.2
1477.802	1947.2
1482.465	1920.2
1487.123	1864.2
1491.777	1824.2
1496.426	1850.2
1501.071	1806.2
1505.711	1803.2
1510.347	1795.2
1514.978	1796.2
1519.604	1799.2
1524.226	1794.2
1528.844	1775.2
1533.457	1764.2
1538.065	1755.2
1542.669	1760.2
1547.269	1780.2
1551.864	1751.2
1556.454	1782.2
1561.041	1787.2
1565.622	1800.2
1570.199	1803.2
1574.772	1843.2
1579.34	1847.2
1583.904	1859.2
1588.464	1899.2
1593.019	1883.2
1597.569	1901.2
1602.115	1884.2
1606.657	1877.2
1611.195	1852.2
1615.728	1870.2
1620.256	1853.2
1624.78	1865.2
1629.3	1863.2
1633.816	1884.2
1638.327	1863.2
1642.834	1870.2
1647.336	1896.2
1651.834	1887.2
1656.328	1907.2
1660.817	1896.2
1665.302	1877.2
1669.783	1823.2
1674.259	1801.2
1678.732	1752.2
1683.199	1704.2
1687.663	1651.2
1692.122	1603.2
1696.577	1541.2
1701.028	1483.2
1705.474	1435.2
1709.917	1386.2
1714.355	1343.2
1718.788	1341.2
1723.218	1352.2
1727.643	1336.2
1732.064	1350.2
1736.481	1326.2
1740.893	1284.2
1745.301	1276.2
1749.705	1234.2
1754.105	1232.2
1758.501	1199.2
1762.893	1177.2
1767.28	1174.2
1771.663	1168.2
1776.042	1141.2
1780.417	1141.2
1784.787	1120.2
1789.154	1113.2
1793.516	1105.2
1797.874	1080.2
1802.228	1088.2
1806.578	1068.2
1810.924	1046.2
1815.266	1048.2
1819.603	1041.2
1823.937	1034.2
1828.266	1025.2
1832.591	1033.2
1836.913	1032.2
1841.23	1026.2
1845.543	1046.2
1849.852	1031.2
1854.156	1041.2
1858.457	1029.2
1862.754	1039.2
1867.047	1036.2
1871.335	1041.2
1875.62	1048.2
1879.9	1031.2
1884.177	1021.2
1888.449	1001.2
1892.718	1005.2
1896.982	984.2
1901.243	960.2
1905.499	969.2
1909.752	956.2
1914	942.2
1918.245	926.2
1922.485	909.2
1926.722	925.2
1930.954	900.2
1935.183	895.2
1939.408	894.2
1943.628	911.2
1947.845	888.2
1952.058	885.2
1956.267	869.2
1960.472	853.2
1964.673	848.2
1968.87	851.2
1973.063	851.2
1977.252	836.2
1981.438	837.2
1985.619	833.2
1989.797	831.2
1993.971	849.2
1998.14	845.2
2002.306	830.2
2006.469	842.2
2010.627	833.2
2014.781	850.2
2018.932	840.2
2023.078	848.2
2027.221	850.2
2031.36	835.2
2035.495	813.2
2039.627	807.2
2043.754	781.2
2047.878	783.2
2051.998	774.2
2056.114	782.2
2060.226	777.2
2064.334	775.2
2068.439	765.2
2072.54	773.2
2076.637	757.2
2080.73	750.2
2084.82	747.2
2088.906	760.2
2092.988	757.2
2097.066	741.2
2101.14	727.2
2105.211	731.2
2109.278	695.2
2113.342	703.2
2117.401	693.2
2121.457	689.2
2125.509	687.2
2129.558	686.2
2133.602	682.2
2137.643	675.2
2141.681	685.2
2145.714	685.2
2149.744	672.2
2153.77	670.2
2157.793	689.2
2161.812	671.2
2165.827	651.2
2169.838	657.2
2173.846	634.2
2177.851	630.2
2181.851	620.2
2185.848	625.2
2189.841	616.2
2193.831	621.2
2197.817	614.2
2201.799	596.2
2205.778	596.2
2209.753	591.2
2213.725	591.2
2217.693	595.2
2221.657	593.2
2225.618	597.2
2229.575	593.2
2233.529	583.2
2237.479	579.2
2241.425	570.2
2245.368	561.2
2249.307	559.2
2253.243	545.2
2257.175	533.2
2261.104	534.2
2265.029	524.2
2268.95	532.2
2272.868	521.2
2276.783	499.2
2280.694	491.2
2284.601	506.2
2288.505	486.2
2292.405	487.2
2296.302	480.2
2300.195	485.2
2304.085	470.2
2307.971	464.2
2311.854	462.2
2315.734	439.2
2319.609	437.2
2323.482	428.2
2327.351	437.2
2331.216	445.2
2335.078	455.2
2338.937	440.2
2342.792	410.2
2346.643	420.2
2350.492	419.2
2354.336	407.2
2358.178	409.2
2362.015	419.2
2365.85	422.2
2369.681	415.2
2373.508	423.2
2377.333	421.2
2381.153	426.2
2384.971	418.2
2388.785	421.2
2392.595	395.2
2396.402	401.2
2400.206	405.2
2404.007	412.2
2407.804	409.2
2411.597	396.2
2415.388	395.2
2419.174	390.2
2422.958	387.2
2426.738	386.2
2430.515	382.2
2434.289	385.2
2438.059	381.2
2441.825	374.2
2445.589	373.2
2449.349	347.2
2453.106	357.2
2456.859	360.2
2460.61	357.2
2464.356	343.2
2468.1	338.2
2471.84	339.2
2475.577	346.2
2479.311	331.2
2483.041	330.2
2486.768	332.2
2490.492	315.2
2494.213	327.2
2497.93	323.2
2501.644	329.2
2505.355	313.2
2509.062	318.2
2512.766	318.2
2516.467	312.2
2520.165	306.2
2523.859	305.2
2527.551	298.2
2531.239	281.2
2534.923	280.2
2538.605	286.2
2542.283	274.2
2545.958	278.2
2549.63	265.2
2553.299	265.2
2556.964	274.2
2560.626	266.2
2564.285	255.2
2567.941	261.2
2571.594	259.2
2575.243	255.2
2578.89	246.2
2582.533	240.2
2586.173	248.2
2589.809	231.2
2593.443	231.2
2597.073	229.2
2600.701	229.2
2604.325	226.2
2607.946	230.2
2611.564	221.2
2615.178	224.2
2618.79	220.2
2622.398	228.2
2626.004	226.2
2629.606	225.2
2633.205	220.2
2636.801	211.2
2640.394	206.2
2643.983	210.2
2647.57	211.2
2651.153	207.2
2654.734	210.2
2658.311	199.2
2661.885	191.2
2665.456	200.2
2669.025	202.2
2672.589	194.2
2676.151	185.2
2679.71	190.2
2683.266	187.2
2686.819	192.2
2690.368	183.2
2693.915	180.2
2697.458	171.2
2700.999	176.2
2704.536	173.2
2708.071	167.2
2711.602	160.2
2715.13	157.2
2718.656	154.2
2722.178	159.2
2725.697	149.2
2729.214	144.2
2732.727	154.2
2736.237	143.2
2739.744	138.2
2743.249	138.2
2746.75	142.2
2750.248	143.2
2753.743	134.2
2757.236	133.2
2760.725	118.2
2764.211	129.2
2767.695	118.2
2771.175	119.2
2774.652	117.2
2778.127	114.2
2781.598	112.2
2785.067	126.2
2788.532	115.2
2791.995	122.2
2795.455	113.2
2798.911	119.2
2802.365	127.2
2805.816	128.2
2809.264	120.2
2812.709	121.2
2816.151	122.2
2819.59	122.2
2823.026	114.2
2826.46	118.2
2829.89	119.2
2833.318	119.2
2836.742	122.2
2840.164	124.2
2843.583	130.2
2846.999	123.2
2850.412	122.2
2853.822	121.2
2857.229	122.2
2860.634	136.2
2864.035	131.2
2867.434	137.2
2870.83	150.2
2874.223	150.2
2877.613	151.2
2881	163.2
2884.385	165.2
2887.766	162.2
2891.145	160.2
2894.521	168.2
2897.894	162.2
2901.264	162.2
2904.631	158.2
2907.996	177.2
2911.358	164.2
2914.717	166.2
2918.073	177.2
2921.426	182.2
2924.777	197.2
2928.124	194.2
2931.469	193.2
2934.811	196.2
2938.15	211.2
2941.487	211.2
2944.821	215.2
2948.152	209.2
2951.48	213.2
2954.805	221.2
2958.128	224.2
2961.447	204.2
2964.765	210.2
2968.079	203.2
2971.39	214.2
2974.699	212.2
2978.005	210.2
2981.308	217.2
2984.609	201.2
2987.907	211.2
2991.202	220.2
2994.494	215.2
2997.784	229.2
3001.07	234.2
3004.355	239.2
3007.636	238.2
3010.915	237.2
3014.191	236.2
3017.464	235.2
3020.734	241.2
3024.002	241.2
3027.267	254.2
3030.53	260.2
3033.789	272.2
3037.046	264.2
3040.301	269.2
3043.552	279.2
3046.801	297.2
3050.048	300.2
3053.291	303.2
3056.532	324.2
3059.771	337.2
3063.006	337.2
3066.239	351.2
3069.469	356.2
3072.697	380.2
3075.922	377.2
3079.144	399.2
3082.364	408.2
3085.581	418.2
3088.795	417.2
3092.007	427.2
3095.216	424.2
3098.423	441.2
3101.627	469.2
3104.828	471.2
3108.026	478.2
3111.222	490.2
3114.416	500.2
3117.607	506.2
3120.795	521.2
3123.98	525.2
3127.163	535.2
3130.344	564.2
3133.521	570.2
3136.696	584.2
3139.869	583.2
3143.039	599.2
3146.206	605.2
3149.371	621.2
3152.533	637.2
3155.693	631.2
3158.85	642.2
3162.005	645.2
3165.157	660.2
3168.306	650.2
3171.453	655.2
3174.597	657.2
3177.739	663.2
3180.878	668.2
3184.014	682.2
3187.149	663.2
3190.28	667.2
3193.409	680.2
3196.536	680.2
3199.659	679.2
3202.781	708.2
3205.9	695.2
3209.016	691.2
3212.13	687.2
3215.241	679.2
3218.35	680.2
3221.456	670.2
3224.56	659.2
3227.661	652.2
3230.76	651.2
3233.856	632.2
3236.95	620.2
3240.041	611.2
3243.13	609.2
3246.216	605.2
3249.3	585.2
3252.382	584.2
3255.46	580.2
3258.537	582.2
3261.611	561.2
3264.682	557.2
3267.751	578.2
3270.818	557.2
3273.882	557.2
3276.943	540.2
3280.002	551.2
3283.059	558.2
3286.113	534.2
3289.165	530.2
3292.214	545.2
3295.261	517.2
3298.306	510.2
3301.348	515.2
3304.387	515.2
3307.425	492.2
3310.459	497.2
3313.492	499.2
3316.521	476.2
3319.549	486.2
3322.574	479.2
3325.597	476.2
3328.617	472.2
3331.635	475.2
3334.65	473.2
3337.663	448.2
3340.674	461.2
3343.682	463.2
3346.688	454.2
3349.691	464.2
3352.692	455.2
3355.691	451.2
3358.687	443.2
3361.681	457.2
3364.673	444.2
3367.662	433.2
3370.649	425.2
3373.633	428.2
3376.615	418.2
3379.595	407.2
3382.572	397.2
3385.547	396.2
3388.52	386.2
3391.49	381.2
3394.458	377.2
3397.424	373.2
3400.387	363.2
3403.348	362.2
3406.307	341.2
3409.263	346.2
3412.217	336.2
3415.168	340.2
3418.118	342.2
3421.065	329.2
3424.009	322.2
3426.951	312.2
3429.891	315.2
3432.829	299.2
3435.764	289.2
3438.697	279.2
3441.628	274.2
3444.557	268.2
3447.483	254.2
3450.407	249.2
3453.328	231.2
3456.247	227.2
3459.164	212.2
3462.079	214.2
3464.991	204.2
3467.902	194.2
3470.809	197.2
3473.715	174.2
3476.618	165.2
3479.519	160.2
3482.418	156.2
3485.315	148.2
3488.209	132.2
3491.101	129.2
3493.99	123.2
3496.878	127.2
3499.763	109.2
3502.646	100.2
3505.527	95.2
3508.405	92.2
3511.281	87.2
3514.155	78.2
3517.027	66.2
3519.897	63.2
3522.764	55.2
3525.629	44.2
3528.492	37.2
3531.352	29.2
3534.211	30.2
3537.067	24.2
3539.921	14.2
3542.773	4.2
3545.622	3.2
3548.469	-6.8
3551.315	-0.8
3554.157	-11.8
3556.998	-18.8
3559.837	-25.8
3562.673	-24.8
3565.507	-29.8
3568.339	-28.8
3571.169	-40.8
3573.996	-41.8
3576.822	-36.8
3579.645	-45.8
3582.466	-45.8
3585.285	-55.8
3588.101	-48.8
3590.916	-60.8
3593.728	-68.8
3596.538	-65.8
3599.346	-66.8
3602.152	-69.8
3604.956	-69.8
3607.757	-69.8
3610.556	-73.8
3613.354	-74.8
3616.149	-90.8
3618.942	-94.8
3621.732	-85.8
3624.521	-88.8
3627.307	-62.8
3630.092	44.2
3632.874	-69.8
3635.654	-92.8
3638.432	-92.8
3641.208	-89.8
3643.982	-103.8
3646.753	-110.8
3649.523	-107.8
3652.29	-105.8
3655.055	-103.8
3657.818	-103.8
3660.579	-102.8
3663.338	-110.8
3666.095	-107.8
3668.849	-117.8
3671.602	-115.8
3674.352	-115.8
3677.101	-119.8
3679.847	-120.8
3682.591	-119.8
3685.333	-118.8
3688.073	-124.8
3690.811	-128.8
3693.547	-128.8
3696.281	-128.8
3699.013	-120.8
3701.742	-129.8
3704.47	-127.8
3707.195	-126.8
3709.919	-131.8
3712.64	-132.8
3715.359	-136.8
3718.076	-130.8
3720.792	-136.8
3723.505	-134.8
3726.216	-128.8
3728.925	-134.8
3731.632	-134.8
3734.336	-148.8
3737.039	-133.8
3739.74	-135.8
3742.439	-144.8
3745.136	-134.8
3747.83	-143.8
3750.523	-138.8
3753.213	-148.8
3755.902	-137.8
3758.589	-145.8
3761.273	-138.8
3763.956	-137.8
3766.636	-138.8
3769.315	-137.8
3771.991	-136.8
3774.665	-142.8
3777.338	-133.8
3780.008	-143.8
3782.677	-145.8
3785.343	-143.8
3788.007	-143.8
3790.67	-141.8
3793.33	-136.8
3795.989	-136.8
3798.645	-140.8
3801.299	-143.8
3803.952	-152.8
3806.602	-142.8
3809.251	-148.8
3811.897	-147.8
3814.542	-141.8
3817.184	-140.8
3819.825	-145.8
3822.463	-142.8
3825.1	-146.8
3827.735	-142.8
3830.367	-148.8
3832.998	-147.8
3835.627	-144.8
3838.253	-139.8
3840.878	-143.8
3843.501	-138.8
3846.122	-148.8
3848.741	-152.8
3851.358	-141.8
3853.973	-146.8
3856.586	-141.8
3859.197	-149.8
3861.806	-142.8
3864.414	-144.8
3867.019	-139.8
3869.622	-143.8
3872.224	-136.8
3874.823	-118.8
3877.421	-109.8
3880.016	-77.8
3882.61	-52.8
3885.202	-41.8
3887.792	-69.8
3890.38	-101.8
3892.966	-133.8
3895.55	-138.8
3898.132	-139.8
3900.713	-140.8
3903.291	-150.8
3905.868	-144.8
3908.442	-138.8
3911.015	-149.8
3913.586	-148.8
3916.155	-154.8
3918.722	-153.8
3921.287	-145.8
3923.85	-143.8
3926.411	-144.8
3928.971	-149.8
3931.528	-146.8
3934.084	-146.8
3936.638	-144.8
3939.19	-150.8
3941.74	-149.8
3944.288	-146.8
3946.834	-140.8
3949.378	-147.8
3951.921	-154.8
3954.462	-156.8
3957	-150.8
3959.537	-142.8
3962.072	-149.8
3964.606	-139.8
3967.137	-145.8
3969.667	-144.8
3972.194	-149.8
3974.72	-147.8
3977.244	-146.8
3979.766	-151.8
3982.286	-148.8
3984.805	-147.8
3987.321	-145.8
3989.836	-137.8
3992.349	-144.8
3994.86	-145.8
3997.369	-147.8
3999.877	-147.8
4002.382	-142.8
4004.886	-150.8
4007.388	-145.8
4009.888	-142.8
4012.386	-145.8
4014.883	-143.8
4017.377	-143.8
4019.87	-142.8
4022.361	-146.8
4024.85	-145.8
4027.338	-143.8
4029.823	-144.8
4032.307	-139.8
4034.789	-145.8
4037.269	-147.8
4039.747	-143.8
4042.224	-139.8
4044.699	-144.8
4047.172	-138.8
4049.643	-141.8
4052.112	-143.8
4054.58	-146.8
4057.046	-148.8
4059.51	-149.8
4061.972	-144.8
4064.432	-146.8
4066.891	-140.8
4069.348	-141.8
4071.803	-152.8
4074.256	-146.8
4076.708	-146.8
4079.158	-148.8
4081.606	-137.8
4084.052	-145.8
4086.497	-141.8
4088.939	-136.8
4091.38	-146.8
4093.819	-148.8
4096.257	-153.8
4098.693	-150.8
4101.127	-151.8
4103.559	-149.8
4105.989	19.2
4108.418	8.2
4110.845	2.2
4113.27	5.2
4115.694	1.2
4118.115	-11.8
4120.535	-147.8
4122.954	-150.8
4125.37	-145.8
4127.785	-148.8
4130.198	-142.8
4132.609	-142.8
4135.019	-153.8
4137.427	-152.8
4139.833	-154.8
4142.237	-156.8
