Data from 2018-2-8_conc=0_n=4_RamanShift_04.txt Node
Date: Mon Mar 12 13:30:59 IST 2018
User: aro
Spectrometer: QEPB0276
Trigger mode: 0
Integration Time (sec): 3.000000E1
Scans to average: 1
Electric dark correction enabled: true
Nonlinearity correction enabled: false
Boxcar width: 0
XAxis mode: Raman Shifts
Number of Pixels in Spectrum: 1044
>>>>>Begin Spectral Data<<<<<
160.701	22.4
166.742	46.4
172.777	133.4
178.805	406.4
184.826	1095.4
190.841	2328.4
196.849	3922.4
202.85	5097.4
208.845	5609.4
214.833	5591.4
220.815	5542.4
226.789	5487.4
232.758	5526.4
238.719	5517.4
244.674	5483.4
250.623	5403.4
256.565	5343.4
262.5	5269.4
268.429	5194.4
274.351	5169.4
280.267	5139.4
286.176	5093.4
292.079	5073.4
297.975	5041.4
303.865	5058.4
309.748	5037.4
315.625	5001.4
321.495	5015.4
327.359	5006.4
333.217	4991.4
339.068	4990.4
344.912	4989.4
350.751	5026.4
356.583	5043.4
362.408	5077.4
368.227	5046.4
374.04	5025.4
379.847	5091.4
385.647	5094.4
391.44	5112.4
397.228	5110.4
403.009	5165.4
408.784	5165.4
414.553	5202.4
420.315	5229.4
426.071	5236.4
431.821	5196.4
437.565	5263.4
443.302	5212.4
449.033	5157.4
454.758	5191.4
460.477	5148.4
466.189	5118.4
471.896	5061.4
477.596	5056.4
483.29	5024.4
488.978	5016.4
494.66	5018.4
500.335	4954.4
506.005	4824.4
511.668	4680.4
517.325	4481.4
522.977	4409.4
528.622	4316.4
534.261	4261.4
539.894	4220.4
545.521	4173.4
551.141	4145.4
556.756	4125.4
562.365	4101.4
567.968	4043.4
573.565	4042.4
579.155	4003.4
584.74	4010.4
590.319	3999.4
595.892	4010.4
601.459	3998.4
607.02	3983.4
612.575	3924.4
618.124	3898.4
623.667	3863.4
629.204	3833.4
634.735	3789.4
640.261	3807.4
645.781	3783.4
651.294	3758.4
656.802	3756.4
662.304	3707.4
667.8	3692.4
673.29	3702.4
678.775	3698.4
684.254	3697.4
689.726	3685.4
695.193	3661.4
700.655	3647.4
706.11	3618.4
711.56	3619.4
717.004	3596.4
722.442	3574.4
727.874	3524.4
733.301	3545.4
738.722	3500.4
744.137	3502.4
749.547	3497.4
754.951	3492.4
760.349	3488.4
765.741	3496.4
771.128	3524.4
776.509	3545.4
781.885	3556.4
787.254	3562.4
792.618	3554.4
797.977	3554.4
803.33	3507.4
808.677	3497.4
814.019	3484.4
819.355	3473.4
824.686	3439.4
830.011	3399.4
835.33	3389.4
840.644	3394.4
845.952	3404.4
851.255	3374.4
856.552	3369.4
861.844	3360.4
867.13	3357.4
872.41	3337.4
877.686	3320.4
882.955	3325.4
888.219	3276.4
893.478	3234.4
898.731	3174.4
903.979	3113.4
909.221	3091.4
914.458	3081.4
919.69	3093.4
924.916	3095.4
930.136	3099.4
935.351	3084.4
940.561	3096.4
945.766	3084.4
950.965	3076.4
956.158	3046.4
961.347	3000.4
966.529	2988.4
971.707	2941.4
976.879	2879.4
982.046	2866.4
987.208	2859.4
992.364	2862.4
997.515	2860.4
1002.66	2906.4
1007.801	2922.4
1012.936	2936.4
1018.066	2943.4
1023.19	2968.4
1028.309	2927.4
1033.423	2952.4
1038.532	2939.4
1043.636	2939.4
1048.734	2912.4
1053.827	2865.4
1058.915	2830.4
1063.998	2816.4
1069.075	2812.4
1074.147	2781.4
1079.214	2802.4
1084.276	2823.4
1089.333	2832.4
1094.385	2850.4
1099.431	2860.4
1104.472	2830.4
1109.509	2791.4
1114.54	2765.4
1119.565	2741.4
1124.586	2686.4
1129.602	2670.4
1134.613	2634.4
1139.618	2627.4
1144.619	2635.4
1149.614	2597.4
1154.604	2630.4
1159.589	2641.4
1164.57	2622.4
1169.545	2642.4
1174.515	2670.4
1179.48	2627.4
1184.44	2616.4
1189.395	2589.4
1194.345	2558.4
1199.29	2552.4
1204.23	2554.4
1209.165	2556.4
1214.095	2572.4
1219.021	2604.4
1223.941	2586.4
1228.856	2611.4
1233.766	2623.4
1238.672	2621.4
1243.572	2621.4
1248.467	2594.4
1253.358	2580.4
1258.244	2533.4
1263.124	2492.4
1268	2443.4
1272.871	2418.4
1277.737	2413.4
1282.599	2368.4
1287.455	2399.4
1292.306	2406.4
1297.153	2393.4
1301.995	2414.4
1306.832	2425.4
1311.664	2451.4
1316.491	2448.4
1321.314	2419.4
1326.132	2420.4
1330.945	2391.4
1335.753	2346.4
1340.556	2317.4
1345.354	2287.4
1350.148	2235.4
1354.937	2212.4
1359.722	2153.4
1364.501	2132.4
1369.276	2093.4
1374.046	2054.4
1378.811	2033.4
1383.572	2042.4
1388.327	2022.4
1393.079	2024.4
1397.825	2037.4
1402.567	2040.4
1407.304	2058.4
1412.036	2043.4
1416.764	2043.4
1421.487	2036.4
1426.205	2057.4
1430.919	2046.4
1435.628	2068.4
1440.333	2067.4
1445.032	2111.4
1449.727	2149.4
1454.418	2134.4
1459.104	2135.4
1463.785	2090.4
1468.462	2068.4
1473.134	2017.4
1477.802	1985.4
1482.465	1921.4
1487.123	1887.4
1491.777	1863.4
1496.426	1846.4
1501.071	1828.4
1505.711	1796.4
1510.347	1815.4
1514.978	1809.4
1519.604	1808.4
1524.226	1791.4
1528.844	1779.4
1533.457	1755.4
1538.065	1755.4
1542.669	1743.4
1547.269	1750.4
1551.864	1766.4
1556.454	1780.4
1561.041	1797.4
1565.622	1811.4
1570.199	1812.4
1574.772	1835.4
1579.34	1850.4
1583.904	1883.4
1588.464	1910.4
1593.019	1904.4
1597.569	1898.4
1602.115	1899.4
1606.657	1885.4
1611.195	1866.4
1615.728	1875.4
1620.256	1870.4
1624.78	1845.4
1629.3	1891.4
1633.816	1860.4
1638.327	1899.4
1642.834	1869.4
1647.336	1890.4
1651.834	1901.4
1656.328	1894.4
1660.817	1888.4
1665.302	1874.4
1669.783	1843.4
1674.259	1794.4
1678.732	1742.4
1683.199	1694.4
1687.663	1661.4
1692.122	1589.4
1696.577	1512.4
1701.028	1440.4
1705.474	1413.4
1709.917	1339.4
1714.355	1335.4
1718.788	1324.4
1723.218	1330.4
1727.643	1323.4
1732.064	1311.4
1736.481	1322.4
1740.893	1286.4
1745.301	1247.4
1749.705	1229.4
1754.105	1224.4
1758.501	1195.4
1762.893	1172.4
1767.28	1173.4
1771.663	1148.4
1776.042	1115.4
1780.417	1103.4
1784.787	1096.4
1789.154	1091.4
1793.516	1082.4
1797.874	1050.4
1802.228	1071.4
1806.578	1036.4
1810.924	1034.4
1815.266	1025.4
1819.603	1017.4
1823.937	1023.4
1828.266	1012.4
1832.591	1009.4
1836.913	1016.4
1841.23	1010.4
1845.543	1021.4
1849.852	1023.4
1854.156	1017.4
1858.457	1028.4
1862.754	1031.4
1867.047	1013.4
1871.335	1013.4
1875.62	1027.4
1879.9	1018.4
1884.177	1013.4
1888.449	1000.4
1892.718	976.4
1896.982	964.4
1901.243	960.4
1905.499	951.4
1909.752	933.4
1914	911.4
1918.245	908.4
1922.485	882.4
1926.722	886.4
1930.954	885.4
1935.183	890.4
1939.408	877.4
1943.628	859.4
1947.845	856.4
1952.058	843.4
1956.267	848.4
1960.472	837.4
1964.673	819.4
1968.87	819.4
1973.063	826.4
1977.252	801.4
1981.438	811.4
1985.619	805.4
1989.797	823.4
1993.971	815.4
1998.14	837.4
2002.306	823.4
2006.469	818.4
2010.627	820.4
2014.781	834.4
2018.932	813.4
2023.078	828.4
2027.221	816.4
2031.36	814.4
2035.495	790.4
2039.627	774.4
2043.754	772.4
2047.878	765.4
2051.998	762.4
2056.114	761.4
2060.226	762.4
2064.334	765.4
2068.439	748.4
2072.54	737.4
2076.637	745.4
2080.73	737.4
2084.82	752.4
2088.906	725.4
2092.988	723.4
2097.066	729.4
2101.14	715.4
2105.211	692.4
2109.278	692.4
2113.342	675.4
2117.401	669.4
2121.457	670.4
2125.509	659.4
2129.558	660.4
2133.602	659.4
2137.643	654.4
2141.681	674.4
2145.714	650.4
2149.744	665.4
2153.77	653.4
2157.793	650.4
2161.812	650.4
2165.827	647.4
2169.838	641.4
2173.846	629.4
2177.851	617.4
2181.851	617.4
2185.848	605.4
2189.841	605.4
2193.831	606.4
2197.817	599.4
2201.799	585.4
2205.778	593.4
2209.753	593.4
2213.725	580.4
2217.693	587.4
2221.657	588.4
2225.618	587.4
2229.575	585.4
2233.529	580.4
2237.479	585.4
2241.425	558.4
2245.368	558.4
2249.307	548.4
2253.243	550.4
2257.175	533.4
2261.104	531.4
2265.029	516.4
2268.95	509.4
2272.868	507.4
2276.783	494.4
2280.694	493.4
2284.601	483.4
2288.505	492.4
2292.405	483.4
2296.302	479.4
2300.195	464.4
2304.085	467.4
2307.971	458.4
2311.854	455.4
2315.734	439.4
2319.609	429.4
2323.482	437.4
2327.351	442.4
2331.216	445.4
2335.078	456.4
2338.937	438.4
2342.792	424.4
2346.643	413.4
2350.492	408.4
2354.336	414.4
2358.178	433.4
2362.015	427.4
2365.85	426.4
2369.681	425.4
2373.508	424.4
2377.333	422.4
2381.153	422.4
2384.971	429.4
2388.785	415.4
2392.595	420.4
2396.402	403.4
2400.206	410.4
2404.007	410.4
2407.804	406.4
2411.597	401.4
2415.388	405.4
2419.174	402.4
2422.958	388.4
2426.738	401.4
2430.515	397.4
2434.289	386.4
2438.059	394.4
2441.825	385.4
2445.589	376.4
2449.349	373.4
2453.106	376.4
2456.859	373.4
2460.61	366.4
2464.356	356.4
2468.1	361.4
2471.84	349.4
2475.577	345.4
2479.311	326.4
2483.041	328.4
2486.768	349.4
2490.492	330.4
2494.213	335.4
2497.93	332.4
2501.644	330.4
2505.355	321.4
2509.062	317.4
2512.766	320.4
2516.467	309.4
2520.165	308.4
2523.859	306.4
2527.551	299.4
2531.239	294.4
2534.923	282.4
2538.605	283.4
2542.283	277.4
2545.958	284.4
2549.63	279.4
2553.299	276.4
2556.964	271.4
2560.626	272.4
2564.285	263.4
2567.941	270.4
2571.594	266.4
2575.243	260.4
2578.89	255.4
2582.533	248.4
2586.173	250.4
2589.809	246.4
2593.443	245.4
2597.073	239.4
2600.701	231.4
2604.325	222.4
2607.946	228.4
2611.564	225.4
2615.178	231.4
2618.79	227.4
2622.398	229.4
2626.004	228.4
2629.606	213.4
2633.205	212.4
2636.801	208.4
2640.394	217.4
2643.983	214.4
2647.57	219.4
2651.153	211.4
2654.734	219.4
2658.311	197.4
2661.885	200.4
2665.456	197.4
2669.025	189.4
2672.589	199.4
2676.151	204.4
2679.71	189.4
2683.266	190.4
2686.819	187.4
2690.368	178.4
2693.915	174.4
2697.458	174.4
2700.999	184.4
2704.536	172.4
2708.071	165.4
2711.602	155.4
2715.13	168.4
2718.656	156.4
2722.178	154.4
2725.697	148.4
2729.214	152.4
2732.727	150.4
2736.237	155.4
2739.744	145.4
2743.249	142.4
2746.75	131.4
2750.248	132.4
2753.743	124.4
2757.236	126.4
2760.725	122.4
2764.211	117.4
2767.695	112.4
2771.175	116.4
2774.652	105.4
2778.127	110.4
2781.598	107.4
2785.067	122.4
2788.532	113.4
2791.995	129.4
2795.455	119.4
2798.911	116.4
2802.365	118.4
2805.816	117.4
2809.264	116.4
2812.709	128.4
2816.151	132.4
2819.59	130.4
2823.026	128.4
2826.46	122.4
2829.89	115.4
2833.318	118.4
2836.742	123.4
2840.164	128.4
2843.583	131.4
2846.999	128.4
2850.412	131.4
2853.822	131.4
2857.229	115.4
2860.634	136.4
2864.035	144.4
2867.434	140.4
2870.83	152.4
2874.223	166.4
2877.613	161.4
2881	171.4
2884.385	173.4
2887.766	161.4
2891.145	159.4
2894.521	164.4
2897.894	185.4
2901.264	174.4
2904.631	175.4
2907.996	180.4
2911.358	169.4
2914.717	174.4
2918.073	188.4
2921.426	197.4
2924.777	198.4
2928.124	197.4
2931.469	205.4
2934.811	209.4
2938.15	214.4
2941.487	229.4
2944.821	219.4
2948.152	219.4
2951.48	221.4
2954.805	227.4
2958.128	213.4
2961.447	211.4
2964.765	209.4
2968.079	200.4
2971.39	213.4
2974.699	215.4
2978.005	205.4
2981.308	216.4
2984.609	219.4
2987.907	215.4
2991.202	210.4
2994.494	217.4
2997.784	219.4
3001.07	219.4
3004.355	238.4
3007.636	230.4
3010.915	225.4
3014.191	222.4
3017.464	234.4
3020.734	227.4
3024.002	235.4
3027.267	250.4
3030.53	251.4
3033.789	251.4
3037.046	256.4
3040.301	263.4
3043.552	270.4
3046.801	281.4
3050.048	288.4
3053.291	291.4
3056.532	318.4
3059.771	332.4
3063.006	334.4
3066.239	354.4
3069.469	357.4
3072.697	361.4
3075.922	374.4
3079.144	387.4
3082.364	406.4
3085.581	413.4
3088.795	410.4
3092.007	410.4
3095.216	429.4
3098.423	434.4
3101.627	446.4
3104.828	457.4
3108.026	464.4
3111.222	485.4
3114.416	478.4
3117.607	490.4
3120.795	505.4
3123.98	524.4
3127.163	527.4
3130.344	554.4
3133.521	546.4
3136.696	574.4
3139.869	587.4
3143.039	582.4
3146.206	596.4
3149.371	600.4
3152.533	610.4
3155.693	619.4
3158.85	621.4
3162.005	626.4
3165.157	637.4
3168.306	622.4
3171.453	627.4
3174.597	626.4
3177.739	635.4
3180.878	645.4
3184.014	642.4
3187.149	658.4
3190.28	649.4
3193.409	641.4
3196.536	649.4
3199.659	654.4
3202.781	664.4
3205.9	654.4
3209.016	645.4
3212.13	656.4
3215.241	650.4
3218.35	650.4
3221.456	638.4
3224.56	639.4
3227.661	612.4
3230.76	626.4
3233.856	600.4
3236.95	592.4
3240.041	597.4
3243.13	576.4
3246.216	568.4
3249.3	553.4
3252.382	547.4
3255.46	547.4
3258.537	540.4
3261.611	538.4
3264.682	531.4
3267.751	525.4
3270.818	528.4
3273.882	523.4
3276.943	522.4
3280.002	515.4
3283.059	512.4
3286.113	514.4
3289.165	495.4
3292.214	496.4
3295.261	484.4
3298.306	494.4
3301.348	471.4
3304.387	473.4
3307.425	468.4
3310.459	473.4
3313.492	457.4
3316.521	455.4
3319.549	452.4
3322.574	444.4
3325.597	453.4
3328.617	456.4
3331.635	454.4
3334.65	443.4
3337.663	436.4
3340.674	435.4
3343.682	435.4
3346.688	439.4
3349.691	430.4
3352.692	428.4
3355.691	441.4
3358.687	430.4
3361.681	427.4
3364.673	424.4
3367.662	411.4
3370.649	400.4
3373.633	400.4
3376.615	388.4
3379.595	374.4
3382.572	389.4
3385.547	380.4
3388.52	372.4
3391.49	354.4
3394.458	357.4
3397.424	338.4
3400.387	345.4
3403.348	346.4
3406.307	333.4
3409.263	332.4
3412.217	337.4
3415.168	317.4
3418.118	312.4
3421.065	308.4
3424.009	311.4
3426.951	304.4
3429.891	291.4
3432.829	286.4
3435.764	278.4
3438.697	271.4
3441.628	259.4
3444.557	252.4
3447.483	243.4
3450.407	229.4
3453.328	216.4
3456.247	211.4
3459.164	198.4
3462.079	198.4
3464.991	187.4
3467.902	183.4
3470.809	176.4
3473.715	158.4
3476.618	152.4
3479.519	148.4
3482.418	144.4
3485.315	123.4
3488.209	129.4
3491.101	116.4
3493.99	125.4
3496.878	107.4
3499.763	97.4
3502.646	95.4
3505.527	80.4
3508.405	88.4
3511.281	80.4
3514.155	64.4
3517.027	56.4
3519.897	50.4
3522.764	42.4
3525.629	38.4
3528.492	31.4
3531.352	21.4
3534.211	15.4
3537.067	18.4
3539.921	7.4
3542.773	6.4
3545.622	-6.6
3548.469	-20.6
3551.315	-10.6
3554.157	-21.6
3556.998	-15.6
3559.837	-24.6
3562.673	-26.6
3565.507	-28.6
3568.339	-36.6
3571.169	-46.6
3573.996	-42.6
3576.822	-42.6
3579.645	-45.6
3582.466	-45.6
3585.285	-48.6
3588.101	-52.6
3590.916	-60.6
3593.728	-71.6
3596.538	-61.6
3599.346	-67.6
3602.152	-67.6
3604.956	-69.6
3607.757	-71.6
3610.556	-75.6
3613.354	-77.6
3616.149	-91.6
3618.942	-90.6
3621.732	-89.6
3624.521	-87.6
3627.307	-87.6
3630.092	-86.6
3632.874	-93.6
3635.654	-101.6
3638.432	-96.6
3641.208	-98.6
3643.982	-101.6
3646.753	-100.6
3649.523	-107.6
3652.29	-100.6
3655.055	-103.6
3657.818	-108.6
3660.579	-105.6
3663.338	-110.6
3666.095	-112.6
3668.849	-114.6
3671.602	-117.6
3674.352	-113.6
3677.101	-120.6
3679.847	-119.6
3682.591	-122.6
3685.333	-122.6
3688.073	-121.6
3690.811	-126.6
3693.547	-134.6
3696.281	-124.6
3699.013	-122.6
3701.742	-129.6
3704.47	-127.6
3707.195	-125.6
3709.919	-129.6
3712.64	-135.6
3715.359	-133.6
3718.076	-131.6
3720.792	-134.6
3723.505	-137.6
3726.216	-128.6
3728.925	-134.6
3731.632	-132.6
3734.336	-145.6
3737.039	-133.6
3739.74	-136.6
3742.439	-141.6
3745.136	-130.6
3747.83	-139.6
3750.523	-135.6
3753.213	-138.6
3755.902	-139.6
3758.589	-145.6
3761.273	-139.6
3763.956	-135.6
3766.636	-138.6
3769.315	-133.6
3771.991	-137.6
3774.665	-141.6
3777.338	-137.6
3780.008	-142.6
3782.677	-141.6
3785.343	-136.6
3788.007	-141.6
3790.67	-144.6
3793.33	-136.6
3795.989	-142.6
3798.645	-138.6
3801.299	-143.6
3803.952	-143.6
3806.602	-138.6
3809.251	-146.6
3811.897	-144.6
3814.542	-146.6
3817.184	-142.6
3819.825	-140.6
3822.463	-143.6
3825.1	-142.6
3827.735	-144.6
3830.367	-144.6
3832.998	-149.6
3835.627	-142.6
3838.253	-141.6
3840.878	-147.6
3843.501	-144.6
3846.122	-146.6
3848.741	-147.6
3851.358	-142.6
3853.973	-145.6
3856.586	-142.6
3859.197	-148.6
3861.806	-140.6
3864.414	-142.6
3867.019	-144.6
3869.622	-146.6
3872.224	-132.6
3874.823	-119.6
3877.421	-105.6
3880.016	-75.6
3882.61	-54.6
3885.202	-49.6
3887.792	-71.6
3890.38	-106.6
3892.966	-123.6
3895.55	-133.6
3898.132	-138.6
3900.713	-146.6
3903.291	-149.6
3905.868	-149.6
3908.442	-139.6
3911.015	-148.6
3913.586	-145.6
3916.155	-154.6
3918.722	-144.6
3921.287	-146.6
3923.85	-143.6
3926.411	-148.6
3928.971	-148.6
3931.528	-151.6
3934.084	-145.6
3936.638	-141.6
3939.19	-150.6
3941.74	-145.6
3944.288	-144.6
3946.834	-148.6
3949.378	-146.6
3951.921	-153.6
3954.462	-155.6
3957	-150.6
3959.537	-138.6
3962.072	-145.6
3964.606	-139.6
3967.137	-148.6
3969.667	-147.6
3972.194	-149.6
3974.72	-148.6
3977.244	-147.6
3979.766	-150.6
3982.286	-146.6
3984.805	-145.6
3987.321	-143.6
3989.836	-140.6
3992.349	-145.6
3994.86	-149.6
3997.369	-142.6
3999.877	-146.6
4002.382	-139.6
4004.886	-142.6
4007.388	-148.6
4009.888	-142.6
4012.386	-147.6
4014.883	-147.6
4017.377	-143.6
4019.87	-144.6
4022.361	-146.6
4024.85	-147.6
4027.338	-141.6
4029.823	-144.6
4032.307	-142.6
4034.789	-147.6
4037.269	-146.6
4039.747	-139.6
4042.224	-141.6
4044.699	-151.6
4047.172	-143.6
4049.643	-142.6
4052.112	-151.6
4054.58	-149.6
4057.046	-145.6
4059.51	-148.6
4061.972	-140.6
4064.432	-143.6
4066.891	-147.6
4069.348	-144.6
4071.803	-152.6
4074.256	-151.6
4076.708	-143.6
4079.158	-143.6
4081.606	-134.6
4084.052	-146.6
4086.497	-142.6
4088.939	-137.6
4091.38	-145.6
4093.819	-142.6
4096.257	-153.6
4098.693	-147.6
4101.127	-151.6
4103.559	-148.6
4105.989	10.4
4108.418	3.4
4110.845	3.4
4113.27	-3.6
4115.694	-4.6
4118.115	3.4
4120.535	-145.6
4122.954	-143.6
4125.37	-139.6
4127.785	-138.6
4130.198	-143.6
4132.609	-145.6
4135.019	-151.6
4137.427	-155.6
4139.833	-152.6
4142.237	-148.6
