Data from 2018-2-8_conc=2_n=9_RamanShift_01.txt Node
Date: Mon Mar 12 14:21:58 IST 2018
User: aro
Spectrometer: QEPB0276
Trigger mode: 0
Integration Time (sec): 3.000000E1
Scans to average: 1
Electric dark correction enabled: true
Nonlinearity correction enabled: false
Boxcar width: 0
XAxis mode: Raman Shifts
Number of Pixels in Spectrum: 1044
>>>>>Begin Spectral Data<<<<<
160.701	24.6
166.742	51.6
172.777	120.6
178.805	360.6
184.826	968.6
190.841	2023.6
196.849	3360.6
202.85	4436.6
208.845	4857.6
214.833	4820.6
220.815	4774.6
226.789	4742.6
232.758	4738.6
238.719	4723.6
244.674	4699.6
250.623	4681.6
256.565	4575.6
262.5	4543.6
268.429	4461.6
274.351	4464.6
280.267	4394.6
286.176	4368.6
292.079	4387.6
297.975	4353.6
303.865	4341.6
309.748	4339.6
315.625	4315.6
321.495	4320.6
327.359	4323.6
333.217	4319.6
339.068	4313.6
344.912	4323.6
350.751	4334.6
356.583	4357.6
362.408	4347.6
368.227	4359.6
374.04	4361.6
379.847	4392.6
385.647	4401.6
391.44	4441.6
397.228	4465.6
403.009	4509.6
408.784	4514.6
414.553	4517.6
420.315	4518.6
426.071	4554.6
431.821	4540.6
437.565	4519.6
443.302	4503.6
449.033	4493.6
454.758	4482.6
460.477	4461.6
466.189	4434.6
471.896	4380.6
477.596	4372.6
483.29	4361.6
488.978	4345.6
494.66	4338.6
500.335	4263.6
506.005	4134.6
511.668	3983.6
517.325	3862.6
522.977	3771.6
528.622	3669.6
534.261	3609.6
539.894	3567.6
545.521	3522.6
551.141	3498.6
556.756	3481.6
562.365	3435.6
567.968	3412.6
573.565	3404.6
579.155	3389.6
584.74	3387.6
590.319	3347.6
595.892	3361.6
601.459	3334.6
607.02	3330.6
612.575	3317.6
618.124	3295.6
623.667	3240.6
629.204	3223.6
634.735	3195.6
640.261	3158.6
645.781	3134.6
651.294	3147.6
656.802	3117.6
662.304	3120.6
667.8	3089.6
673.29	3082.6
678.775	3103.6
684.254	3079.6
689.726	3084.6
695.193	3067.6
700.655	3045.6
706.11	3023.6
711.56	3021.6
717.004	2978.6
722.442	2995.6
727.874	2973.6
733.301	2952.6
738.722	2948.6
744.137	2923.6
749.547	2934.6
754.951	2925.6
760.349	2940.6
765.741	2929.6
771.128	2940.6
776.509	2977.6
781.885	2988.6
787.254	2988.6
792.618	3011.6
797.977	2966.6
803.33	2966.6
808.677	2947.6
814.019	2936.6
819.355	2910.6
824.686	2882.6
830.011	2856.6
835.33	2860.6
840.644	2861.6
845.952	2839.6
851.255	2836.6
856.552	2830.6
861.844	2816.6
867.13	2791.6
872.41	2791.6
877.686	2742.6
882.955	2721.6
888.219	2684.6
893.478	2686.6
898.731	2631.6
903.979	2598.6
909.221	2565.6
914.458	2556.6
919.69	2555.6
924.916	2549.6
930.136	2568.6
935.351	2567.6
940.561	2576.6
945.766	2574.6
950.965	2569.6
956.158	2538.6
961.347	2517.6
966.529	2481.6
971.707	2439.6
976.879	2404.6
982.046	2373.6
987.208	2378.6
992.364	2382.6
997.515	2406.6
1002.66	2401.6
1007.801	2434.6
1012.936	2442.6
1018.066	2460.6
1023.19	2457.6
1028.309	2455.6
1033.423	2454.6
1038.532	2445.6
1043.636	2438.6
1048.734	2389.6
1053.827	2365.6
1058.915	2329.6
1063.998	2313.6
1069.075	2325.6
1074.147	2334.6
1079.214	2334.6
1084.276	2360.6
1089.333	2348.6
1094.385	2358.6
1099.431	2368.6
1104.472	2348.6
1109.509	2338.6
1114.54	2313.6
1119.565	2256.6
1124.586	2260.6
1129.602	2219.6
1134.613	2203.6
1139.618	2186.6
1144.619	2199.6
1149.614	2168.6
1154.604	2180.6
1159.589	2219.6
1164.57	2191.6
1169.545	2209.6
1174.515	2213.6
1179.48	2190.6
1184.44	2171.6
1189.395	2153.6
1194.345	2160.6
1199.29	2134.6
1204.23	2130.6
1209.165	2130.6
1214.095	2148.6
1219.021	2157.6
1223.941	2185.6
1228.856	2157.6
1233.766	2175.6
1238.672	2182.6
1243.572	2193.6
1248.467	2175.6
1253.358	2146.6
1258.244	2117.6
1263.124	2063.6
1268	2034.6
1272.871	2008.6
1277.737	1994.6
1282.599	1991.6
1287.455	1988.6
1292.306	2000.6
1297.153	1995.6
1301.995	2014.6
1306.832	2016.6
1311.664	2046.6
1316.491	2058.6
1321.314	2025.6
1326.132	2007.6
1330.945	1990.6
1335.753	1948.6
1340.556	1945.6
1345.354	1903.6
1350.148	1872.6
1354.937	1852.6
1359.722	1803.6
1364.501	1791.6
1369.276	1769.6
1374.046	1713.6
1378.811	1716.6
1383.572	1696.6
1388.327	1710.6
1393.079	1697.6
1397.825	1698.6
1402.567	1709.6
1407.304	1693.6
1412.036	1691.6
1416.764	1715.6
1421.487	1725.6
1426.205	1709.6
1430.919	1707.6
1435.628	1726.6
1440.333	1735.6
1445.032	1756.6
1449.727	1777.6
1454.418	1789.6
1459.104	1781.6
1463.785	1741.6
1468.462	1711.6
1473.134	1686.6
1477.802	1658.6
1482.465	1628.6
1487.123	1574.6
1491.777	1560.6
1496.426	1552.6
1501.071	1547.6
1505.711	1516.6
1510.347	1513.6
1514.978	1533.6
1519.604	1511.6
1524.226	1532.6
1528.844	1504.6
1533.457	1513.6
1538.065	1484.6
1542.669	1499.6
1547.269	1479.6
1551.864	1486.6
1556.454	1498.6
1561.041	1530.6
1565.622	1531.6
1570.199	1529.6
1574.772	1551.6
1579.34	1555.6
1583.904	1580.6
1588.464	1604.6
1593.019	1578.6
1597.569	1611.6
1602.115	1609.6
1606.657	1587.6
1611.195	1591.6
1615.728	1579.6
1620.256	1587.6
1624.78	1584.6
1629.3	1603.6
1633.816	1589.6
1638.327	1627.6
1642.834	1606.6
1647.336	1618.6
1651.834	1607.6
1656.328	1620.6
1660.817	1604.6
1665.302	1595.6
1669.783	1566.6
1674.259	1525.6
1678.732	1499.6
1683.199	1467.6
1687.663	1404.6
1692.122	1371.6
1696.577	1313.6
1701.028	1245.6
1705.474	1222.6
1709.917	1157.6
1714.355	1163.6
1718.788	1151.6
1723.218	1128.6
1727.643	1137.6
1732.064	1129.6
1736.481	1126.6
1740.893	1108.6
1745.301	1079.6
1749.705	1048.6
1754.105	1039.6
1758.501	1007.6
1762.893	1016.6
1767.28	1002.6
1771.663	986.6
1776.042	983.6
1780.417	958.6
1784.787	949.6
1789.154	943.6
1793.516	941.6
1797.874	923.6
1802.228	914.6
1806.578	906.6
1810.924	896.6
1815.266	881.6
1819.603	895.6
1823.937	878.6
1828.266	874.6
1832.591	873.6
1836.913	873.6
1841.23	887.6
1845.543	882.6
1849.852	875.6
1854.156	868.6
1858.457	873.6
1862.754	876.6
1867.047	877.6
1871.335	875.6
1875.62	876.6
1879.9	885.6
1884.177	865.6
1888.449	844.6
1892.718	851.6
1896.982	840.6
1901.243	823.6
1905.499	816.6
1909.752	803.6
1914	801.6
1918.245	790.6
1922.485	784.6
1926.722	780.6
1930.954	759.6
1935.183	754.6
1939.408	752.6
1943.628	761.6
1947.845	757.6
1952.058	752.6
1956.267	746.6
1960.472	742.6
1964.673	726.6
1968.87	714.6
1973.063	719.6
1977.252	723.6
1981.438	708.6
1985.619	711.6
1989.797	696.6
1993.971	710.6
1998.14	704.6
2002.306	700.6
2006.469	720.6
2010.627	705.6
2014.781	711.6
2018.932	703.6
2023.078	715.6
2027.221	705.6
2031.36	702.6
2035.495	696.6
2039.627	690.6
2043.754	670.6
2047.878	668.6
2051.998	660.6
2056.114	667.6
2060.226	662.6
2064.334	664.6
2068.439	646.6
2072.54	644.6
2076.637	657.6
2080.73	652.6
2084.82	643.6
2088.906	637.6
2092.988	627.6
2097.066	626.6
2101.14	602.6
2105.211	612.6
2109.278	603.6
2113.342	590.6
2117.401	580.6
2121.457	585.6
2125.509	582.6
2129.558	570.6
2133.602	591.6
2137.643	572.6
2141.681	571.6
2145.714	567.6
2149.744	585.6
2153.77	565.6
2157.793	565.6
2161.812	563.6
2165.827	556.6
2169.838	562.6
2173.846	548.6
2177.851	539.6
2181.851	513.6
2185.848	523.6
2189.841	518.6
2193.831	510.6
2197.817	506.6
2201.799	507.6
2205.778	507.6
2209.753	502.6
2213.725	504.6
2217.693	504.6
2221.657	501.6
2225.618	495.6
2229.575	497.6
2233.529	492.6
2237.479	477.6
2241.425	484.6
2245.368	469.6
2249.307	467.6
2253.243	451.6
2257.175	462.6
2261.104	437.6
2265.029	428.6
2268.95	442.6
2272.868	419.6
2276.783	424.6
2280.694	424.6
2284.601	414.6
2288.505	413.6
2292.405	407.6
2296.302	399.6
2300.195	390.6
2304.085	389.6
2307.971	376.6
2311.854	373.6
2315.734	373.6
2319.609	363.6
2323.482	355.6
2327.351	363.6
2331.216	364.6
2335.078	381.6
2338.937	372.6
2342.792	356.6
2346.643	353.6
2350.492	343.6
2354.336	343.6
2358.178	343.6
2362.015	341.6
2365.85	345.6
2369.681	345.6
2373.508	350.6
2377.333	338.6
2381.153	341.6
2384.971	353.6
2388.785	346.6
2392.595	333.6
2396.402	333.6
2400.206	337.6
2404.007	330.6
2407.804	333.6
2411.597	323.6
2415.388	314.6
2419.174	318.6
2422.958	322.6
2426.738	318.6
2430.515	323.6
2434.289	320.6
2438.059	315.6
2441.825	308.6
2445.589	312.6
2449.349	297.6
2453.106	301.6
2456.859	290.6
2460.61	285.6
2464.356	282.6
2468.1	289.6
2471.84	276.6
2475.577	288.6
2479.311	272.6
2483.041	273.6
2486.768	260.6
2490.492	266.6
2494.213	272.6
2497.93	270.6
2501.644	263.6
2505.355	257.6
2509.062	255.6
2512.766	256.6
2516.467	245.6
2520.165	250.6
2523.859	256.6
2527.551	247.6
2531.239	240.6
2534.923	229.6
2538.605	226.6
2542.283	223.6
2545.958	230.6
2549.63	225.6
2553.299	222.6
2556.964	217.6
2560.626	223.6
2564.285	214.6
2567.941	215.6
2571.594	208.6
2575.243	212.6
2578.89	191.6
2582.533	204.6
2586.173	192.6
2589.809	186.6
2593.443	194.6
2597.073	193.6
2600.701	185.6
2604.325	187.6
2607.946	193.6
2611.564	186.6
2615.178	184.6
2618.79	178.6
2622.398	183.6
2626.004	182.6
2629.606	182.6
2633.205	173.6
2636.801	169.6
2640.394	176.6
2643.983	165.6
2647.57	175.6
2651.153	171.6
2654.734	159.6
2658.311	154.6
2661.885	158.6
2665.456	165.6
2669.025	160.6
2672.589	150.6
2676.151	158.6
2679.71	154.6
2683.266	145.6
2686.819	145.6
2690.368	147.6
2693.915	138.6
2697.458	129.6
2700.999	141.6
2704.536	134.6
2708.071	128.6
2711.602	121.6
2715.13	122.6
2718.656	127.6
2722.178	118.6
2725.697	120.6
2729.214	116.6
2732.727	115.6
2736.237	120.6
2739.744	109.6
2743.249	116.6
2746.75	115.6
2750.248	105.6
2753.743	100.6
2757.236	102.6
2760.725	99.6
2764.211	98.6
2767.695	101.6
2771.175	97.6
2774.652	89.6
2778.127	84.6
2781.598	86.6
2785.067	93.6
2788.532	90.6
2791.995	93.6
2795.455	99.6
2798.911	94.6
2802.365	100.6
2805.816	99.6
2809.264	99.6
2812.709	104.6
2816.151	105.6
2819.59	92.6
2823.026	99.6
2826.46	89.6
2829.89	93.6
2833.318	93.6
2836.742	99.6
2840.164	96.6
2843.583	95.6
2846.999	103.6
2850.412	96.6
2853.822	95.6
2857.229	105.6
2860.634	106.6
2864.035	108.6
2867.434	117.6
2870.83	125.6
2874.223	133.6
2877.613	134.6
2881	134.6
2884.385	135.6
2887.766	130.6
2891.145	129.6
2894.521	127.6
2897.894	146.6
2901.264	135.6
2904.631	137.6
2907.996	134.6
2911.358	138.6
2914.717	140.6
2918.073	149.6
2921.426	155.6
2924.777	161.6
2928.124	161.6
2931.469	166.6
2934.811	168.6
2938.15	172.6
2941.487	181.6
2944.821	169.6
2948.152	180.6
2951.48	182.6
2954.805	180.6
2958.128	173.6
2961.447	167.6
2964.765	167.6
2968.079	171.6
2971.39	172.6
2974.699	177.6
2978.005	176.6
2981.308	181.6
2984.609	176.6
2987.907	176.6
2991.202	177.6
2994.494	180.6
2997.784	179.6
3001.07	188.6
3004.355	201.6
3007.636	195.6
3010.915	195.6
3014.191	195.6
3017.464	202.6
3020.734	207.6
3024.002	201.6
3027.267	210.6
3030.53	211.6
3033.789	218.6
3037.046	233.6
3040.301	226.6
3043.552	241.6
3046.801	246.6
3050.048	258.6
3053.291	261.6
3056.532	272.6
3059.771	286.6
3063.006	290.6
3066.239	303.6
3069.469	322.6
3072.697	315.6
3075.922	323.6
3079.144	326.6
3082.364	356.6
3085.581	355.6
3088.795	348.6
3092.007	377.6
3095.216	366.6
3098.423	383.6
3101.627	397.6
3104.828	404.6
3108.026	409.6
3111.222	419.6
3114.416	425.6
3117.607	438.6
3120.795	434.6
3123.98	463.6
3127.163	469.6
3130.344	483.6
3133.521	489.6
3136.696	507.6
3139.869	500.6
3143.039	505.6
3146.206	529.6
3149.371	532.6
3152.533	544.6
3155.693	553.6
3158.85	551.6
3162.005	561.6
3165.157	558.6
3168.306	572.6
3171.453	562.6
3174.597	570.6
3177.739	570.6
3180.878	573.6
3184.014	591.6
3187.149	580.6
3190.28	583.6
3193.409	593.6
3196.536	589.6
3199.659	593.6
3202.781	595.6
3205.9	600.6
3209.016	607.6
3212.13	591.6
3215.241	589.6
3218.35	586.6
3221.456	578.6
3224.56	561.6
3227.661	567.6
3230.76	555.6
3233.856	555.6
3236.95	537.6
3240.041	535.6
3243.13	518.6
3246.216	527.6
3249.3	504.6
3252.382	506.6
3255.46	503.6
3258.537	502.6
3261.611	490.6
3264.682	485.6
3267.751	486.6
3270.818	471.6
3273.882	482.6
3276.943	471.6
3280.002	466.6
3283.059	475.6
3286.113	471.6
3289.165	463.6
3292.214	468.6
3295.261	450.6
3298.306	429.6
3301.348	432.6
3304.387	430.6
3307.425	424.6
3310.459	420.6
3313.492	418.6
3316.521	415.6
3319.549	409.6
3322.574	404.6
3325.597	406.6
3328.617	404.6
3331.635	406.6
3334.65	397.6
3337.663	391.6
3340.674	400.6
3343.682	403.6
3346.688	383.6
3349.691	389.6
3352.692	381.6
3355.691	381.6
3358.687	381.6
3361.681	383.6
3364.673	393.6
3367.662	361.6
3370.649	369.6
3373.633	360.6
3376.615	339.6
3379.595	354.6
3382.572	344.6
3385.547	343.6
3388.52	335.6
3391.49	321.6
3394.458	323.6
3397.424	314.6
3400.387	300.6
3403.348	314.6
3406.307	302.6
3409.263	299.6
3412.217	293.6
3415.168	302.6
3418.118	293.6
3421.065	276.6
3424.009	276.6
3426.951	277.6
3429.891	269.6
3432.829	256.6
3435.764	247.6
3438.697	242.6
3441.628	239.6
3444.557	231.6
3447.483	215.6
3450.407	205.6
3453.328	197.6
3456.247	189.6
3459.164	185.6
3462.079	177.6
3464.991	166.6
3467.902	164.6
3470.809	160.6
3473.715	143.6
3476.618	134.6
3479.519	136.6
3482.418	137.6
3485.315	116.6
3488.209	110.6
3491.101	113.6
3493.99	105.6
3496.878	94.6
3499.763	90.6
3502.646	87.6
3505.527	83.6
3508.405	77.6
3511.281	67.6
3514.155	62.6
3517.027	59.6
3519.897	47.6
3522.764	45.6
3525.629	33.6
3528.492	28.6
3531.352	24.6
3534.211	19.6
3537.067	15.6
3539.921	14.6
3542.773	4.6
3545.622	-9.4
3548.469	-8.4
3551.315	-10.4
3554.157	-13.4
3556.998	-18.4
3559.837	-15.4
3562.673	-26.4
3565.507	-28.4
3568.339	-32.4
3571.169	-46.4
3573.996	-41.4
3576.822	-40.4
3579.645	-41.4
3582.466	-39.4
3585.285	-42.4
3588.101	-42.4
3590.916	-55.4
3593.728	-65.4
3596.538	-65.4
3599.346	-66.4
3602.152	-64.4
3604.956	-62.4
3607.757	-63.4
3610.556	-71.4
3613.354	-73.4
3616.149	-83.4
3618.942	-78.4
3621.732	-83.4
3624.521	-79.4
3627.307	-81.4
3630.092	-81.4
3632.874	-82.4
3635.654	-91.4
3638.432	-87.4
3641.208	-86.4
3643.982	-93.4
3646.753	-93.4
3649.523	-93.4
3652.29	-93.4
3655.055	-96.4
3657.818	-99.4
3660.579	-100.4
3663.338	-105.4
3666.095	-100.4
3668.849	-108.4
3671.602	-107.4
3674.352	-105.4
3677.101	-104.4
3679.847	-109.4
3682.591	-115.4
3685.333	-111.4
3688.073	-110.4
3690.811	-116.4
3693.547	-118.4
3696.281	-117.4
3699.013	-115.4
3701.742	-120.4
3704.47	-120.4
3707.195	-117.4
3709.919	-122.4
3712.64	-121.4
3715.359	-122.4
3718.076	-118.4
3720.792	-120.4
3723.505	-123.4
3726.216	-119.4
3728.925	-127.4
3731.632	-126.4
3734.336	-130.4
3737.039	-122.4
3739.74	-124.4
3742.439	-131.4
3745.136	-117.4
3747.83	-130.4
3750.523	-124.4
3753.213	-130.4
3755.902	-128.4
3758.589	-132.4
3761.273	-122.4
3763.956	-124.4
3766.636	-127.4
3769.315	-122.4
3771.991	-121.4
3774.665	-136.4
3777.338	-125.4
3780.008	-133.4
3782.677	-130.4
3785.343	-126.4
3788.007	-129.4
3790.67	-131.4
3793.33	-123.4
3795.989	-128.4
3798.645	-127.4
3801.299	-131.4
3803.952	-131.4
3806.602	-122.4
3809.251	-132.4
3811.897	-131.4
3814.542	-132.4
3817.184	-128.4
3819.825	-130.4
3822.463	-129.4
3825.1	-127.4
3827.735	-129.4
3830.367	-128.4
3832.998	-133.4
3835.627	-131.4
3838.253	-129.4
3840.878	-132.4
3843.501	-129.4
3846.122	-136.4
3848.741	-134.4
3851.358	-129.4
3853.973	-138.4
3856.586	-130.4
3859.197	-141.4
3861.806	-127.4
3864.414	-127.4
3867.019	-127.4
3869.622	-131.4
3872.224	-118.4
3874.823	-107.4
3877.421	-93.4
3880.016	-66.4
3882.61	-42.4
3885.202	-44.4
3887.792	-67.4
3890.38	-96.4
3892.966	-116.4
3895.55	-124.4
3898.132	-123.4
3900.713	-135.4
3903.291	-137.4
3905.868	-138.4
3908.442	-127.4
3911.015	-134.4
3913.586	-134.4
3916.155	-132.4
3918.722	-138.4
3921.287	-131.4
3923.85	-139.4
3926.411	-131.4
3928.971	-133.4
3931.528	-135.4
3934.084	-136.4
3936.638	-130.4
3939.19	-133.4
3941.74	-136.4
3944.288	-138.4
3946.834	-131.4
3949.378	-130.4
3951.921	-135.4
3954.462	-139.4
3957	-136.4
3959.537	-129.4
3962.072	-134.4
3964.606	-133.4
3967.137	-130.4
3969.667	-133.4
3972.194	-137.4
3974.72	-134.4
3977.244	-137.4
3979.766	-132.4
3982.286	-132.4
3984.805	-138.4
3987.321	-132.4
3989.836	-120.4
3992.349	-138.4
3994.86	-136.4
3997.369	-136.4
3999.877	-133.4
4002.382	-129.4
4004.886	-136.4
4007.388	-133.4
4009.888	-131.4
4012.386	-131.4
4014.883	-133.4
4017.377	-132.4
4019.87	-134.4
4022.361	-135.4
4024.85	-133.4
4027.338	-137.4
4029.823	-125.4
4032.307	-131.4
4034.789	-134.4
4037.269	-135.4
4039.747	-131.4
4042.224	-128.4
4044.699	-135.4
4047.172	-133.4
4049.643	-125.4
4052.112	-128.4
4054.58	-131.4
4057.046	-134.4
4059.51	-131.4
4061.972	-130.4
4064.432	-134.4
4066.891	-130.4
4069.348	-132.4
4071.803	-133.4
4074.256	-131.4
4076.708	-133.4
4079.158	-132.4
4081.606	-129.4
4084.052	-136.4
4086.497	-129.4
4088.939	-121.4
4091.38	-130.4
4093.819	-129.4
4096.257	-140.4
4098.693	-136.4
4101.127	-135.4
4103.559	-134.4
4105.989	15.6
4108.418	12.6
4110.845	12.6
4113.27	6.6
4115.694	-0.4
4118.115	4.6
4120.535	-132.4
4122.954	-138.4
4125.37	-131.4
4127.785	-128.4
4130.198	-131.4
4132.609	-130.4
4135.019	-137.4
4137.427	-138.4
4139.833	-141.4
4142.237	-140.4
