Data from 2018-2-8_conc=5_n=3_RamanShift_02.txt Node
Date: Mon Mar 12 15:57:28 IST 2018
User: aro
Spectrometer: QEPB0276
Trigger mode: 0
Integration Time (sec): 3.000000E1
Scans to average: 1
Electric dark correction enabled: true
Nonlinearity correction enabled: false
Boxcar width: 0
XAxis mode: Raman Shifts
Number of Pixels in Spectrum: 1044
>>>>>Begin Spectral Data<<<<<
160.701	29.1
166.742	48.1
172.777	109.1
178.805	318.1
184.826	828.1
190.841	1782.1
196.849	2942.1
202.85	3829.1
208.845	4179.1
214.833	4165.1
220.815	4148.1
226.789	4124.1
232.758	4128.1
238.719	4148.1
244.674	4129.1
250.623	4094.1
256.565	4072.1
262.5	3993.1
268.429	3955.1
274.351	3938.1
280.267	3889.1
286.176	3891.1
292.079	3868.1
297.975	3876.1
303.865	3849.1
309.748	3867.1
315.625	3860.1
321.495	3856.1
327.359	3856.1
333.217	3839.1
339.068	3907.1
344.912	3866.1
350.751	3878.1
356.583	3895.1
362.408	3895.1
368.227	3945.1
374.04	3941.1
379.847	3933.1
385.647	3975.1
391.44	3995.1
397.228	3991.1
403.009	4051.1
408.784	4055.1
414.553	4074.1
420.315	4075.1
426.071	4066.1
431.821	4061.1
437.565	4046.1
443.302	4053.1
449.033	4046.1
454.758	4018.1
460.477	3978.1
466.189	3964.1
471.896	3946.1
477.596	3921.1
483.29	3902.1
488.978	3910.1
494.66	3912.1
500.335	3840.1
506.005	3692.1
511.668	3566.1
517.325	3445.1
522.977	3327.1
528.622	3258.1
534.261	3207.1
539.894	3152.1
545.521	3140.1
551.141	3103.1
556.756	3070.1
562.365	3056.1
567.968	3035.1
573.565	2992.1
579.155	2989.1
584.74	2986.1
590.319	2966.1
595.892	2945.1
601.459	2953.1
607.02	2954.1
612.575	2934.1
618.124	2914.1
623.667	2861.1
629.204	2850.1
634.735	2824.1
640.261	2797.1
645.781	2798.1
651.294	2785.1
656.802	2742.1
662.304	2753.1
667.8	2754.1
673.29	2749.1
678.775	2718.1
684.254	2712.1
689.726	2694.1
695.193	2699.1
700.655	2669.1
706.11	2653.1
711.56	2666.1
717.004	2640.1
722.442	2647.1
727.874	2636.1
733.301	2623.1
738.722	2597.1
744.137	2587.1
749.547	2592.1
754.951	2568.1
760.349	2595.1
765.741	2585.1
771.128	2609.1
776.509	2610.1
781.885	2660.1
787.254	2640.1
792.618	2632.1
797.977	2657.1
803.33	2644.1
808.677	2601.1
814.019	2580.1
819.355	2564.1
824.686	2558.1
830.011	2545.1
835.33	2525.1
840.644	2508.1
845.952	2513.1
851.255	2521.1
856.552	2501.1
861.844	2486.1
867.13	2477.1
872.41	2424.1
877.686	2445.1
882.955	2411.1
888.219	2384.1
893.478	2370.1
898.731	2320.1
903.979	2296.1
909.221	2289.1
914.458	2275.1
919.69	2272.1
924.916	2271.1
930.136	2281.1
935.351	2254.1
940.561	2279.1
945.766	2274.1
950.965	2263.1
956.158	2253.1
961.347	2230.1
966.529	2199.1
971.707	2147.1
976.879	2150.1
982.046	2103.1
987.208	2104.1
992.364	2088.1
997.515	2133.1
1002.66	2133.1
1007.801	2145.1
1012.936	2168.1
1018.066	2168.1
1023.19	2182.1
1028.309	2186.1
1033.423	2178.1
1038.532	2172.1
1043.636	2140.1
1048.734	2147.1
1053.827	2123.1
1058.915	2094.1
1063.998	2064.1
1069.075	2065.1
1074.147	2076.1
1079.214	2074.1
1084.276	2073.1
1089.333	2086.1
1094.385	2082.1
1099.431	2087.1
1104.472	2082.1
1109.509	2045.1
1114.54	2049.1
1119.565	2025.1
1124.586	1991.1
1129.602	1963.1
1134.613	1961.1
1139.618	1933.1
1144.619	1928.1
1149.614	1942.1
1154.604	1926.1
1159.589	1950.1
1164.57	1944.1
1169.545	1944.1
1174.515	1957.1
1179.48	1951.1
1184.44	1924.1
1189.395	1918.1
1194.345	1917.1
1199.29	1888.1
1204.23	1894.1
1209.165	1895.1
1214.095	1894.1
1219.021	1929.1
1223.941	1919.1
1228.856	1943.1
1233.766	1945.1
1238.672	1941.1
1243.572	1917.1
1248.467	1924.1
1253.358	1909.1
1258.244	1866.1
1263.124	1824.1
1268	1805.1
1272.871	1790.1
1277.737	1780.1
1282.599	1789.1
1287.455	1768.1
1292.306	1752.1
1297.153	1772.1
1301.995	1793.1
1306.832	1806.1
1311.664	1805.1
1316.491	1824.1
1321.314	1792.1
1326.132	1801.1
1330.945	1800.1
1335.753	1747.1
1340.556	1731.1
1345.354	1697.1
1350.148	1677.1
1354.937	1657.1
1359.722	1626.1
1364.501	1617.1
1369.276	1585.1
1374.046	1581.1
1378.811	1531.1
1383.572	1513.1
1388.327	1521.1
1393.079	1520.1
1397.825	1510.1
1402.567	1510.1
1407.304	1507.1
1412.036	1513.1
1416.764	1524.1
1421.487	1521.1
1426.205	1527.1
1430.919	1535.1
1435.628	1533.1
1440.333	1553.1
1445.032	1570.1
1449.727	1585.1
1454.418	1581.1
1459.104	1587.1
1463.785	1560.1
1468.462	1544.1
1473.134	1526.1
1477.802	1480.1
1482.465	1449.1
1487.123	1436.1
1491.777	1417.1
1496.426	1421.1
1501.071	1391.1
1505.711	1386.1
1510.347	1373.1
1514.978	1398.1
1519.604	1384.1
1524.226	1389.1
1528.844	1378.1
1533.457	1380.1
1538.065	1360.1
1542.669	1356.1
1547.269	1360.1
1551.864	1346.1
1556.454	1366.1
1561.041	1382.1
1565.622	1368.1
1570.199	1376.1
1574.772	1377.1
1579.34	1396.1
1583.904	1420.1
1588.464	1454.1
1593.019	1427.1
1597.569	1439.1
1602.115	1421.1
1606.657	1422.1
1611.195	1416.1
1615.728	1436.1
1620.256	1414.1
1624.78	1421.1
1629.3	1431.1
1633.816	1435.1
1638.327	1439.1
1642.834	1445.1
1647.336	1440.1
1651.834	1444.1
1656.328	1445.1
1660.817	1434.1
1665.302	1448.1
1669.783	1404.1
1674.259	1375.1
1678.732	1350.1
1683.199	1323.1
1687.663	1284.1
1692.122	1252.1
1696.577	1200.1
1701.028	1167.1
1705.474	1109.1
1709.917	1067.1
1714.355	1052.1
1718.788	1062.1
1723.218	1062.1
1727.643	1047.1
1732.064	1034.1
1736.481	1040.1
1740.893	1005.1
1745.301	991.1
1749.705	964.1
1754.105	952.1
1758.501	944.1
1762.893	926.1
1767.28	905.1
1771.663	920.1
1776.042	907.1
1780.417	893.1
1784.787	898.1
1789.154	886.1
1793.516	886.1
1797.874	853.1
1802.228	868.1
1806.578	843.1
1810.924	829.1
1815.266	814.1
1819.603	812.1
1823.937	826.1
1828.266	818.1
1832.591	823.1
1836.913	812.1
1841.23	826.1
1845.543	822.1
1849.852	809.1
1854.156	812.1
1858.457	812.1
1862.754	824.1
1867.047	816.1
1871.335	823.1
1875.62	823.1
1879.9	821.1
1884.177	812.1
1888.449	801.1
1892.718	796.1
1896.982	793.1
1901.243	773.1
1905.499	776.1
1909.752	755.1
1914	753.1
1918.245	757.1
1922.485	723.1
1926.722	734.1
1930.954	731.1
1935.183	721.1
1939.408	725.1
1943.628	728.1
1947.845	711.1
1952.058	718.1
1956.267	710.1
1960.472	693.1
1964.673	673.1
1968.87	674.1
1973.063	679.1
1977.252	669.1
1981.438	680.1
1985.619	658.1
1989.797	661.1
1993.971	667.1
1998.14	673.1
2002.306	661.1
2006.469	670.1
2010.627	662.1
2014.781	677.1
2018.932	670.1
2023.078	665.1
2027.221	668.1
2031.36	667.1
2035.495	640.1
2039.627	638.1
2043.754	639.1
2047.878	624.1
2051.998	625.1
2056.114	616.1
2060.226	620.1
2064.334	617.1
2068.439	617.1
2072.54	613.1
2076.637	604.1
2080.73	604.1
2084.82	601.1
2088.906	600.1
2092.988	601.1
2097.066	591.1
2101.14	585.1
2105.211	578.1
2109.278	565.1
2113.342	571.1
2117.401	551.1
2121.457	558.1
2125.509	547.1
2129.558	544.1
2133.602	548.1
2137.643	551.1
2141.681	560.1
2145.714	540.1
2149.744	547.1
2153.77	542.1
2157.793	530.1
2161.812	522.1
2165.827	520.1
2169.838	528.1
2173.846	509.1
2177.851	494.1
2181.851	491.1
2185.848	494.1
2189.841	480.1
2193.831	485.1
2197.817	479.1
2201.799	482.1
2205.778	475.1
2209.753	465.1
2213.725	474.1
2217.693	466.1
2221.657	472.1
2225.618	468.1
2229.575	473.1
2233.529	469.1
2237.479	466.1
2241.425	455.1
2245.368	452.1
2249.307	443.1
2253.243	435.1
2257.175	426.1
2261.104	421.1
2265.029	417.1
2268.95	427.1
2272.868	404.1
2276.783	390.1
2280.694	391.1
2284.601	389.1
2288.505	390.1
2292.405	381.1
2296.302	379.1
2300.195	372.1
2304.085	360.1
2307.971	349.1
2311.854	356.1
2315.734	347.1
2319.609	350.1
2323.482	350.1
2327.351	347.1
2331.216	352.1
2335.078	377.1
2338.937	346.1
2342.792	342.1
2346.643	343.1
2350.492	325.1
2354.336	327.1
2358.178	328.1
2362.015	329.1
2365.85	331.1
2369.681	325.1
2373.508	322.1
2377.333	337.1
2381.153	329.1
2384.971	344.1
2388.785	336.1
2392.595	316.1
2396.402	321.1
2400.206	321.1
2404.007	320.1
2407.804	319.1
2411.597	306.1
2415.388	311.1
2419.174	314.1
2422.958	313.1
2426.738	307.1
2430.515	297.1
2434.289	317.1
2438.059	302.1
2441.825	294.1
2445.589	291.1
2449.349	288.1
2453.106	284.1
2456.859	287.1
2460.61	288.1
2464.356	278.1
2468.1	280.1
2471.84	261.1
2475.577	268.1
2479.311	256.1
2483.041	259.1
2486.768	271.1
2490.492	265.1
2494.213	264.1
2497.93	267.1
2501.644	257.1
2505.355	251.1
2509.062	248.1
2512.766	249.1
2516.467	245.1
2520.165	241.1
2523.859	250.1
2527.551	242.1
2531.239	236.1
2534.923	222.1
2538.605	229.1
2542.283	225.1
2545.958	227.1
2549.63	226.1
2553.299	220.1
2556.964	229.1
2560.626	217.1
2564.285	219.1
2567.941	207.1
2571.594	207.1
2575.243	201.1
2578.89	210.1
2582.533	199.1
2586.173	197.1
2589.809	190.1
2593.443	206.1
2597.073	195.1
2600.701	188.1
2604.325	189.1
2607.946	186.1
2611.564	183.1
2615.178	188.1
2618.79	182.1
2622.398	177.1
2626.004	178.1
2629.606	177.1
2633.205	175.1
2636.801	176.1
2640.394	172.1
2643.983	169.1
2647.57	172.1
2651.153	170.1
2654.734	161.1
2658.311	157.1
2661.885	170.1
2665.456	152.1
2669.025	149.1
2672.589	159.1
2676.151	155.1
2679.71	160.1
2683.266	147.1
2686.819	145.1
2690.368	152.1
2693.915	134.1
2697.458	143.1
2700.999	139.1
2704.536	137.1
2708.071	128.1
2711.602	128.1
2715.13	129.1
2718.656	118.1
2722.178	125.1
2725.697	121.1
2729.214	116.1
2732.727	132.1
2736.237	131.1
2739.744	112.1
2743.249	122.1
2746.75	123.1
2750.248	108.1
2753.743	111.1
2757.236	101.1
2760.725	107.1
2764.211	98.1
2767.695	107.1
2771.175	89.1
2774.652	86.1
2778.127	94.1
2781.598	99.1
2785.067	98.1
2788.532	98.1
2791.995	92.1
2795.455	99.1
2798.911	98.1
2802.365	100.1
2805.816	102.1
2809.264	88.1
2812.709	99.1
2816.151	99.1
2819.59	98.1
2823.026	98.1
2826.46	93.1
2829.89	95.1
2833.318	92.1
2836.742	107.1
2840.164	97.1
2843.583	108.1
2846.999	108.1
2850.412	94.1
2853.822	98.1
2857.229	104.1
2860.634	99.1
2864.035	107.1
2867.434	105.1
2870.83	119.1
2874.223	128.1
2877.613	114.1
2881	134.1
2884.385	127.1
2887.766	124.1
2891.145	116.1
2894.521	130.1
2897.894	125.1
2901.264	125.1
2904.631	134.1
2907.996	130.1
2911.358	131.1
2914.717	133.1
2918.073	132.1
2921.426	135.1
2924.777	145.1
2928.124	144.1
2931.469	149.1
2934.811	152.1
2938.15	152.1
2941.487	155.1
2944.821	158.1
2948.152	160.1
2951.48	158.1
2954.805	157.1
2958.128	157.1
2961.447	147.1
2964.765	155.1
2968.079	149.1
2971.39	146.1
2974.699	149.1
2978.005	161.1
2981.308	156.1
2984.609	150.1
2987.907	153.1
2991.202	164.1
2994.494	163.1
2997.784	159.1
3001.07	159.1
3004.355	174.1
3007.636	167.1
3010.915	178.1
3014.191	167.1
3017.464	177.1
3020.734	176.1
3024.002	176.1
3027.267	180.1
3030.53	189.1
3033.789	190.1
3037.046	205.1
3040.301	190.1
3043.552	218.1
3046.801	216.1
3050.048	216.1
3053.291	220.1
3056.532	227.1
3059.771	239.1
3063.006	237.1
3066.239	256.1
3069.469	270.1
3072.697	279.1
3075.922	287.1
3079.144	295.1
3082.364	292.1
3085.581	302.1
3088.795	309.1
3092.007	320.1
3095.216	319.1
3098.423	327.1
3101.627	335.1
3104.828	339.1
3108.026	351.1
3111.222	348.1
3114.416	356.1
3117.607	370.1
3120.795	380.1
3123.98	386.1
3127.163	407.1
3130.344	419.1
3133.521	418.1
3136.696	431.1
3139.869	431.1
3143.039	435.1
3146.206	452.1
3149.371	458.1
3152.533	458.1
3155.693	461.1
3158.85	468.1
3162.005	485.1
3165.157	475.1
3168.306	477.1
3171.453	470.1
3174.597	481.1
3177.739	495.1
3180.878	485.1
3184.014	486.1
3187.149	487.1
3190.28	484.1
3193.409	495.1
3196.536	490.1
3199.659	495.1
3202.781	507.1
3205.9	499.1
3209.016	493.1
3212.13	507.1
3215.241	493.1
3218.35	479.1
3221.456	489.1
3224.56	491.1
3227.661	470.1
3230.76	471.1
3233.856	463.1
3236.95	443.1
3240.041	444.1
3243.13	432.1
3246.216	431.1
3249.3	421.1
3252.382	418.1
3255.46	423.1
3258.537	421.1
3261.611	423.1
3264.682	394.1
3267.751	402.1
3270.818	405.1
3273.882	400.1
3276.943	396.1
3280.002	407.1
3283.059	392.1
3286.113	391.1
3289.165	375.1
3292.214	380.1
3295.261	360.1
3298.306	363.1
3301.348	374.1
3304.387	358.1
3307.425	349.1
3310.459	355.1
3313.492	349.1
3316.521	342.1
3319.549	334.1
3322.574	337.1
3325.597	331.1
3328.617	336.1
3331.635	326.1
3334.65	331.1
3337.663	321.1
3340.674	327.1
3343.682	312.1
3346.688	314.1
3349.691	330.1
3352.692	321.1
3355.691	317.1
3358.687	308.1
3361.681	309.1
3364.673	314.1
3367.662	303.1
3370.649	306.1
3373.633	282.1
3376.615	281.1
3379.595	283.1
3382.572	272.1
3385.547	276.1
3388.52	272.1
3391.49	261.1
3394.458	269.1
3397.424	252.1
3400.387	244.1
3403.348	251.1
3406.307	238.1
3409.263	242.1
3412.217	241.1
3415.168	244.1
3418.118	236.1
3421.065	228.1
3424.009	230.1
3426.951	217.1
3429.891	217.1
3432.829	202.1
3435.764	213.1
3438.697	197.1
3441.628	193.1
3444.557	187.1
3447.483	178.1
3450.407	166.1
3453.328	156.1
3456.247	159.1
3459.164	144.1
3462.079	149.1
3464.991	136.1
3467.902	132.1
3470.809	124.1
3473.715	112.1
3476.618	112.1
3479.519	108.1
3482.418	102.1
3485.315	96.1
3488.209	87.1
3491.101	91.1
3493.99	93.1
3496.878	73.1
3499.763	73.1
3502.646	69.1
3505.527	61.1
3508.405	58.1
3511.281	45.1
3514.155	48.1
3517.027	38.1
3519.897	34.1
3522.764	21.1
3525.629	23.1
3528.492	20.1
3531.352	25.1
3534.211	8.1
3537.067	6.1
3539.921	7.1
3542.773	-1.9
3545.622	-10.9
3548.469	-12.9
3551.315	-12.9
3554.157	-17.9
3556.998	-23.9
3559.837	-25.9
3562.673	-25.9
3565.507	-24.9
3568.339	-33.9
3571.169	-42.9
3573.996	-44.9
3576.822	-36.9
3579.645	-38.9
3582.466	-41.9
3585.285	-50.9
3588.101	-40.9
3590.916	-48.9
3593.728	-59.9
3596.538	-59.9
3599.346	-57.9
3602.152	-53.9
3604.956	-56.9
3607.757	-60.9
3610.556	-63.9
3613.354	-62.9
3616.149	-75.9
3618.942	-73.9
3621.732	-68.9
3624.521	-70.9
3627.307	-74.9
3630.092	-72.9
3632.874	-73.9
3635.654	-79.9
3638.432	-82.9
3641.208	-78.9
3643.982	-83.9
3646.753	-85.9
3649.523	-86.9
3652.29	-88.9
3655.055	-84.9
3657.818	-88.9
3660.579	-86.9
3663.338	-85.9
3666.095	-90.9
3668.849	-94.9
3671.602	-96.9
3674.352	-103.9
3677.101	-99.9
3679.847	-101.9
3682.591	-106.9
3685.333	-95.9
3688.073	-92.9
3690.811	-103.9
3693.547	-104.9
3696.281	-108.9
3699.013	-104.9
3701.742	-110.9
3704.47	-106.9
3707.195	-102.9
3709.919	-102.9
3712.64	-107.9
3715.359	-108.9
3718.076	-109.9
3720.792	-110.9
3723.505	-113.9
3726.216	-102.9
3728.925	-106.9
3731.632	-109.9
3734.336	-118.9
3737.039	-119.9
3739.74	-115.9
3742.439	-118.9
3745.136	-112.9
3747.83	-117.9
3750.523	-117.9
3753.213	-122.9
3755.902	-110.9
3758.589	-116.9
3761.273	-110.9
3763.956	-110.9
3766.636	-111.9
3769.315	-109.9
3771.991	-110.9
3774.665	-117.9
3777.338	-108.9
3780.008	-112.9
3782.677	-118.9
3785.343	-116.9
3788.007	-112.9
3790.67	-116.9
3793.33	-114.9
3795.989	-118.9
3798.645	-114.9
3801.299	-113.9
3803.952	-121.9
3806.602	-109.9
3809.251	-122.9
3811.897	-117.9
3814.542	-122.9
3817.184	-108.9
3819.825	-123.9
3822.463	-115.9
3825.1	-116.9
3827.735	-118.9
3830.367	-121.9
3832.998	-118.9
3835.627	-121.9
3838.253	-118.9
3840.878	-115.9
3843.501	-110.9
3846.122	-118.9
3848.741	-120.9
3851.358	-117.9
3853.973	-117.9
3856.586	-116.9
3859.197	-124.9
3861.806	-113.9
3864.414	-119.9
3867.019	-111.9
3869.622	-116.9
3872.224	-104.9
3874.823	-100.9
3877.421	-80.9
3880.016	-53.9
3882.61	-28.9
3885.202	-27.9
3887.792	-46.9
3890.38	-77.9
3892.966	-104.9
3895.55	-112.9
3898.132	-114.9
3900.713	-119.9
3903.291	-121.9
3905.868	-120.9
3908.442	-114.9
3911.015	-121.9
3913.586	-123.9
3916.155	-123.9
3918.722	-122.9
3921.287	-119.9
3923.85	-120.9
3926.411	-118.9
3928.971	-121.9
3931.528	-124.9
3934.084	-119.9
3936.638	-113.9
3939.19	-124.9
3941.74	-123.9
3944.288	-119.9
3946.834	-117.9
3949.378	-118.9
3951.921	-117.9
3954.462	-129.9
3957	-121.9
3959.537	-115.9
3962.072	-119.9
3964.606	-114.9
3967.137	-117.9
3969.667	-123.9
3972.194	-125.9
3974.72	-122.9
3977.244	-127.9
3979.766	-116.9
3982.286	-115.9
3984.805	-122.9
3987.321	-121.9
3989.836	-114.9
3992.349	-124.9
3994.86	-121.9
3997.369	-123.9
3999.877	-115.9
4002.382	-116.9
4004.886	-124.9
4007.388	-118.9
4009.888	-119.9
4012.386	-121.9
4014.883	-119.9
4017.377	-123.9
4019.87	-114.9
4022.361	-115.9
4024.85	-118.9
4027.338	-118.9
4029.823	-120.9
4032.307	-116.9
4034.789	-120.9
4037.269	-124.9
4039.747	-116.9
4042.224	-115.9
4044.699	-119.9
4047.172	-119.9
4049.643	-115.9
4052.112	-125.9
4054.58	-117.9
4057.046	-120.9
4059.51	-118.9
4061.972	-115.9
4064.432	-116.9
4066.891	-120.9
4069.348	-118.9
4071.803	-124.9
4074.256	-123.9
4076.708	-113.9
4079.158	-115.9
4081.606	-110.9
4084.052	-120.9
4086.497	-119.9
4088.939	-112.9
4091.38	-115.9
4093.819	-121.9
4096.257	-124.9
4098.693	-119.9
4101.127	-123.9
4103.559	-119.9
4105.989	32.1
4108.418	24.1
4110.845	27.1
4113.27	15.1
4115.694	10.1
4118.115	10.1
4120.535	-123.9
4122.954	-123.9
4125.37	-116.9
4127.785	-119.9
4130.198	-117.9
4132.609	-118.9
4135.019	-124.9
4137.427	-129.9
4139.833	-122.9
4142.237	-126.9
