Data from 2018-2-8_conc=6_n=7_RamanShift_01.txt Node
Date: Mon Mar 12 16:41:57 IST 2018
User: aro
Spectrometer: QEPB0276
Trigger mode: 0
Integration Time (sec): 3.000000E1
Scans to average: 1
Electric dark correction enabled: true
Nonlinearity correction enabled: false
Boxcar width: 0
XAxis mode: Raman Shifts
Number of Pixels in Spectrum: 1044
>>>>>Begin Spectral Data<<<<<
160.701	16.8
166.742	44.8
172.777	131.8
178.805	387.8
184.826	1023.8
190.841	2194.8
196.849	3580.8
202.85	4688.8
208.845	5122.8
214.833	5148.8
220.815	5044.8
226.789	5047.8
232.758	5060.8
238.719	5038.8
244.674	5023.8
250.623	4946.8
256.565	4886.8
262.5	4812.8
268.429	4758.8
274.351	4702.8
280.267	4659.8
286.176	4647.8
292.079	4618.8
297.975	4594.8
303.865	4595.8
309.748	4585.8
315.625	4584.8
321.495	4559.8
327.359	4589.8
333.217	4575.8
339.068	4572.8
344.912	4571.8
350.751	4553.8
356.583	4595.8
362.408	4584.8
368.227	4636.8
374.04	4610.8
379.847	4626.8
385.647	4649.8
391.44	4674.8
397.228	4693.8
403.009	4717.8
408.784	4763.8
414.553	4796.8
420.315	4816.8
426.071	4773.8
431.821	4808.8
437.565	4763.8
443.302	4777.8
449.033	4753.8
454.758	4739.8
460.477	4719.8
466.189	4696.8
471.896	4657.8
477.596	4632.8
483.29	4585.8
488.978	4620.8
494.66	4580.8
500.335	4545.8
506.005	4399.8
511.668	4260.8
517.325	4131.8
522.977	3990.8
528.622	3934.8
534.261	3885.8
539.894	3806.8
545.521	3782.8
551.141	3744.8
556.756	3730.8
562.365	3723.8
567.968	3665.8
573.565	3639.8
579.155	3607.8
584.74	3627.8
590.319	3602.8
595.892	3577.8
601.459	3572.8
607.02	3592.8
612.575	3559.8
618.124	3522.8
623.667	3483.8
629.204	3433.8
634.735	3432.8
640.261	3389.8
645.781	3361.8
651.294	3386.8
656.802	3382.8
662.304	3344.8
667.8	3356.8
673.29	3331.8
678.775	3302.8
684.254	3292.8
689.726	3284.8
695.193	3310.8
700.655	3271.8
706.11	3264.8
711.56	3269.8
717.004	3210.8
722.442	3187.8
727.874	3198.8
733.301	3166.8
738.722	3166.8
744.137	3157.8
749.547	3140.8
754.951	3136.8
760.349	3157.8
765.741	3170.8
771.128	3169.8
776.509	3188.8
781.885	3216.8
787.254	3203.8
792.618	3212.8
797.977	3223.8
803.33	3171.8
808.677	3179.8
814.019	3169.8
819.355	3107.8
824.686	3086.8
830.011	3060.8
835.33	3059.8
840.644	3076.8
845.952	3038.8
851.255	3050.8
856.552	3062.8
861.844	3011.8
867.13	2996.8
872.41	2976.8
877.686	2977.8
882.955	2941.8
888.219	2900.8
893.478	2876.8
898.731	2831.8
903.979	2799.8
909.221	2781.8
914.458	2762.8
919.69	2767.8
924.916	2769.8
930.136	2775.8
935.351	2761.8
940.561	2763.8
945.766	2763.8
950.965	2749.8
956.158	2742.8
961.347	2705.8
966.529	2684.8
971.707	2610.8
976.879	2593.8
982.046	2584.8
987.208	2564.8
992.364	2577.8
997.515	2590.8
1002.66	2589.8
1007.801	2609.8
1012.936	2640.8
1018.066	2622.8
1023.19	2644.8
1028.309	2643.8
1033.423	2656.8
1038.532	2640.8
1043.636	2607.8
1048.734	2587.8
1053.827	2558.8
1058.915	2528.8
1063.998	2520.8
1069.075	2503.8
1074.147	2514.8
1079.214	2506.8
1084.276	2523.8
1089.333	2535.8
1094.385	2543.8
1099.431	2513.8
1104.472	2547.8
1109.509	2499.8
1114.54	2471.8
1119.565	2456.8
1124.586	2417.8
1129.602	2389.8
1134.613	2380.8
1139.618	2354.8
1144.619	2347.8
1149.614	2363.8
1154.604	2362.8
1159.589	2382.8
1164.57	2357.8
1169.545	2362.8
1174.515	2365.8
1179.48	2359.8
1184.44	2339.8
1189.395	2323.8
1194.345	2303.8
1199.29	2286.8
1204.23	2283.8
1209.165	2299.8
1214.095	2297.8
1219.021	2307.8
1223.941	2319.8
1228.856	2326.8
1233.766	2348.8
1238.672	2337.8
1243.572	2363.8
1248.467	2322.8
1253.358	2300.8
1258.244	2268.8
1263.124	2205.8
1268	2191.8
1272.871	2177.8
1277.737	2157.8
1282.599	2121.8
1287.455	2143.8
1292.306	2142.8
1297.153	2146.8
1301.995	2179.8
1306.832	2164.8
1311.664	2191.8
1316.491	2187.8
1321.314	2201.8
1326.132	2176.8
1330.945	2163.8
1335.753	2100.8
1340.556	2082.8
1345.354	2044.8
1350.148	2050.8
1354.937	2003.8
1359.722	1977.8
1364.501	1947.8
1369.276	1914.8
1374.046	1885.8
1378.811	1854.8
1383.572	1839.8
1388.327	1828.8
1393.079	1851.8
1397.825	1845.8
1402.567	1862.8
1407.304	1848.8
1412.036	1842.8
1416.764	1846.8
1421.487	1856.8
1426.205	1847.8
1430.919	1850.8
1435.628	1872.8
1440.333	1875.8
1445.032	1897.8
1449.727	1917.8
1454.418	1922.8
1459.104	1899.8
1463.785	1885.8
1468.462	1870.8
1473.134	1837.8
1477.802	1773.8
1482.465	1755.8
1487.123	1731.8
1491.777	1690.8
1496.426	1686.8
1501.071	1681.8
1505.711	1661.8
1510.347	1673.8
1514.978	1690.8
1519.604	1678.8
1524.226	1673.8
1528.844	1646.8
1533.457	1649.8
1538.065	1642.8
1542.669	1627.8
1547.269	1624.8
1551.864	1630.8
1556.454	1645.8
1561.041	1665.8
1565.622	1659.8
1570.199	1662.8
1574.772	1682.8
1579.34	1702.8
1583.904	1719.8
1588.464	1741.8
1593.019	1757.8
1597.569	1756.8
1602.115	1748.8
1606.657	1727.8
1611.195	1710.8
1615.728	1738.8
1620.256	1728.8
1624.78	1731.8
1629.3	1747.8
1633.816	1743.8
1638.327	1745.8
1642.834	1758.8
1647.336	1768.8
1651.834	1741.8
1656.328	1755.8
1660.817	1764.8
1665.302	1761.8
1669.783	1721.8
1674.259	1674.8
1678.732	1641.8
1683.199	1594.8
1687.663	1559.8
1692.122	1501.8
1696.577	1445.8
1701.028	1389.8
1705.474	1329.8
1709.917	1307.8
1714.355	1274.8
1718.788	1252.8
1723.218	1256.8
1727.643	1252.8
1732.064	1252.8
1736.481	1242.8
1740.893	1215.8
1745.301	1182.8
1749.705	1168.8
1754.105	1139.8
1758.501	1102.8
1762.893	1116.8
1767.28	1103.8
1771.663	1090.8
1776.042	1090.8
1780.417	1071.8
1784.787	1070.8
1789.154	1050.8
1793.516	1045.8
1797.874	1029.8
1802.228	1021.8
1806.578	1010.8
1810.924	990.8
1815.266	985.8
1819.603	978.8
1823.937	991.8
1828.266	983.8
1832.591	979.8
1836.913	991.8
1841.23	992.8
1845.543	963.8
1849.852	964.8
1854.156	972.8
1858.457	969.8
1862.754	984.8
1867.047	970.8
1871.335	973.8
1875.62	967.8
1879.9	963.8
1884.177	971.8
1888.449	945.8
1892.718	960.8
1896.982	927.8
1901.243	921.8
1905.499	921.8
1909.752	901.8
1914	887.8
1918.245	879.8
1922.485	877.8
1926.722	870.8
1930.954	859.8
1935.183	864.8
1939.408	864.8
1943.628	837.8
1947.845	838.8
1952.058	834.8
1956.267	835.8
1960.472	825.8
1964.673	825.8
1968.87	801.8
1973.063	806.8
1977.252	787.8
1981.438	808.8
1985.619	792.8
1989.797	780.8
1993.971	789.8
1998.14	797.8
2002.306	784.8
2006.469	808.8
2010.627	790.8
2014.781	803.8
2018.932	791.8
2023.078	798.8
2027.221	792.8
2031.36	775.8
2035.495	783.8
2039.627	775.8
2043.754	752.8
2047.878	733.8
2051.998	743.8
2056.114	741.8
2060.226	734.8
2064.334	728.8
2068.439	729.8
2072.54	733.8
2076.637	726.8
2080.73	719.8
2084.82	727.8
2088.906	711.8
2092.988	713.8
2097.066	711.8
2101.14	690.8
2105.211	691.8
2109.278	676.8
2113.342	681.8
2117.401	656.8
2121.457	650.8
2125.509	653.8
2129.558	659.8
2133.602	658.8
2137.643	651.8
2141.681	653.8
2145.714	649.8
2149.744	647.8
2153.77	644.8
2157.793	642.8
2161.812	634.8
2165.827	628.8
2169.838	622.8
2173.846	599.8
2177.851	594.8
2181.851	585.8
2185.848	576.8
2189.841	574.8
2193.831	593.8
2197.817	581.8
2201.799	563.8
2205.778	555.8
2209.753	556.8
2213.725	580.8
2217.693	560.8
2221.657	558.8
2225.618	564.8
2229.575	549.8
2233.529	537.8
2237.479	545.8
2241.425	536.8
2245.368	517.8
2249.307	526.8
2253.243	518.8
2257.175	493.8
2261.104	503.8
2265.029	497.8
2268.95	505.8
2272.868	479.8
2276.783	469.8
2280.694	469.8
2284.601	460.8
2288.505	455.8
2292.405	450.8
2296.302	441.8
2300.195	442.8
2304.085	433.8
2307.971	406.8
2311.854	427.8
2315.734	408.8
2319.609	401.8
2323.482	404.8
2327.351	408.8
2331.216	413.8
2335.078	428.8
2338.937	391.8
2342.792	389.8
2346.643	388.8
2350.492	391.8
2354.336	380.8
2358.178	390.8
2362.015	393.8
2365.85	388.8
2369.681	379.8
2373.508	388.8
2377.333	378.8
2381.153	386.8
2384.971	393.8
2388.785	383.8
2392.595	378.8
2396.402	370.8
2400.206	371.8
2404.007	361.8
2407.804	367.8
2411.597	349.8
2415.388	357.8
2419.174	352.8
2422.958	352.8
2426.738	348.8
2430.515	363.8
2434.289	344.8
2438.059	340.8
2441.825	337.8
2445.589	342.8
2449.349	333.8
2453.106	334.8
2456.859	318.8
2460.61	322.8
2464.356	319.8
2468.1	307.8
2471.84	311.8
2475.577	306.8
2479.311	306.8
2483.041	302.8
2486.768	300.8
2490.492	300.8
2494.213	299.8
2497.93	298.8
2501.644	296.8
2505.355	291.8
2509.062	285.8
2512.766	280.8
2516.467	278.8
2520.165	276.8
2523.859	277.8
2527.551	271.8
2531.239	269.8
2534.923	258.8
2538.605	248.8
2542.283	245.8
2545.958	262.8
2549.63	252.8
2553.299	250.8
2556.964	259.8
2560.626	244.8
2564.285	239.8
2567.941	244.8
2571.594	235.8
2575.243	236.8
2578.89	229.8
2582.533	223.8
2586.173	226.8
2589.809	217.8
2593.443	221.8
2597.073	218.8
2600.701	209.8
2604.325	206.8
2607.946	216.8
2611.564	210.8
2615.178	209.8
2618.79	208.8
2622.398	209.8
2626.004	203.8
2629.606	206.8
2633.205	190.8
2636.801	182.8
2640.394	195.8
2643.983	196.8
2647.57	189.8
2651.153	186.8
2654.734	189.8
2658.311	175.8
2661.885	177.8
2665.456	174.8
2669.025	175.8
2672.589	177.8
2676.151	171.8
2679.71	182.8
2683.266	174.8
2686.819	166.8
2690.368	169.8
2693.915	164.8
2697.458	157.8
2700.999	151.8
2704.536	145.8
2708.071	154.8
2711.602	139.8
2715.13	155.8
2718.656	141.8
2722.178	139.8
2725.697	134.8
2729.214	122.8
2732.727	145.8
2736.237	130.8
2739.744	130.8
2743.249	130.8
2746.75	128.8
2750.248	126.8
2753.743	116.8
2757.236	110.8
2760.725	120.8
2764.211	117.8
2767.695	119.8
2771.175	106.8
2774.652	98.8
2778.127	109.8
2781.598	106.8
2785.067	112.8
2788.532	114.8
2791.995	105.8
2795.455	114.8
2798.911	113.8
2802.365	115.8
2805.816	119.8
2809.264	112.8
2812.709	118.8
2816.151	110.8
2819.59	114.8
2823.026	116.8
2826.46	108.8
2829.89	108.8
2833.318	96.8
2836.742	108.8
2840.164	113.8
2843.583	104.8
2846.999	118.8
2850.412	111.8
2853.822	116.8
2857.229	118.8
2860.634	120.8
2864.035	118.8
2867.434	132.8
2870.83	139.8
2874.223	146.8
2877.613	149.8
2881	158.8
2884.385	151.8
2887.766	148.8
2891.145	130.8
2894.521	145.8
2897.894	157.8
2901.264	155.8
2904.631	152.8
2907.996	159.8
2911.358	160.8
2914.717	163.8
2918.073	166.8
2921.426	168.8
2924.777	179.8
2928.124	186.8
2931.469	185.8
2934.811	188.8
2938.15	193.8
2941.487	194.8
2944.821	188.8
2948.152	197.8
2951.48	200.8
2954.805	198.8
2958.128	188.8
2961.447	187.8
2964.765	192.8
2968.079	198.8
2971.39	200.8
2974.699	200.8
2978.005	198.8
2981.308	198.8
2984.609	203.8
2987.907	211.8
2991.202	217.8
2994.494	199.8
2997.784	212.8
3001.07	212.8
3004.355	216.8
3007.636	214.8
3010.915	219.8
3014.191	231.8
3017.464	231.8
3020.734	225.8
3024.002	224.8
3027.267	248.8
3030.53	249.8
3033.789	259.8
3037.046	261.8
3040.301	258.8
3043.552	275.8
3046.801	281.8
3050.048	287.8
3053.291	295.8
3056.532	291.8
3059.771	318.8
3063.006	332.8
3066.239	340.8
3069.469	353.8
3072.697	349.8
3075.922	359.8
3079.144	380.8
3082.364	389.8
3085.581	398.8
3088.795	396.8
3092.007	410.8
3095.216	419.8
3098.423	425.8
3101.627	432.8
3104.828	451.8
3108.026	458.8
3111.222	464.8
3114.416	471.8
3117.607	495.8
3120.795	510.8
3123.98	496.8
3127.163	519.8
3130.344	543.8
3133.521	544.8
3136.696	562.8
3139.869	570.8
3143.039	571.8
3146.206	579.8
3149.371	591.8
3152.533	603.8
3155.693	608.8
3158.85	618.8
3162.005	613.8
3165.157	623.8
3168.306	617.8
3171.453	624.8
3174.597	635.8
3177.739	629.8
3180.878	630.8
3184.014	640.8
3187.149	651.8
3190.28	647.8
3193.409	654.8
3196.536	641.8
3199.659	650.8
3202.781	654.8
3205.9	665.8
3209.016	661.8
3212.13	666.8
3215.241	659.8
3218.35	656.8
3221.456	640.8
3224.56	636.8
3227.661	630.8
3230.76	622.8
3233.856	615.8
3236.95	591.8
3240.041	586.8
3243.13	576.8
3246.216	582.8
3249.3	579.8
3252.382	568.8
3255.46	557.8
3258.537	545.8
3261.611	558.8
3264.682	537.8
3267.751	531.8
3270.818	549.8
3273.882	542.8
3276.943	521.8
3280.002	523.8
3283.059	523.8
3286.113	530.8
3289.165	507.8
3292.214	516.8
3295.261	491.8
3298.306	488.8
3301.348	480.8
3304.387	478.8
3307.425	470.8
3310.459	461.8
3313.492	463.8
3316.521	463.8
3319.549	457.8
3322.574	452.8
3325.597	447.8
3328.617	455.8
3331.635	443.8
3334.65	443.8
3337.663	424.8
3340.674	430.8
3343.682	441.8
3346.688	435.8
3349.691	432.8
3352.692	424.8
3355.691	435.8
3358.687	419.8
3361.681	428.8
3364.673	413.8
3367.662	412.8
3370.649	404.8
3373.633	389.8
3376.615	381.8
3379.595	387.8
3382.572	382.8
3385.547	371.8
3388.52	371.8
3391.49	359.8
3394.458	360.8
3397.424	348.8
3400.387	349.8
3403.348	344.8
3406.307	323.8
3409.263	322.8
3412.217	327.8
3415.168	329.8
3418.118	322.8
3421.065	305.8
3424.009	304.8
3426.951	297.8
3429.891	294.8
3432.829	278.8
3435.764	281.8
3438.697	274.8
3441.628	261.8
3444.557	258.8
3447.483	248.8
3450.407	232.8
3453.328	223.8
3456.247	215.8
3459.164	207.8
3462.079	195.8
3464.991	193.8
3467.902	184.8
3470.809	177.8
3473.715	159.8
3476.618	161.8
3479.519	161.8
3482.418	142.8
3485.315	140.8
3488.209	128.8
3491.101	127.8
3493.99	134.8
3496.878	120.8
3499.763	106.8
3502.646	98.8
3505.527	90.8
3508.405	90.8
3511.281	82.8
3514.155	78.8
3517.027	69.8
3519.897	62.8
3522.764	48.8
3525.629	47.8
3528.492	40.8
3531.352	31.8
3534.211	20.8
3537.067	15.8
3539.921	20.8
3542.773	14.8
3545.622	6.8
3548.469	0.8
3551.315	-5.2
3554.157	-14.2
3556.998	-21.2
3559.837	-21.2
3562.673	-22.2
3565.507	-20.2
3568.339	-29.2
3571.169	-39.2
3573.996	-36.2
3576.822	-36.2
3579.645	-35.2
3582.466	-42.2
3585.285	-52.2
3588.101	-36.2
3590.916	-57.2
3593.728	-62.2
3596.538	-62.2
3599.346	-66.2
3602.152	-63.2
3604.956	-74.2
3607.757	-65.2
3610.556	-72.2
3613.354	-75.2
3616.149	-82.2
3618.942	-81.2
3621.732	-84.2
3624.521	-86.2
3627.307	-79.2
3630.092	-87.2
3632.874	-82.2
3635.654	-90.2
3638.432	-94.2
3641.208	-94.2
3643.982	-95.2
3646.753	-99.2
3649.523	-101.2
3652.29	-93.2
3655.055	-93.2
3657.818	-102.2
3660.579	-104.2
3663.338	-101.2
3666.095	-105.2
3668.849	-111.2
3671.602	-110.2
3674.352	-113.2
3677.101	-113.2
3679.847	-116.2
3682.591	-116.2
3685.333	-114.2
3688.073	-112.2
3690.811	-115.2
3693.547	-125.2
3696.281	-117.2
3699.013	-127.2
3701.742	-127.2
3704.47	-121.2
3707.195	-121.2
3709.919	-116.2
3712.64	-122.2
3715.359	-125.2
3718.076	-126.2
3720.792	-125.2
3723.505	-131.2
3726.216	-123.2
3728.925	-126.2
3731.632	-128.2
3734.336	-137.2
3737.039	-127.2
3739.74	-135.2
3742.439	-143.2
3745.136	-127.2
3747.83	-139.2
3750.523	-130.2
3753.213	-132.2
3755.902	-132.2
3758.589	-141.2
3761.273	-131.2
3763.956	-131.2
3766.636	-131.2
3769.315	-130.2
3771.991	-125.2
3774.665	-138.2
3777.338	-127.2
3780.008	-133.2
3782.677	-134.2
3785.343	-136.2
3788.007	-137.2
3790.67	-131.2
3793.33	-134.2
3795.989	-136.2
3798.645	-132.2
3801.299	-140.2
3803.952	-142.2
3806.602	-134.2
3809.251	-139.2
3811.897	-144.2
3814.542	-141.2
3817.184	-129.2
3819.825	-137.2
3822.463	-141.2
3825.1	-139.2
3827.735	-139.2
3830.367	-138.2
3832.998	-138.2
3835.627	-135.2
3838.253	-131.2
3840.878	-138.2
3843.501	-134.2
3846.122	-140.2
3848.741	-145.2
3851.358	-132.2
3853.973	-143.2
3856.586	-137.2
3859.197	-144.2
3861.806	-134.2
3864.414	-140.2
3867.019	-138.2
3869.622	-135.2
3872.224	-126.2
3874.823	-113.2
3877.421	-100.2
3880.016	-81.2
3882.61	-58.2
3885.202	-59.2
3887.792	-78.2
3890.38	-96.2
3892.966	-126.2
3895.55	-126.2
3898.132	-136.2
3900.713	-140.2
3903.291	-139.2
3905.868	-141.2
3908.442	-138.2
3911.015	-142.2
3913.586	-143.2
3916.155	-144.2
3918.722	-142.2
3921.287	-140.2
3923.85	-137.2
3926.411	-147.2
3928.971	-143.2
3931.528	-145.2
3934.084	-140.2
3936.638	-136.2
3939.19	-144.2
3941.74	-145.2
3944.288	-137.2
3946.834	-140.2
3949.378	-140.2
3951.921	-138.2
3954.462	-146.2
3957	-140.2
3959.537	-134.2
3962.072	-137.2
3964.606	-133.2
3967.137	-143.2
3969.667	-144.2
3972.194	-146.2
3974.72	-139.2
3977.244	-141.2
3979.766	-141.2
3982.286	-142.2
3984.805	-137.2
3987.321	-140.2
3989.836	-135.2
3992.349	-141.2
3994.86	-139.2
3997.369	-140.2
3999.877	-139.2
4002.382	-132.2
4004.886	-140.2
4007.388	-140.2
4009.888	-140.2
4012.386	-142.2
4014.883	-142.2
4017.377	-142.2
4019.87	-139.2
4022.361	-135.2
4024.85	-141.2
4027.338	-142.2
4029.823	-138.2
4032.307	-138.2
4034.789	-146.2
4037.269	-145.2
4039.747	-134.2
4042.224	-142.2
4044.699	-140.2
4047.172	-138.2
4049.643	-131.2
4052.112	-140.2
4054.58	-139.2
4057.046	-139.2
4059.51	-141.2
4061.972	-132.2
4064.432	-140.2
4066.891	-142.2
4069.348	-139.2
4071.803	-141.2
4074.256	-140.2
4076.708	-137.2
4079.158	-134.2
4081.606	-133.2
4084.052	-140.2
4086.497	-140.2
4088.939	-132.2
4091.38	-137.2
4093.819	-138.2
4096.257	-144.2
4098.693	-145.2
4101.127	-146.2
4103.559	-143.2
4105.989	11.8
4108.418	9.8
4110.845	10.8
4113.27	8.8
4115.694	0.8
4118.115	-3.2
4120.535	-138.2
4122.954	-137.2
4125.37	-143.2
4127.785	-137.2
4130.198	-140.2
4132.609	-138.2
4135.019	-146.2
4137.427	-147.2
4139.833	-144.2
4142.237	-143.2
