Data from 2018-2-8_conc=4_n=2_RamanShift_04.txt Node
Date: Mon Mar 12 15:13:28 IST 2018
User: aro
Spectrometer: QEPB0276
Trigger mode: 0
Integration Time (sec): 3.000000E1
Scans to average: 1
Electric dark correction enabled: true
Nonlinearity correction enabled: false
Boxcar width: 0
XAxis mode: Raman Shifts
Number of Pixels in Spectrum: 1044
>>>>>Begin Spectral Data<<<<<
160.701	12.9
166.742	48.9
172.777	131.9
178.805	409.9
184.826	1127.9
190.841	2440.9
196.849	4069.9
202.85	5319.9
208.845	5814.9
214.833	5817.9
220.815	5746.9
226.789	5703.9
232.758	5707.9
238.719	5704.9
244.674	5666.9
250.623	5613.9
256.565	5531.9
262.5	5440.9
268.429	5384.9
274.351	5335.9
280.267	5317.9
286.176	5262.9
292.079	5255.9
297.975	5223.9
303.865	5202.9
309.748	5185.9
315.625	5172.9
321.495	5146.9
327.359	5166.9
333.217	5155.9
339.068	5131.9
344.912	5160.9
350.751	5155.9
356.583	5177.9
362.408	5185.9
368.227	5165.9
374.04	5196.9
379.847	5217.9
385.647	5241.9
391.44	5262.9
397.228	5263.9
403.009	5311.9
408.784	5333.9
414.553	5332.9
420.315	5349.9
426.071	5361.9
431.821	5367.9
437.565	5383.9
443.302	5328.9
449.033	5317.9
454.758	5302.9
460.477	5276.9
466.189	5272.9
471.896	5243.9
477.596	5204.9
483.29	5184.9
488.978	5182.9
494.66	5168.9
500.335	5075.9
506.005	4986.9
511.668	4868.9
517.325	4701.9
522.977	4602.9
528.622	4498.9
534.261	4439.9
539.894	4403.9
545.521	4362.9
551.141	4359.9
556.756	4297.9
562.365	4282.9
567.968	4277.9
573.565	4244.9
579.155	4215.9
584.74	4212.9
590.319	4206.9
595.892	4162.9
601.459	4147.9
607.02	4116.9
612.575	4134.9
618.124	4075.9
623.667	4043.9
629.204	4027.9
634.735	3960.9
640.261	3953.9
645.781	3954.9
651.294	3946.9
656.802	3928.9
662.304	3914.9
667.8	3892.9
673.29	3899.9
678.775	3881.9
684.254	3840.9
689.726	3845.9
695.193	3848.9
700.655	3822.9
706.11	3797.9
711.56	3796.9
717.004	3759.9
722.442	3725.9
727.874	3721.9
733.301	3708.9
738.722	3669.9
744.137	3686.9
749.547	3698.9
754.951	3673.9
760.349	3663.9
765.741	3674.9
771.128	3669.9
776.509	3727.9
781.885	3723.9
787.254	3719.9
792.618	3729.9
797.977	3711.9
803.33	3707.9
808.677	3647.9
814.019	3649.9
819.355	3633.9
824.686	3584.9
830.011	3589.9
835.33	3576.9
840.644	3561.9
845.952	3575.9
851.255	3535.9
856.552	3544.9
861.844	3516.9
867.13	3510.9
872.41	3477.9
877.686	3479.9
882.955	3432.9
888.219	3437.9
893.478	3380.9
898.731	3326.9
903.979	3286.9
909.221	3243.9
914.458	3230.9
919.69	3226.9
924.916	3253.9
930.136	3228.9
935.351	3237.9
940.561	3237.9
945.766	3257.9
950.965	3221.9
956.158	3207.9
961.347	3174.9
966.529	3135.9
971.707	3087.9
976.879	3040.9
982.046	3011.9
987.208	3010.9
992.364	3027.9
997.515	3024.9
1002.66	3073.9
1007.801	3049.9
1012.936	3089.9
1018.066	3121.9
1023.19	3096.9
1028.309	3104.9
1033.423	3090.9
1038.532	3100.9
1043.636	3081.9
1048.734	3031.9
1053.827	3001.9
1058.915	2963.9
1063.998	2957.9
1069.075	2934.9
1074.147	2917.9
1079.214	2940.9
1084.276	2941.9
1089.333	2964.9
1094.385	2971.9
1099.431	2939.9
1104.472	2958.9
1109.509	2946.9
1114.54	2901.9
1119.565	2875.9
1124.586	2844.9
1129.602	2811.9
1134.613	2780.9
1139.618	2750.9
1144.619	2747.9
1149.614	2754.9
1154.604	2766.9
1159.589	2757.9
1164.57	2745.9
1169.545	2790.9
1174.515	2779.9
1179.48	2773.9
1184.44	2743.9
1189.395	2706.9
1194.345	2687.9
1199.29	2667.9
1204.23	2677.9
1209.165	2679.9
1214.095	2709.9
1219.021	2696.9
1223.941	2744.9
1228.856	2714.9
1233.766	2750.9
1238.672	2752.9
1243.572	2712.9
1248.467	2731.9
1253.358	2709.9
1258.244	2652.9
1263.124	2611.9
1268	2568.9
1272.871	2546.9
1277.737	2490.9
1282.599	2509.9
1287.455	2507.9
1292.306	2514.9
1297.153	2528.9
1301.995	2547.9
1306.832	2556.9
1311.664	2580.9
1316.491	2568.9
1321.314	2570.9
1326.132	2547.9
1330.945	2528.9
1335.753	2480.9
1340.556	2448.9
1345.354	2412.9
1350.148	2368.9
1354.937	2325.9
1359.722	2302.9
1364.501	2280.9
1369.276	2209.9
1374.046	2201.9
1378.811	2169.9
1383.572	2158.9
1388.327	2145.9
1393.079	2147.9
1397.825	2162.9
1402.567	2142.9
1407.304	2169.9
1412.036	2160.9
1416.764	2146.9
1421.487	2160.9
1426.205	2169.9
1430.919	2163.9
1435.628	2181.9
1440.333	2203.9
1445.032	2226.9
1449.727	2240.9
1454.418	2230.9
1459.104	2243.9
1463.785	2203.9
1468.462	2176.9
1473.134	2130.9
1477.802	2089.9
1482.465	2040.9
1487.123	1990.9
1491.777	1969.9
1496.426	1942.9
1501.071	1940.9
1505.711	1924.9
1510.347	1913.9
1514.978	1931.9
1519.604	1924.9
1524.226	1926.9
1528.844	1898.9
1533.457	1899.9
1538.065	1889.9
1542.669	1882.9
1547.269	1870.9
1551.864	1890.9
1556.454	1913.9
1561.041	1913.9
1565.622	1924.9
1570.199	1933.9
1574.772	1955.9
1579.34	1981.9
1583.904	2015.9
1588.464	2034.9
1593.019	2003.9
1597.569	2018.9
1602.115	1996.9
1606.657	2030.9
1611.195	2015.9
1615.728	1998.9
1620.256	1991.9
1624.78	2006.9
1629.3	1995.9
1633.816	2000.9
1638.327	2030.9
1642.834	2032.9
1647.336	2025.9
1651.834	2043.9
1656.328	2020.9
1660.817	2021.9
1665.302	2001.9
1669.783	1965.9
1674.259	1911.9
1678.732	1869.9
1683.199	1828.9
1687.663	1766.9
1692.122	1696.9
1696.577	1644.9
1701.028	1591.9
1705.474	1537.9
1709.917	1492.9
1714.355	1439.9
1718.788	1449.9
1723.218	1439.9
1727.643	1425.9
1732.064	1429.9
1736.481	1428.9
1740.893	1393.9
1745.301	1367.9
1749.705	1330.9
1754.105	1315.9
1758.501	1276.9
1762.893	1269.9
1767.28	1254.9
1771.663	1255.9
1776.042	1238.9
1780.417	1229.9
1784.787	1217.9
1789.154	1190.9
1793.516	1202.9
1797.874	1164.9
1802.228	1164.9
1806.578	1154.9
1810.924	1118.9
1815.266	1124.9
1819.603	1132.9
1823.937	1124.9
1828.266	1118.9
1832.591	1126.9
1836.913	1112.9
1841.23	1127.9
1845.543	1115.9
1849.852	1115.9
1854.156	1112.9
1858.457	1131.9
1862.754	1122.9
1867.047	1120.9
1871.335	1119.9
1875.62	1128.9
1879.9	1118.9
1884.177	1094.9
1888.449	1085.9
1892.718	1065.9
1896.982	1071.9
1901.243	1048.9
1905.499	1044.9
1909.752	1030.9
1914	1007.9
1918.245	995.9
1922.485	979.9
1926.722	985.9
1930.954	977.9
1935.183	970.9
1939.408	959.9
1943.628	966.9
1947.845	953.9
1952.058	937.9
1956.267	945.9
1960.472	926.9
1964.673	923.9
1968.87	921.9
1973.063	912.9
1977.252	906.9
1981.438	912.9
1985.619	907.9
1989.797	900.9
1993.971	908.9
1998.14	919.9
2002.306	912.9
2006.469	923.9
2010.627	917.9
2014.781	923.9
2018.932	910.9
2023.078	917.9
2027.221	898.9
2031.36	891.9
2035.495	872.9
2039.627	861.9
2043.754	858.9
2047.878	858.9
2051.998	840.9
2056.114	837.9
2060.226	841.9
2064.334	842.9
2068.439	836.9
2072.54	836.9
2076.637	827.9
2080.73	809.9
2084.82	804.9
2088.906	808.9
2092.988	820.9
2097.066	793.9
2101.14	784.9
2105.211	777.9
2109.278	753.9
2113.342	752.9
2117.401	739.9
2121.457	748.9
2125.509	732.9
2129.558	744.9
2133.602	735.9
2137.643	742.9
2141.681	740.9
2145.714	730.9
2149.744	724.9
2153.77	749.9
2157.793	741.9
2161.812	721.9
2165.827	714.9
2169.838	706.9
2173.846	693.9
2177.851	694.9
2181.851	673.9
2185.848	663.9
2189.841	668.9
2193.831	665.9
2197.817	649.9
2201.799	641.9
2205.778	649.9
2209.753	647.9
2213.725	647.9
2217.693	641.9
2221.657	655.9
2225.618	649.9
2229.575	648.9
2233.529	635.9
2237.479	636.9
2241.425	621.9
2245.368	611.9
2249.307	605.9
2253.243	595.9
2257.175	572.9
2261.104	574.9
2265.029	561.9
2268.95	562.9
2272.868	561.9
2276.783	550.9
2280.694	542.9
2284.601	544.9
2288.505	538.9
2292.405	523.9
2296.302	527.9
2300.195	510.9
2304.085	516.9
2307.971	488.9
2311.854	496.9
2315.734	472.9
2319.609	473.9
2323.482	476.9
2327.351	479.9
2331.216	490.9
2335.078	488.9
2338.937	478.9
2342.792	462.9
2346.643	451.9
2350.492	459.9
2354.336	442.9
2358.178	453.9
2362.015	459.9
2365.85	462.9
2369.681	459.9
2373.508	454.9
2377.333	450.9
2381.153	455.9
2384.971	467.9
2388.785	461.9
2392.595	445.9
2396.402	450.9
2400.206	432.9
2404.007	444.9
2407.804	437.9
2411.597	436.9
2415.388	425.9
2419.174	427.9
2422.958	418.9
2426.738	430.9
2430.515	412.9
2434.289	424.9
2438.059	410.9
2441.825	409.9
2445.589	412.9
2449.349	391.9
2453.106	394.9
2456.859	387.9
2460.61	389.9
2464.356	380.9
2468.1	376.9
2471.84	370.9
2475.577	368.9
2479.311	354.9
2483.041	356.9
2486.768	369.9
2490.492	360.9
2494.213	363.9
2497.93	361.9
2501.644	360.9
2505.355	342.9
2509.062	348.9
2512.766	341.9
2516.467	343.9
2520.165	339.9
2523.859	328.9
2527.551	329.9
2531.239	317.9
2534.923	313.9
2538.605	312.9
2542.283	308.9
2545.958	297.9
2549.63	302.9
2553.299	300.9
2556.964	301.9
2560.626	289.9
2564.285	287.9
2567.941	292.9
2571.594	287.9
2575.243	287.9
2578.89	278.9
2582.533	269.9
2586.173	267.9
2589.809	261.9
2593.443	262.9
2597.073	259.9
2600.701	255.9
2604.325	245.9
2607.946	253.9
2611.564	252.9
2615.178	263.9
2618.79	254.9
2622.398	249.9
2626.004	242.9
2629.606	244.9
2633.205	237.9
2636.801	241.9
2640.394	239.9
2643.983	238.9
2647.57	240.9
2651.153	229.9
2654.734	229.9
2658.311	216.9
2661.885	208.9
2665.456	215.9
2669.025	222.9
2672.589	222.9
2676.151	221.9
2679.71	219.9
2683.266	210.9
2686.819	201.9
2690.368	199.9
2693.915	190.9
2697.458	200.9
2700.999	193.9
2704.536	183.9
2708.071	182.9
2711.602	182.9
2715.13	176.9
2718.656	174.9
2722.178	174.9
2725.697	174.9
2729.214	159.9
2732.727	166.9
2736.237	168.9
2739.744	169.9
2743.249	157.9
2746.75	152.9
2750.248	157.9
2753.743	142.9
2757.236	145.9
2760.725	146.9
2764.211	148.9
2767.695	134.9
2771.175	124.9
2774.652	132.9
2778.127	141.9
2781.598	135.9
2785.067	144.9
2788.532	138.9
2791.995	137.9
2795.455	142.9
2798.911	135.9
2802.365	137.9
2805.816	143.9
2809.264	136.9
2812.709	147.9
2816.151	145.9
2819.59	140.9
2823.026	126.9
2826.46	135.9
2829.89	132.9
2833.318	133.9
2836.742	139.9
2840.164	148.9
2843.583	141.9
2846.999	142.9
2850.412	141.9
2853.822	140.9
2857.229	144.9
2860.634	147.9
2864.035	157.9
2867.434	165.9
2870.83	165.9
2874.223	172.9
2877.613	173.9
2881	185.9
2884.385	177.9
2887.766	184.9
2891.145	183.9
2894.521	180.9
2897.894	197.9
2901.264	189.9
2904.631	184.9
2907.996	186.9
2911.358	192.9
2914.717	193.9
2918.073	203.9
2921.426	204.9
2924.777	214.9
2928.124	215.9
2931.469	207.9
2934.811	221.9
2938.15	226.9
2941.487	239.9
2944.821	235.9
2948.152	234.9
2951.48	231.9
2954.805	244.9
2958.128	231.9
2961.447	225.9
2964.765	232.9
2968.079	223.9
2971.39	224.9
2974.699	232.9
2978.005	232.9
2981.308	238.9
2984.609	242.9
2987.907	230.9
2991.202	240.9
2994.494	239.9
2997.784	238.9
3001.07	252.9
3004.355	257.9
3007.636	255.9
3010.915	260.9
3014.191	257.9
3017.464	269.9
3020.734	266.9
3024.002	259.9
3027.267	281.9
3030.53	291.9
3033.789	296.9
3037.046	291.9
3040.301	292.9
3043.552	308.9
3046.801	315.9
3050.048	336.9
3053.291	333.9
3056.532	354.9
3059.771	359.9
3063.006	373.9
3066.239	383.9
3069.469	396.9
3072.697	403.9
3075.922	412.9
3079.144	433.9
3082.364	439.9
3085.581	447.9
3088.795	449.9
3092.007	458.9
3095.216	468.9
3098.423	486.9
3101.627	506.9
3104.828	509.9
3108.026	520.9
3111.222	529.9
3114.416	535.9
3117.607	550.9
3120.795	567.9
3123.98	570.9
3127.163	588.9
3130.344	608.9
3133.521	621.9
3136.696	633.9
3139.869	635.9
3143.039	646.9
3146.206	644.9
3149.371	664.9
3152.533	675.9
3155.693	683.9
3158.85	695.9
3162.005	695.9
3165.157	701.9
3168.306	708.9
3171.453	704.9
3174.597	701.9
3177.739	708.9
3180.878	713.9
3184.014	719.9
3187.149	724.9
3190.28	724.9
3193.409	722.9
3196.536	726.9
3199.659	732.9
3202.781	727.9
3205.9	738.9
3209.016	747.9
3212.13	731.9
3215.241	730.9
3218.35	723.9
3221.456	715.9
3224.56	706.9
3227.661	697.9
3230.76	696.9
3233.856	684.9
3236.95	663.9
3240.041	663.9
3243.13	642.9
3246.216	648.9
3249.3	631.9
3252.382	627.9
3255.46	615.9
3258.537	618.9
3261.611	629.9
3264.682	590.9
3267.751	603.9
3270.818	592.9
3273.882	589.9
3276.943	584.9
3280.002	600.9
3283.059	586.9
3286.113	573.9
3289.165	586.9
3292.214	565.9
3295.261	560.9
3298.306	553.9
3301.348	550.9
3304.387	538.9
3307.425	524.9
3310.459	540.9
3313.492	522.9
3316.521	523.9
3319.549	515.9
3322.574	515.9
3325.597	517.9
3328.617	516.9
3331.635	496.9
3334.65	491.9
3337.663	495.9
3340.674	504.9
3343.682	501.9
3346.688	497.9
3349.691	495.9
3352.692	494.9
3355.691	484.9
3358.687	483.9
3361.681	477.9
3364.673	485.9
3367.662	464.9
3370.649	463.9
3373.633	438.9
3376.615	432.9
3379.595	437.9
3382.572	422.9
3385.547	428.9
3388.52	419.9
3391.49	416.9
3394.458	409.9
3397.424	386.9
3400.387	391.9
3403.348	384.9
3406.307	367.9
3409.263	361.9
3412.217	372.9
3415.168	371.9
3418.118	370.9
3421.065	354.9
3424.009	353.9
3426.951	327.9
3429.891	334.9
3432.829	324.9
3435.764	328.9
3438.697	305.9
3441.628	307.9
3444.557	301.9
3447.483	281.9
3450.407	267.9
3453.328	262.9
3456.247	256.9
3459.164	239.9
3462.079	230.9
3464.991	224.9
3467.902	207.9
3470.809	215.9
3473.715	193.9
3476.618	186.9
3479.519	187.9
3482.418	175.9
3485.315	168.9
3488.209	155.9
3491.101	153.9
3493.99	158.9
3496.878	139.9
3499.763	123.9
3502.646	127.9
3505.527	114.9
3508.405	115.9
3511.281	98.9
3514.155	95.9
3517.027	82.9
3519.897	76.9
3522.764	71.9
3525.629	60.9
3528.492	54.9
3531.352	54.9
3534.211	41.9
3537.067	29.9
3539.921	31.9
3542.773	19.9
3545.622	11.9
3548.469	7.9
3551.315	9.9
3554.157	-4.1
3556.998	-9.1
3559.837	-7.1
3562.673	-11.1
3565.507	-9.1
3568.339	-18.1
3571.169	-31.1
3573.996	-25.1
3576.822	-31.1
3579.645	-30.1
3582.466	-33.1
3585.285	-44.1
3588.101	-30.1
3590.916	-48.1
3593.728	-52.1
3596.538	-56.1
3599.346	-58.1
3602.152	-60.1
3604.956	-62.1
3607.757	-65.1
3610.556	-70.1
3613.354	-66.1
3616.149	-73.1
3618.942	-74.1
3621.732	-72.1
3624.521	-76.1
3627.307	-81.1
3630.092	-79.1
3632.874	-85.1
3635.654	-90.1
3638.432	-86.1
3641.208	-82.1
3643.982	-90.1
3646.753	-94.1
3649.523	-100.1
3652.29	-96.1
3655.055	-103.1
3657.818	-102.1
3660.579	-96.1
3663.338	-104.1
3666.095	-106.1
3668.849	-108.1
3671.602	-107.1
3674.352	-110.1
3677.101	-117.1
3679.847	-121.1
3682.591	-113.1
3685.333	-111.1
3688.073	-113.1
3690.811	-121.1
3693.547	-127.1
3696.281	-126.1
3699.013	-122.1
3701.742	-125.1
3704.47	-127.1
3707.195	-118.1
3709.919	-126.1
3712.64	-124.1
3715.359	-130.1
3718.076	-126.1
3720.792	-130.1
3723.505	-131.1
3726.216	-123.1
3728.925	-132.1
3731.632	-130.1
3734.336	-139.1
3737.039	-130.1
3739.74	-139.1
3742.439	-142.1
3745.136	-129.1
3747.83	-137.1
3750.523	-139.1
3753.213	-138.1
3755.902	-128.1
3758.589	-139.1
3761.273	-129.1
3763.956	-132.1
3766.636	-139.1
3769.315	-131.1
3771.991	-131.1
3774.665	-136.1
3777.338	-127.1
3780.008	-135.1
3782.677	-139.1
3785.343	-137.1
3788.007	-144.1
3790.67	-140.1
3793.33	-135.1
3795.989	-136.1
3798.645	-135.1
3801.299	-135.1
3803.952	-142.1
3806.602	-135.1
3809.251	-145.1
3811.897	-144.1
3814.542	-146.1
3817.184	-135.1
3819.825	-137.1
3822.463	-139.1
3825.1	-138.1
3827.735	-138.1
3830.367	-146.1
3832.998	-147.1
3835.627	-138.1
3838.253	-138.1
3840.878	-141.1
3843.501	-137.1
3846.122	-142.1
3848.741	-142.1
3851.358	-138.1
3853.973	-147.1
3856.586	-139.1
3859.197	-148.1
3861.806	-135.1
3864.414	-138.1
3867.019	-135.1
3869.622	-143.1
3872.224	-134.1
3874.823	-123.1
3877.421	-114.1
3880.016	-85.1
3882.61	-64.1
3885.202	-59.1
3887.792	-78.1
3890.38	-108.1
3892.966	-129.1
3895.55	-135.1
3898.132	-140.1
3900.713	-137.1
3903.291	-148.1
3905.868	-143.1
3908.442	-138.1
3911.015	-147.1
3913.586	-146.1
3916.155	-145.1
3918.722	-150.1
3921.287	-147.1
3923.85	-146.1
3926.411	-146.1
3928.971	-141.1
3931.528	-146.1
3934.084	-142.1
3936.638	-139.1
3939.19	-151.1
3941.74	-150.1
3944.288	-143.1
3946.834	-139.1
3949.378	-142.1
3951.921	-147.1
3954.462	-151.1
3957	-144.1
3959.537	-145.1
3962.072	-142.1
3964.606	-141.1
3967.137	-137.1
3969.667	-146.1
3972.194	-149.1
3974.72	-143.1
3977.244	-142.1
3979.766	-143.1
3982.286	-141.1
3984.805	-141.1
3987.321	-144.1
3989.836	-135.1
3992.349	-145.1
3994.86	-142.1
3997.369	-143.1
3999.877	-143.1
4002.382	-140.1
4004.886	-143.1
4007.388	-136.1
4009.888	-136.1
4012.386	-146.1
4014.883	-142.1
4017.377	-143.1
4019.87	-143.1
4022.361	-146.1
4024.85	-146.1
4027.338	-142.1
4029.823	-137.1
4032.307	-140.1
4034.789	-143.1
4037.269	-148.1
4039.747	-143.1
4042.224	-143.1
4044.699	-144.1
4047.172	-137.1
4049.643	-137.1
4052.112	-139.1
4054.58	-141.1
4057.046	-144.1
4059.51	-146.1
4061.972	-144.1
4064.432	-138.1
4066.891	-141.1
4069.348	-137.1
4071.803	-146.1
4074.256	-139.1
4076.708	-141.1
4079.158	-145.1
4081.606	-134.1
4084.052	-143.1
4086.497	-138.1
4088.939	-131.1
4091.38	-139.1
4093.819	-139.1
4096.257	-146.1
4098.693	-147.1
4101.127	-147.1
4103.559	-147.1
4105.989	6.9
4108.418	4.9
4110.845	6.9
4113.27	9.9
4115.694	-8.1
4118.115	0.9
4120.535	-145.1
4122.954	-146.1
4125.37	-141.1
4127.785	-140.1
4130.198	-135.1
4132.609	-139.1
4135.019	-146.1
4137.427	-154.1
4139.833	-151.1
4142.237	-152.1
