Data from 2018-2-8_conc=3_n=7_RamanShift_05.txt Node
Date: Mon Mar 12 14:49:58 IST 2018
User: aro
Spectrometer: QEPB0276
Trigger mode: 0
Integration Time (sec): 3.000000E1
Scans to average: 1
Electric dark correction enabled: true
Nonlinearity correction enabled: false
Boxcar width: 0
XAxis mode: Raman Shifts
Number of Pixels in Spectrum: 1044
>>>>>Begin Spectral Data<<<<<
160.701	14.6
166.742	49.6
172.777	117.6
178.805	397.6
184.826	1073.6
190.841	2348.6
196.849	3936.6
202.85	5163.6
208.845	5665.6
214.833	5710.6
220.815	5608.6
226.789	5594.6
232.758	5613.6
238.719	5564.6
244.674	5554.6
250.623	5498.6
256.565	5439.6
262.5	5368.6
268.429	5285.6
274.351	5254.6
280.267	5221.6
286.176	5173.6
292.079	5101.6
297.975	5122.6
303.865	5096.6
309.748	5091.6
315.625	5070.6
321.495	5060.6
327.359	5063.6
333.217	5051.6
339.068	5060.6
344.912	5077.6
350.751	5052.6
356.583	5078.6
362.408	5087.6
368.227	5095.6
374.04	5079.6
379.847	5112.6
385.647	5152.6
391.44	5182.6
397.228	5208.6
403.009	5213.6
408.784	5239.6
414.553	5264.6
420.315	5243.6
426.071	5284.6
431.821	5290.6
437.565	5248.6
443.302	5292.6
449.033	5229.6
454.758	5185.6
460.477	5181.6
466.189	5156.6
471.896	5172.6
477.596	5088.6
483.29	5100.6
488.978	5083.6
494.66	5056.6
500.335	5018.6
506.005	4898.6
511.668	4753.6
517.325	4653.6
522.977	4528.6
528.622	4448.6
534.261	4367.6
539.894	4323.6
545.521	4263.6
551.141	4240.6
556.756	4243.6
562.365	4214.6
567.968	4200.6
573.565	4139.6
579.155	4159.6
584.74	4119.6
590.319	4144.6
595.892	4098.6
601.459	4106.6
607.02	4074.6
612.575	4027.6
618.124	4017.6
623.667	3981.6
629.204	3956.6
634.735	3920.6
640.261	3878.6
645.781	3860.6
651.294	3870.6
656.802	3869.6
662.304	3861.6
667.8	3844.6
673.29	3824.6
678.775	3812.6
684.254	3777.6
689.726	3786.6
695.193	3759.6
700.655	3754.6
706.11	3741.6
711.56	3706.6
717.004	3694.6
722.442	3673.6
727.874	3626.6
733.301	3620.6
738.722	3629.6
744.137	3614.6
749.547	3611.6
754.951	3603.6
760.349	3597.6
765.741	3627.6
771.128	3610.6
776.509	3617.6
781.885	3657.6
787.254	3681.6
792.618	3687.6
797.977	3642.6
803.33	3628.6
808.677	3587.6
814.019	3601.6
819.355	3533.6
824.686	3535.6
830.011	3513.6
835.33	3489.6
840.644	3489.6
845.952	3466.6
851.255	3477.6
856.552	3468.6
861.844	3440.6
867.13	3438.6
872.41	3417.6
877.686	3391.6
882.955	3350.6
888.219	3324.6
893.478	3313.6
898.731	3278.6
903.979	3202.6
909.221	3186.6
914.458	3185.6
919.69	3146.6
924.916	3154.6
930.136	3179.6
935.351	3186.6
940.561	3204.6
945.766	3171.6
950.965	3181.6
956.158	3120.6
961.347	3114.6
966.529	3092.6
971.707	3029.6
976.879	2998.6
982.046	2966.6
987.208	2948.6
992.364	2939.6
997.515	2965.6
1002.66	3022.6
1007.801	3009.6
1012.936	3033.6
1018.066	3042.6
1023.19	3030.6
1028.309	3032.6
1033.423	3045.6
1038.532	3015.6
1043.636	3007.6
1048.734	2970.6
1053.827	2912.6
1058.915	2903.6
1063.998	2897.6
1069.075	2866.6
1074.147	2877.6
1079.214	2893.6
1084.276	2898.6
1089.333	2888.6
1094.385	2905.6
1099.431	2944.6
1104.472	2911.6
1109.509	2871.6
1114.54	2866.6
1119.565	2810.6
1124.586	2778.6
1129.602	2761.6
1134.613	2723.6
1139.618	2696.6
1144.619	2694.6
1149.614	2692.6
1154.604	2708.6
1159.589	2707.6
1164.57	2740.6
1169.545	2736.6
1174.515	2741.6
1179.48	2711.6
1184.44	2676.6
1189.395	2659.6
1194.345	2651.6
1199.29	2613.6
1204.23	2633.6
1209.165	2632.6
1214.095	2653.6
1219.021	2649.6
1223.941	2682.6
1228.856	2675.6
1233.766	2673.6
1238.672	2710.6
1243.572	2675.6
1248.467	2674.6
1253.358	2651.6
1258.244	2611.6
1263.124	2562.6
1268	2516.6
1272.871	2474.6
1277.737	2472.6
1282.599	2454.6
1287.455	2462.6
1292.306	2447.6
1297.153	2456.6
1301.995	2477.6
1306.832	2464.6
1311.664	2522.6
1316.491	2509.6
1321.314	2497.6
1326.132	2497.6
1330.945	2452.6
1335.753	2432.6
1340.556	2373.6
1345.354	2348.6
1350.148	2314.6
1354.937	2282.6
1359.722	2241.6
1364.501	2212.6
1369.276	2172.6
1374.046	2128.6
1378.811	2102.6
1383.572	2083.6
1388.327	2066.6
1393.079	2064.6
1397.825	2096.6
1402.567	2076.6
1407.304	2090.6
1412.036	2105.6
1416.764	2083.6
1421.487	2128.6
1426.205	2120.6
1430.919	2121.6
1435.628	2126.6
1440.333	2151.6
1445.032	2150.6
1449.727	2180.6
1454.418	2191.6
1459.104	2166.6
1463.785	2159.6
1468.462	2106.6
1473.134	2084.6
1477.802	2035.6
1482.465	1989.6
1487.123	1946.6
1491.777	1928.6
1496.426	1898.6
1501.071	1887.6
1505.711	1870.6
1510.347	1872.6
1514.978	1843.6
1519.604	1880.6
1524.226	1870.6
1528.844	1845.6
1533.457	1838.6
1538.065	1826.6
1542.669	1843.6
1547.269	1803.6
1551.864	1835.6
1556.454	1831.6
1561.041	1852.6
1565.622	1855.6
1570.199	1885.6
1574.772	1874.6
1579.34	1917.6
1583.904	1924.6
1588.464	1922.6
1593.019	1956.6
1597.569	1950.6
1602.115	1954.6
1606.657	1952.6
1611.195	1935.6
1615.728	1948.6
1620.256	1927.6
1624.78	1932.6
1629.3	1921.6
1633.816	1938.6
1638.327	1943.6
1642.834	1947.6
1647.336	1970.6
1651.834	1979.6
1656.328	1942.6
1660.817	1951.6
1665.302	1939.6
1669.783	1880.6
1674.259	1854.6
1678.732	1818.6
1683.199	1777.6
1687.663	1711.6
1692.122	1658.6
1696.577	1571.6
1701.028	1524.6
1705.474	1488.6
1709.917	1435.6
1714.355	1404.6
1718.788	1376.6
1723.218	1393.6
1727.643	1382.6
1732.064	1378.6
1736.481	1382.6
1740.893	1344.6
1745.301	1311.6
1749.705	1289.6
1754.105	1265.6
1758.501	1249.6
1762.893	1227.6
1767.28	1204.6
1771.663	1185.6
1776.042	1180.6
1780.417	1164.6
1784.787	1162.6
1789.154	1167.6
1793.516	1150.6
1797.874	1133.6
1802.228	1110.6
1806.578	1094.6
1810.924	1089.6
1815.266	1080.6
1819.603	1082.6
1823.937	1074.6
1828.266	1065.6
1832.591	1057.6
1836.913	1075.6
1841.23	1077.6
1845.543	1067.6
1849.852	1066.6
1854.156	1084.6
1858.457	1068.6
1862.754	1072.6
1867.047	1082.6
1871.335	1076.6
1875.62	1086.6
1879.9	1069.6
1884.177	1080.6
1888.449	1057.6
1892.718	1041.6
1896.982	1027.6
1901.243	1021.6
1905.499	996.6
1909.752	996.6
1914	977.6
1918.245	972.6
1922.485	955.6
1926.722	935.6
1930.954	936.6
1935.183	945.6
1939.408	929.6
1943.628	932.6
1947.845	904.6
1952.058	917.6
1956.267	906.6
1960.472	879.6
1964.673	902.6
1968.87	872.6
1973.063	879.6
1977.252	875.6
1981.438	870.6
1985.619	871.6
1989.797	860.6
1993.971	869.6
1998.14	877.6
2002.306	862.6
2006.469	866.6
2010.627	880.6
2014.781	880.6
2018.932	867.6
2023.078	867.6
2027.221	872.6
2031.36	859.6
2035.495	840.6
2039.627	830.6
2043.754	831.6
2047.878	820.6
2051.998	811.6
2056.114	804.6
2060.226	811.6
2064.334	804.6
2068.439	792.6
2072.54	799.6
2076.637	793.6
2080.73	794.6
2084.82	792.6
2088.906	786.6
2092.988	783.6
2097.066	773.6
2101.14	767.6
2105.211	746.6
2109.278	733.6
2113.342	730.6
2117.401	728.6
2121.457	717.6
2125.509	706.6
2129.558	700.6
2133.602	701.6
2137.643	713.6
2141.681	706.6
2145.714	715.6
2149.744	694.6
2153.77	700.6
2157.793	697.6
2161.812	685.6
2165.827	690.6
2169.838	672.6
2173.846	666.6
2177.851	660.6
2181.851	644.6
2185.848	638.6
2189.841	641.6
2193.831	631.6
2197.817	621.6
2201.799	623.6
2205.778	630.6
2209.753	614.6
2213.725	616.6
2217.693	614.6
2221.657	620.6
2225.618	616.6
2229.575	615.6
2233.529	604.6
2237.479	609.6
2241.425	595.6
2245.368	588.6
2249.307	572.6
2253.243	569.6
2257.175	555.6
2261.104	555.6
2265.029	539.6
2268.95	545.6
2272.868	530.6
2276.783	528.6
2280.694	523.6
2284.601	515.6
2288.505	518.6
2292.405	505.6
2296.302	497.6
2300.195	485.6
2304.085	487.6
2307.971	477.6
2311.854	477.6
2315.734	469.6
2319.609	457.6
2323.482	450.6
2327.351	454.6
2331.216	469.6
2335.078	482.6
2338.937	454.6
2342.792	441.6
2346.643	443.6
2350.492	439.6
2354.336	444.6
2358.178	443.6
2362.015	448.6
2365.85	447.6
2369.681	442.6
2373.508	444.6
2377.333	463.6
2381.153	443.6
2384.971	453.6
2388.785	444.6
2392.595	427.6
2396.402	436.6
2400.206	437.6
2404.007	429.6
2407.804	426.6
2411.597	427.6
2415.388	423.6
2419.174	411.6
2422.958	407.6
2426.738	422.6
2430.515	417.6
2434.289	415.6
2438.059	399.6
2441.825	404.6
2445.589	391.6
2449.349	388.6
2453.106	386.6
2456.859	382.6
2460.61	381.6
2464.356	368.6
2468.1	373.6
2471.84	360.6
2475.577	365.6
2479.311	357.6
2483.041	349.6
2486.768	352.6
2490.492	343.6
2494.213	355.6
2497.93	347.6
2501.644	351.6
2505.355	342.6
2509.062	323.6
2512.766	335.6
2516.467	328.6
2520.165	312.6
2523.859	328.6
2527.551	319.6
2531.239	305.6
2534.923	313.6
2538.605	309.6
2542.283	297.6
2545.958	295.6
2549.63	296.6
2553.299	297.6
2556.964	293.6
2560.626	285.6
2564.285	285.6
2567.941	285.6
2571.594	278.6
2575.243	273.6
2578.89	269.6
2582.533	262.6
2586.173	257.6
2589.809	251.6
2593.443	257.6
2597.073	250.6
2600.701	238.6
2604.325	240.6
2607.946	246.6
2611.564	248.6
2615.178	247.6
2618.79	250.6
2622.398	239.6
2626.004	237.6
2629.606	242.6
2633.205	232.6
2636.801	230.6
2640.394	231.6
2643.983	235.6
2647.57	234.6
2651.153	230.6
2654.734	223.6
2658.311	219.6
2661.885	205.6
2665.456	214.6
2669.025	222.6
2672.589	211.6
2676.151	218.6
2679.71	211.6
2683.266	189.6
2686.819	197.6
2690.368	200.6
2693.915	185.6
2697.458	188.6
2700.999	186.6
2704.536	185.6
2708.071	177.6
2711.602	176.6
2715.13	169.6
2718.656	176.6
2722.178	167.6
2725.697	167.6
2729.214	164.6
2732.727	171.6
2736.237	164.6
2739.744	157.6
2743.249	156.6
2746.75	152.6
2750.248	145.6
2753.743	155.6
2757.236	132.6
2760.725	150.6
2764.211	138.6
2767.695	126.6
2771.175	130.6
2774.652	133.6
2778.127	121.6
2781.598	137.6
2785.067	135.6
2788.532	133.6
2791.995	134.6
2795.455	137.6
2798.911	135.6
2802.365	127.6
2805.816	136.6
2809.264	139.6
2812.709	136.6
2816.151	137.6
2819.59	136.6
2823.026	134.6
2826.46	129.6
2829.89	135.6
2833.318	127.6
2836.742	139.6
2840.164	138.6
2843.583	140.6
2846.999	145.6
2850.412	134.6
2853.822	138.6
2857.229	137.6
2860.634	153.6
2864.035	152.6
2867.434	148.6
2870.83	155.6
2874.223	155.6
2877.613	177.6
2881	174.6
2884.385	182.6
2887.766	165.6
2891.145	172.6
2894.521	176.6
2897.894	187.6
2901.264	178.6
2904.631	173.6
2907.996	178.6
2911.358	180.6
2914.717	181.6
2918.073	188.6
2921.426	197.6
2924.777	196.6
2928.124	207.6
2931.469	212.6
2934.811	215.6
2938.15	217.6
2941.487	228.6
2944.821	220.6
2948.152	218.6
2951.48	217.6
2954.805	220.6
2958.128	221.6
2961.447	217.6
2964.765	214.6
2968.079	228.6
2971.39	221.6
2974.699	222.6
2978.005	215.6
2981.308	223.6
2984.609	229.6
2987.907	217.6
2991.202	227.6
2994.494	225.6
2997.784	227.6
3001.07	232.6
3004.355	242.6
3007.636	253.6
3010.915	251.6
3014.191	244.6
3017.464	254.6
3020.734	252.6
3024.002	250.6
3027.267	265.6
3030.53	272.6
3033.789	274.6
3037.046	273.6
3040.301	291.6
3043.552	300.6
3046.801	304.6
3050.048	315.6
3053.291	312.6
3056.532	325.6
3059.771	353.6
3063.006	354.6
3066.239	366.6
3069.469	376.6
3072.697	385.6
3075.922	389.6
3079.144	410.6
3082.364	414.6
3085.581	433.6
3088.795	432.6
3092.007	450.6
3095.216	456.6
3098.423	455.6
3101.627	474.6
3104.828	488.6
3108.026	490.6
3111.222	504.6
3114.416	509.6
3117.607	519.6
3120.795	547.6
3123.98	541.6
3127.163	556.6
3130.344	578.6
3133.521	585.6
3136.696	600.6
3139.869	603.6
3143.039	608.6
3146.206	626.6
3149.371	623.6
3152.533	636.6
3155.693	651.6
3158.85	655.6
3162.005	665.6
3165.157	666.6
3168.306	665.6
3171.453	669.6
3174.597	665.6
3177.739	685.6
3180.878	670.6
3184.014	687.6
3187.149	678.6
3190.28	671.6
3193.409	685.6
3196.536	680.6
3199.659	684.6
3202.781	705.6
3205.9	710.6
3209.016	702.6
3212.13	695.6
3215.241	693.6
3218.35	679.6
3221.456	681.6
3224.56	679.6
3227.661	654.6
3230.76	664.6
3233.856	646.6
3236.95	632.6
3240.041	636.6
3243.13	613.6
3246.216	608.6
3249.3	607.6
3252.382	600.6
3255.46	589.6
3258.537	590.6
3261.611	578.6
3264.682	565.6
3267.751	565.6
3270.818	560.6
3273.882	560.6
3276.943	563.6
3280.002	571.6
3283.059	557.6
3286.113	550.6
3289.165	549.6
3292.214	534.6
3295.261	525.6
3298.306	523.6
3301.348	520.6
3304.387	511.6
3307.425	498.6
3310.459	507.6
3313.492	484.6
3316.521	481.6
3319.549	489.6
3322.574	476.6
3325.597	480.6
3328.617	486.6
3331.635	476.6
3334.65	471.6
3337.663	461.6
3340.674	459.6
3343.682	475.6
3346.688	459.6
3349.691	473.6
3352.692	465.6
3355.691	464.6
3358.687	444.6
3361.681	452.6
3364.673	454.6
3367.662	425.6
3370.649	438.6
3373.633	425.6
3376.615	428.6
3379.595	412.6
3382.572	416.6
3385.547	400.6
3388.52	403.6
3391.49	396.6
3394.458	387.6
3397.424	364.6
3400.387	378.6
3403.348	363.6
3406.307	351.6
3409.263	361.6
3412.217	350.6
3415.168	351.6
3418.118	347.6
3421.065	334.6
3424.009	335.6
3426.951	322.6
3429.891	315.6
3432.829	311.6
3435.764	305.6
3438.697	305.6
3441.628	282.6
3444.557	281.6
3447.483	272.6
3450.407	255.6
3453.328	244.6
3456.247	236.6
3459.164	235.6
3462.079	223.6
3464.991	204.6
3467.902	201.6
3470.809	193.6
3473.715	184.6
3476.618	180.6
3479.519	174.6
3482.418	168.6
3485.315	156.6
3488.209	149.6
3491.101	140.6
3493.99	145.6
3496.878	127.6
3499.763	122.6
3502.646	107.6
3505.527	102.6
3508.405	103.6
3511.281	95.6
3514.155	82.6
3517.027	78.6
3519.897	74.6
3522.764	60.6
3525.629	51.6
3528.492	47.6
3531.352	47.6
3534.211	30.6
3537.067	36.6
3539.921	28.6
3542.773	25.6
3545.622	10.6
3548.469	-0.4
3551.315	4.6
3554.157	-3.4
3556.998	-10.4
3559.837	-12.4
3562.673	-11.4
3565.507	-20.4
3568.339	-22.4
3571.169	-39.4
3573.996	-29.4
3576.822	-36.4
3579.645	-34.4
3582.466	-34.4
3585.285	-40.4
3588.101	-35.4
3590.916	-51.4
3593.728	-60.4
3596.538	-56.4
3599.346	-59.4
3602.152	-62.4
3604.956	-62.4
3607.757	-56.4
3610.556	-66.4
3613.354	-65.4
3616.149	-76.4
3618.942	-83.4
3621.732	-78.4
3624.521	-76.4
3627.307	-79.4
3630.092	-81.4
3632.874	-80.4
3635.654	-85.4
3638.432	-90.4
3641.208	-89.4
3643.982	-97.4
3646.753	-96.4
3649.523	-95.4
3652.29	-89.4
3655.055	-95.4
3657.818	-100.4
3660.579	-98.4
3663.338	-105.4
3666.095	-109.4
3668.849	-109.4
3671.602	-106.4
3674.352	-105.4
3677.101	-106.4
3679.847	-110.4
3682.591	-117.4
3685.333	-107.4
3688.073	-116.4
3690.811	-117.4
3693.547	-119.4
3696.281	-122.4
3699.013	-110.4
3701.742	-118.4
3704.47	-119.4
3707.195	-116.4
3709.919	-121.4
3712.64	-113.4
3715.359	-122.4
3718.076	-122.4
3720.792	-123.4
3723.505	-124.4
3726.216	-123.4
3728.925	-130.4
3731.632	-125.4
3734.336	-131.4
3737.039	-128.4
3739.74	-130.4
3742.439	-132.4
3745.136	-125.4
3747.83	-136.4
3750.523	-132.4
3753.213	-142.4
3755.902	-129.4
3758.589	-135.4
3761.273	-125.4
3763.956	-125.4
3766.636	-132.4
3769.315	-128.4
3771.991	-129.4
3774.665	-140.4
3777.338	-125.4
3780.008	-133.4
3782.677	-129.4
3785.343	-134.4
3788.007	-132.4
3790.67	-137.4
3793.33	-131.4
3795.989	-136.4
3798.645	-132.4
3801.299	-139.4
3803.952	-139.4
3806.602	-129.4
3809.251	-140.4
3811.897	-141.4
3814.542	-139.4
3817.184	-130.4
3819.825	-134.4
3822.463	-136.4
3825.1	-132.4
3827.735	-133.4
3830.367	-134.4
3832.998	-134.4
3835.627	-134.4
3838.253	-131.4
3840.878	-130.4
3843.501	-129.4
3846.122	-136.4
3848.741	-141.4
3851.358	-131.4
3853.973	-141.4
3856.586	-135.4
3859.197	-139.4
3861.806	-133.4
3864.414	-135.4
3867.019	-132.4
3869.622	-135.4
3872.224	-117.4
3874.823	-118.4
3877.421	-101.4
3880.016	-77.4
3882.61	-57.4
3885.202	-63.4
3887.792	-82.4
3890.38	-104.4
3892.966	-125.4
3895.55	-131.4
3898.132	-137.4
3900.713	-139.4
3903.291	-140.4
3905.868	-137.4
3908.442	-134.4
3911.015	-137.4
3913.586	-140.4
3916.155	-141.4
3918.722	-142.4
3921.287	-135.4
3923.85	-143.4
3926.411	-137.4
3928.971	-140.4
3931.528	-138.4
3934.084	-139.4
3936.638	-131.4
3939.19	-142.4
3941.74	-140.4
3944.288	-136.4
3946.834	-138.4
3949.378	-138.4
3951.921	-138.4
3954.462	-140.4
3957	-140.4
3959.537	-136.4
3962.072	-140.4
3964.606	-135.4
3967.137	-138.4
3969.667	-136.4
3972.194	-144.4
3974.72	-140.4
3977.244	-138.4
3979.766	-142.4
3982.286	-140.4
3984.805	-142.4
3987.321	-135.4
3989.836	-130.4
3992.349	-134.4
3994.86	-138.4
3997.369	-142.4
3999.877	-134.4
4002.382	-133.4
4004.886	-138.4
4007.388	-134.4
4009.888	-129.4
4012.386	-134.4
4014.883	-135.4
4017.377	-138.4
4019.87	-134.4
4022.361	-143.4
4024.85	-140.4
4027.338	-135.4
4029.823	-132.4
4032.307	-128.4
4034.789	-143.4
4037.269	-136.4
4039.747	-139.4
4042.224	-134.4
4044.699	-135.4
4047.172	-132.4
4049.643	-129.4
4052.112	-139.4
4054.58	-137.4
4057.046	-137.4
4059.51	-144.4
4061.972	-135.4
4064.432	-137.4
4066.891	-136.4
4069.348	-134.4
4071.803	-142.4
4074.256	-138.4
4076.708	-137.4
4079.158	-134.4
4081.606	-134.4
4084.052	-136.4
4086.497	-135.4
4088.939	-131.4
4091.38	-140.4
4093.819	-143.4
4096.257	-142.4
4098.693	-141.4
4101.127	-143.4
4103.559	-141.4
4105.989	-7.4
4108.418	-9.4
4110.845	-7.4
4113.27	-4.4
4115.694	-7.4
4118.115	-13.4
4120.535	-142.4
4122.954	-141.4
4125.37	-135.4
4127.785	-134.4
4130.198	-136.4
4132.609	-135.4
4135.019	-144.4
4137.427	-147.4
4139.833	-144.4
4142.237	-143.4
