Data from 2018-2-8_conc=0_n=9_RamanShift_01.txt Node
Date: Mon Mar 12 13:47:29 IST 2018
User: aro
Spectrometer: QEPB0276
Trigger mode: 0
Integration Time (sec): 3.000000E1
Scans to average: 1
Electric dark correction enabled: true
Nonlinearity correction enabled: false
Boxcar width: 0
XAxis mode: Raman Shifts
Number of Pixels in Spectrum: 1044
>>>>>Begin Spectral Data<<<<<
160.701	24.4
166.742	45.4
172.777	113.4
178.805	322.4
184.826	842.4
190.841	1810.4
196.849	3003.4
202.85	3943.4
208.845	4297.4
214.833	4302.4
220.815	4246.4
226.789	4243.4
232.758	4211.4
238.719	4236.4
244.674	4202.4
250.623	4176.4
256.565	4125.4
262.5	4037.4
268.429	4002.4
274.351	3969.4
280.267	3950.4
286.176	3951.4
292.079	3944.4
297.975	3917.4
303.865	3927.4
309.748	3903.4
315.625	3882.4
321.495	3893.4
327.359	3887.4
333.217	3906.4
339.068	3907.4
344.912	3890.4
350.751	3929.4
356.583	3933.4
362.408	3931.4
368.227	3921.4
374.04	3951.4
379.847	4000.4
385.647	4023.4
391.44	4011.4
397.228	4030.4
403.009	4071.4
408.784	4074.4
414.553	4103.4
420.315	4117.4
426.071	4112.4
431.821	4100.4
437.565	4064.4
443.302	4092.4
449.033	4063.4
454.758	4075.4
460.477	4032.4
466.189	4020.4
471.896	3998.4
477.596	3953.4
483.29	3939.4
488.978	3966.4
494.66	3914.4
500.335	3836.4
506.005	3729.4
511.668	3591.4
517.325	3453.4
522.977	3359.4
528.622	3266.4
534.261	3198.4
539.894	3153.4
545.521	3138.4
551.141	3094.4
556.756	3073.4
562.365	3040.4
567.968	3014.4
573.565	2997.4
579.155	3002.4
584.74	2995.4
590.319	2992.4
595.892	2973.4
601.459	2962.4
607.02	2928.4
612.575	2919.4
618.124	2898.4
623.667	2849.4
629.204	2858.4
634.735	2819.4
640.261	2787.4
645.781	2777.4
651.294	2764.4
656.802	2760.4
662.304	2742.4
667.8	2751.4
673.29	2732.4
678.775	2729.4
684.254	2704.4
689.726	2699.4
695.193	2694.4
700.655	2685.4
706.11	2686.4
711.56	2655.4
717.004	2654.4
722.442	2626.4
727.874	2612.4
733.301	2598.4
738.722	2593.4
744.137	2586.4
749.547	2584.4
754.951	2575.4
760.349	2585.4
765.741	2595.4
771.128	2589.4
776.509	2621.4
781.885	2652.4
787.254	2671.4
792.618	2666.4
797.977	2658.4
803.33	2638.4
808.677	2613.4
814.019	2617.4
819.355	2597.4
824.686	2568.4
830.011	2528.4
835.33	2542.4
840.644	2530.4
845.952	2516.4
851.255	2510.4
856.552	2503.4
861.844	2477.4
867.13	2458.4
872.41	2463.4
877.686	2430.4
882.955	2455.4
888.219	2385.4
893.478	2351.4
898.731	2362.4
903.979	2300.4
909.221	2294.4
914.458	2285.4
919.69	2257.4
924.916	2262.4
930.136	2252.4
935.351	2277.4
940.561	2289.4
945.766	2276.4
950.965	2279.4
956.158	2266.4
961.347	2218.4
966.529	2188.4
971.707	2155.4
976.879	2136.4
982.046	2123.4
987.208	2118.4
992.364	2107.4
997.515	2133.4
1002.66	2132.4
1007.801	2159.4
1012.936	2155.4
1018.066	2181.4
1023.19	2175.4
1028.309	2177.4
1033.423	2189.4
1038.532	2184.4
1043.636	2159.4
1048.734	2134.4
1053.827	2128.4
1058.915	2075.4
1063.998	2078.4
1069.075	2065.4
1074.147	2101.4
1079.214	2079.4
1084.276	2090.4
1089.333	2093.4
1094.385	2104.4
1099.431	2076.4
1104.472	2074.4
1109.509	2067.4
1114.54	2034.4
1119.565	2022.4
1124.586	1983.4
1129.602	1962.4
1134.613	1941.4
1139.618	1913.4
1144.619	1939.4
1149.614	1928.4
1154.604	1940.4
1159.589	1952.4
1164.57	1960.4
1169.545	1938.4
1174.515	1942.4
1179.48	1938.4
1184.44	1933.4
1189.395	1911.4
1194.345	1891.4
1199.29	1891.4
1204.23	1897.4
1209.165	1888.4
1214.095	1898.4
1219.021	1910.4
1223.941	1916.4
1228.856	1924.4
1233.766	1937.4
1238.672	1937.4
1243.572	1935.4
1248.467	1939.4
1253.358	1916.4
1258.244	1879.4
1263.124	1826.4
1268	1797.4
1272.871	1795.4
1277.737	1778.4
1282.599	1765.4
1287.455	1767.4
1292.306	1775.4
1297.153	1770.4
1301.995	1784.4
1306.832	1791.4
1311.664	1820.4
1316.491	1809.4
1321.314	1806.4
1326.132	1805.4
1330.945	1764.4
1335.753	1747.4
1340.556	1718.4
1345.354	1705.4
1350.148	1662.4
1354.937	1648.4
1359.722	1618.4
1364.501	1592.4
1369.276	1573.4
1374.046	1546.4
1378.811	1518.4
1383.572	1518.4
1388.327	1507.4
1393.079	1512.4
1397.825	1510.4
1402.567	1516.4
1407.304	1508.4
1412.036	1517.4
1416.764	1517.4
1421.487	1530.4
1426.205	1520.4
1430.919	1528.4
1435.628	1539.4
1440.333	1555.4
1445.032	1554.4
1449.727	1568.4
1454.418	1584.4
1459.104	1573.4
1463.785	1559.4
1468.462	1546.4
1473.134	1511.4
1477.802	1466.4
1482.465	1436.4
1487.123	1414.4
1491.777	1391.4
1496.426	1375.4
1501.071	1365.4
1505.711	1374.4
1510.347	1360.4
1514.978	1357.4
1519.604	1356.4
1524.226	1350.4
1528.844	1345.4
1533.457	1346.4
1538.065	1321.4
1542.669	1328.4
1547.269	1320.4
1551.864	1318.4
1556.454	1336.4
1561.041	1366.4
1565.622	1362.4
1570.199	1372.4
1574.772	1352.4
1579.34	1396.4
1583.904	1420.4
1588.464	1416.4
1593.019	1432.4
1597.569	1432.4
1602.115	1417.4
1606.657	1426.4
1611.195	1413.4
1615.728	1401.4
1620.256	1400.4
1624.78	1407.4
1629.3	1397.4
1633.816	1420.4
1638.327	1425.4
1642.834	1427.4
1647.336	1436.4
1651.834	1427.4
1656.328	1442.4
1660.817	1427.4
1665.302	1418.4
1669.783	1400.4
1674.259	1369.4
1678.732	1326.4
1683.199	1287.4
1687.663	1262.4
1692.122	1219.4
1696.577	1181.4
1701.028	1112.4
1705.474	1081.4
1709.917	1069.4
1714.355	1027.4
1718.788	1024.4
1723.218	1008.4
1727.643	1026.4
1732.064	1015.4
1736.481	1017.4
1740.893	973.4
1745.301	958.4
1749.705	952.4
1754.105	917.4
1758.501	893.4
1762.893	901.4
1767.28	889.4
1771.663	883.4
1776.042	864.4
1780.417	874.4
1784.787	862.4
1789.154	829.4
1793.516	836.4
1797.874	821.4
1802.228	802.4
1806.578	809.4
1810.924	793.4
1815.266	783.4
1819.603	789.4
1823.937	785.4
1828.266	768.4
1832.591	784.4
1836.913	785.4
1841.23	787.4
1845.543	786.4
1849.852	786.4
1854.156	779.4
1858.457	779.4
1862.754	788.4
1867.047	772.4
1871.335	797.4
1875.62	789.4
1879.9	782.4
1884.177	789.4
1888.449	781.4
1892.718	762.4
1896.982	759.4
1901.243	736.4
1905.499	740.4
1909.752	737.4
1914	711.4
1918.245	711.4
1922.485	704.4
1926.722	689.4
1930.954	692.4
1935.183	687.4
1939.408	674.4
1943.628	677.4
1947.845	687.4
1952.058	666.4
1956.267	675.4
1960.472	656.4
1964.673	639.4
1968.87	647.4
1973.063	657.4
1977.252	624.4
1981.438	637.4
1985.619	628.4
1989.797	627.4
1993.971	642.4
1998.14	641.4
2002.306	629.4
2006.469	626.4
2010.627	644.4
2014.781	647.4
2018.932	632.4
2023.078	650.4
2027.221	626.4
2031.36	635.4
2035.495	619.4
2039.627	613.4
2043.754	598.4
2047.878	596.4
2051.998	594.4
2056.114	602.4
2060.226	581.4
2064.334	587.4
2068.439	583.4
2072.54	586.4
2076.637	591.4
2080.73	588.4
2084.82	575.4
2088.906	557.4
2092.988	572.4
2097.066	563.4
2101.14	550.4
2105.211	548.4
2109.278	553.4
2113.342	541.4
2117.401	527.4
2121.457	526.4
2125.509	517.4
2129.558	528.4
2133.602	513.4
2137.643	518.4
2141.681	521.4
2145.714	522.4
2149.744	505.4
2153.77	511.4
2157.793	511.4
2161.812	503.4
2165.827	506.4
2169.838	499.4
2173.846	493.4
2177.851	474.4
2181.851	474.4
2185.848	473.4
2189.841	467.4
2193.831	465.4
2197.817	461.4
2201.799	455.4
2205.778	459.4
2209.753	460.4
2213.725	453.4
2217.693	447.4
2221.657	454.4
2225.618	451.4
2229.575	456.4
2233.529	456.4
2237.479	441.4
2241.425	444.4
2245.368	437.4
2249.307	416.4
2253.243	404.4
2257.175	413.4
2261.104	414.4
2265.029	402.4
2268.95	400.4
2272.868	388.4
2276.783	390.4
2280.694	386.4
2284.601	379.4
2288.505	376.4
2292.405	378.4
2296.302	357.4
2300.195	367.4
2304.085	352.4
2307.971	341.4
2311.854	343.4
2315.734	338.4
2319.609	321.4
2323.482	332.4
2327.351	342.4
2331.216	350.4
2335.078	356.4
2338.937	339.4
2342.792	326.4
2346.643	313.4
2350.492	316.4
2354.336	325.4
2358.178	324.4
2362.015	331.4
2365.85	328.4
2369.681	321.4
2373.508	320.4
2377.333	305.4
2381.153	315.4
2384.971	333.4
2388.785	324.4
2392.595	313.4
2396.402	305.4
2400.206	305.4
2404.007	313.4
2407.804	304.4
2411.597	304.4
2415.388	292.4
2419.174	305.4
2422.958	304.4
2426.738	304.4
2430.515	287.4
2434.289	303.4
2438.059	293.4
2441.825	280.4
2445.589	284.4
2449.349	280.4
2453.106	275.4
2456.859	282.4
2460.61	277.4
2464.356	267.4
2468.1	262.4
2471.84	255.4
2475.577	265.4
2479.311	249.4
2483.041	254.4
2486.768	261.4
2490.492	250.4
2494.213	255.4
2497.93	247.4
2501.644	243.4
2505.355	242.4
2509.062	233.4
2512.766	237.4
2516.467	230.4
2520.165	236.4
2523.859	233.4
2527.551	228.4
2531.239	213.4
2534.923	218.4
2538.605	218.4
2542.283	209.4
2545.958	213.4
2549.63	210.4
2553.299	207.4
2556.964	216.4
2560.626	208.4
2564.285	201.4
2567.941	202.4
2571.594	190.4
2575.243	198.4
2578.89	196.4
2582.533	190.4
2586.173	193.4
2589.809	181.4
2593.443	179.4
2597.073	185.4
2600.701	169.4
2604.325	163.4
2607.946	177.4
2611.564	174.4
2615.178	177.4
2618.79	173.4
2622.398	179.4
2626.004	172.4
2629.606	165.4
2633.205	159.4
2636.801	163.4
2640.394	165.4
2643.983	166.4
2647.57	164.4
2651.153	158.4
2654.734	157.4
2658.311	153.4
2661.885	152.4
2665.456	152.4
2669.025	156.4
2672.589	156.4
2676.151	143.4
2679.71	152.4
2683.266	145.4
2686.819	141.4
2690.368	139.4
2693.915	126.4
2697.458	127.4
2700.999	132.4
2704.536	127.4
2708.071	120.4
2711.602	128.4
2715.13	129.4
2718.656	116.4
2722.178	112.4
2725.697	115.4
2729.214	111.4
2732.727	123.4
2736.237	116.4
2739.744	111.4
2743.249	108.4
2746.75	98.4
2750.248	104.4
2753.743	102.4
2757.236	105.4
2760.725	95.4
2764.211	91.4
2767.695	91.4
2771.175	85.4
2774.652	95.4
2778.127	88.4
2781.598	88.4
2785.067	98.4
2788.532	86.4
2791.995	89.4
2795.455	94.4
2798.911	88.4
2802.365	102.4
2805.816	97.4
2809.264	84.4
2812.709	102.4
2816.151	96.4
2819.59	98.4
2823.026	90.4
2826.46	93.4
2829.89	86.4
2833.318	85.4
2836.742	100.4
2840.164	90.4
2843.583	98.4
2846.999	96.4
2850.412	94.4
2853.822	97.4
2857.229	94.4
2860.634	94.4
2864.035	103.4
2867.434	108.4
2870.83	109.4
2874.223	121.4
2877.613	116.4
2881	133.4
2884.385	133.4
2887.766	126.4
2891.145	128.4
2894.521	127.4
2897.894	133.4
2901.264	128.4
2904.631	134.4
2907.996	133.4
2911.358	134.4
2914.717	134.4
2918.073	152.4
2921.426	143.4
2924.777	148.4
2928.124	140.4
2931.469	150.4
2934.811	161.4
2938.15	159.4
2941.487	170.4
2944.821	161.4
2948.152	165.4
2951.48	159.4
2954.805	162.4
2958.128	166.4
2961.447	162.4
2964.765	157.4
2968.079	158.4
2971.39	158.4
2974.699	161.4
2978.005	155.4
2981.308	163.4
2984.609	169.4
2987.907	153.4
2991.202	165.4
2994.494	159.4
2997.784	166.4
3001.07	165.4
3004.355	182.4
3007.636	171.4
3010.915	171.4
3014.191	174.4
3017.464	185.4
3020.734	173.4
3024.002	188.4
3027.267	191.4
3030.53	186.4
3033.789	199.4
3037.046	195.4
3040.301	198.4
3043.552	212.4
3046.801	224.4
3050.048	223.4
3053.291	230.4
3056.532	235.4
3059.771	247.4
3063.006	254.4
3066.239	263.4
3069.469	273.4
3072.697	278.4
3075.922	281.4
3079.144	298.4
3082.364	309.4
3085.581	309.4
3088.795	302.4
3092.007	318.4
3095.216	321.4
3098.423	329.4
3101.627	349.4
3104.828	349.4
3108.026	355.4
3111.222	361.4
3114.416	361.4
3117.607	382.4
3120.795	390.4
3123.98	399.4
3127.163	406.4
3130.344	416.4
3133.521	424.4
3136.696	446.4
3139.869	451.4
3143.039	447.4
3146.206	452.4
3149.371	464.4
3152.533	466.4
3155.693	478.4
3158.85	488.4
3162.005	481.4
3165.157	491.4
3168.306	488.4
3171.453	496.4
3174.597	489.4
3177.739	504.4
3180.878	495.4
3184.014	504.4
3187.149	499.4
3190.28	494.4
3193.409	504.4
3196.536	510.4
3199.659	505.4
3202.781	506.4
3205.9	516.4
3209.016	517.4
3212.13	500.4
3215.241	507.4
3218.35	506.4
3221.456	488.4
3224.56	490.4
3227.661	483.4
3230.76	479.4
3233.856	466.4
3236.95	454.4
3240.041	455.4
3243.13	447.4
3246.216	437.4
3249.3	427.4
3252.382	437.4
3255.46	431.4
3258.537	432.4
3261.611	417.4
3264.682	417.4
3267.751	417.4
3270.818	413.4
3273.882	404.4
3276.943	395.4
3280.002	399.4
3283.059	392.4
3286.113	397.4
3289.165	396.4
3292.214	385.4
3295.261	380.4
3298.306	385.4
3301.348	366.4
3304.387	369.4
3307.425	364.4
3310.459	357.4
3313.492	356.4
3316.521	355.4
3319.549	355.4
3322.574	345.4
3325.597	349.4
3328.617	348.4
3331.635	337.4
3334.65	340.4
3337.663	337.4
3340.674	342.4
3343.682	350.4
3346.688	340.4
3349.691	334.4
3352.692	333.4
3355.691	333.4
3358.687	323.4
3361.681	339.4
3364.673	330.4
3367.662	317.4
3370.649	305.4
3373.633	300.4
3376.615	294.4
3379.595	285.4
3382.572	297.4
3385.547	293.4
3388.52	284.4
3391.49	283.4
3394.458	280.4
3397.424	261.4
3400.387	258.4
3403.348	265.4
3406.307	255.4
3409.263	256.4
3412.217	246.4
3415.168	253.4
3418.118	251.4
3421.065	235.4
3424.009	230.4
3426.951	233.4
3429.891	225.4
3432.829	216.4
3435.764	212.4
3438.697	205.4
3441.628	196.4
3444.557	193.4
3447.483	186.4
3450.407	179.4
3453.328	168.4
3456.247	164.4
3459.164	154.4
3462.079	143.4
3464.991	141.4
3467.902	146.4
3470.809	134.4
3473.715	122.4
3476.618	112.4
3479.519	113.4
3482.418	111.4
3485.315	96.4
3488.209	88.4
3491.101	89.4
3493.99	84.4
3496.878	86.4
3499.763	80.4
3502.646	69.4
3505.527	64.4
3508.405	66.4
3511.281	54.4
3514.155	49.4
3517.027	43.4
3519.897	29.4
3522.764	30.4
3525.629	17.4
3528.492	20.4
3531.352	23.4
3534.211	7.4
3537.067	1.4
3539.921	4.4
3542.773	5.4
3545.622	-8.6
3548.469	-13.6
3551.315	-10.6
3554.157	-21.6
3556.998	-27.6
3559.837	-32.6
3562.673	-29.6
3565.507	-23.6
3568.339	-32.6
3571.169	-41.6
3573.996	-36.6
3576.822	-37.6
3579.645	-42.6
3582.466	-49.6
3585.285	-43.6
3588.101	-39.6
3590.916	-50.6
3593.728	-56.6
3596.538	-56.6
3599.346	-63.6
3602.152	-58.6
3604.956	-60.6
3607.757	-63.6
3610.556	-68.6
3613.354	-68.6
3616.149	-73.6
3618.942	-74.6
3621.732	-76.6
3624.521	-80.6
3627.307	-68.6
3630.092	-75.6
3632.874	-74.6
3635.654	-82.6
3638.432	-77.6
3641.208	-79.6
3643.982	-84.6
3646.753	-87.6
3649.523	-87.6
3652.29	-84.6
3655.055	-90.6
3657.818	-89.6
3660.579	-87.6
3663.338	-89.6
3666.095	-93.6
3668.849	-97.6
3671.602	-103.6
3674.352	-98.6
3677.101	-96.6
3679.847	-99.6
3682.591	-104.6
3685.333	-100.6
3688.073	-99.6
3690.811	-99.6
3693.547	-108.6
3696.281	-104.6
3699.013	-107.6
3701.742	-103.6
3704.47	-102.6
3707.195	-96.6
3709.919	-106.6
3712.64	-107.6
3715.359	-110.6
3718.076	-113.6
3720.792	-113.6
3723.505	-115.6
3726.216	-107.6
3728.925	-111.6
3731.632	-107.6
3734.336	-116.6
3737.039	-112.6
3739.74	-113.6
3742.439	-118.6
3745.136	-107.6
3747.83	-112.6
3750.523	-113.6
3753.213	-121.6
3755.902	-114.6
3758.589	-122.6
3761.273	-113.6
3763.956	-112.6
3766.636	-116.6
3769.315	-110.6
3771.991	-106.6
3774.665	-116.6
3777.338	-106.6
3780.008	-116.6
3782.677	-119.6
3785.343	-121.6
3788.007	-119.6
3790.67	-117.6
3793.33	-114.6
3795.989	-113.6
3798.645	-109.6
3801.299	-110.6
3803.952	-121.6
3806.602	-119.6
3809.251	-123.6
3811.897	-124.6
3814.542	-118.6
3817.184	-114.6
3819.825	-119.6
3822.463	-117.6
3825.1	-116.6
3827.735	-117.6
3830.367	-121.6
3832.998	-123.6
3835.627	-118.6
3838.253	-118.6
3840.878	-118.6
3843.501	-113.6
3846.122	-116.6
3848.741	-121.6
3851.358	-112.6
3853.973	-123.6
3856.586	-117.6
3859.197	-124.6
3861.806	-112.6
3864.414	-120.6
3867.019	-116.6
3869.622	-111.6
3872.224	-106.6
3874.823	-95.6
3877.421	-83.6
3880.016	-50.6
3882.61	-25.6
3885.202	-19.6
3887.792	-43.6
3890.38	-75.6
3892.966	-110.6
3895.55	-108.6
3898.132	-112.6
3900.713	-113.6
3903.291	-120.6
3905.868	-118.6
3908.442	-110.6
3911.015	-123.6
3913.586	-118.6
3916.155	-123.6
3918.722	-127.6
3921.287	-121.6
3923.85	-120.6
3926.411	-121.6
3928.971	-119.6
3931.528	-121.6
3934.084	-122.6
3936.638	-115.6
3939.19	-127.6
3941.74	-122.6
3944.288	-123.6
3946.834	-121.6
3949.378	-117.6
3951.921	-119.6
3954.462	-128.6
3957	-124.6
3959.537	-118.6
3962.072	-117.6
3964.606	-116.6
3967.137	-117.6
3969.667	-118.6
3972.194	-123.6
3974.72	-123.6
3977.244	-127.6
3979.766	-123.6
3982.286	-119.6
3984.805	-120.6
3987.321	-120.6
3989.836	-115.6
3992.349	-117.6
3994.86	-119.6
3997.369	-120.6
3999.877	-119.6
4002.382	-118.6
4004.886	-122.6
4007.388	-119.6
4009.888	-116.6
4012.386	-120.6
4014.883	-116.6
4017.377	-117.6
4019.87	-119.6
4022.361	-124.6
4024.85	-121.6
4027.338	-122.6
4029.823	-115.6
4032.307	-118.6
4034.789	-122.6
4037.269	-115.6
4039.747	-116.6
4042.224	-120.6
4044.699	-123.6
4047.172	-117.6
4049.643	-117.6
4052.112	-114.6
4054.58	-119.6
4057.046	-119.6
4059.51	-120.6
4061.972	-121.6
4064.432	-118.6
4066.891	-123.6
4069.348	-112.6
4071.803	-121.6
4074.256	-119.6
4076.708	-115.6
4079.158	-123.6
4081.606	-111.6
4084.052	-121.6
4086.497	-121.6
4088.939	-110.6
4091.38	-124.6
4093.819	-118.6
4096.257	-125.6
4098.693	-124.6
4101.127	-125.6
4103.559	-124.6
4105.989	31.4
4108.418	22.4
4110.845	22.4
4113.27	15.4
4115.694	8.4
4118.115	8.4
4120.535	-120.6
4122.954	-115.6
4125.37	-116.6
4127.785	-120.6
4130.198	-121.6
4132.609	-116.6
4135.019	-126.6
4137.427	-129.6
4139.833	-125.6
4142.237	-123.6
