Data from 2018-2-8_conc=5_n=6_RamanShift_05.txt Node
Date: Mon Mar 12 16:09:28 IST 2018
User: aro
Spectrometer: QEPB0276
Trigger mode: 0
Integration Time (sec): 3.000000E1
Scans to average: 1
Electric dark correction enabled: true
Nonlinearity correction enabled: false
Boxcar width: 0
XAxis mode: Raman Shifts
Number of Pixels in Spectrum: 1044
>>>>>Begin Spectral Data<<<<<
160.701	14.1
166.742	46.1
172.777	118.1
178.805	365.1
184.826	1001.1
190.841	2150.1
196.849	3542.1
202.85	4662.1
208.845	5099.1
214.833	5117.1
220.815	5030.1
226.789	5040.1
232.758	4996.1
238.719	5021.1
244.674	4994.1
250.623	4945.1
256.565	4865.1
262.5	4826.1
268.429	4748.1
274.351	4713.1
280.267	4646.1
286.176	4618.1
292.079	4605.1
297.975	4620.1
303.865	4585.1
309.748	4581.1
315.625	4547.1
321.495	4539.1
327.359	4562.1
333.217	4556.1
339.068	4557.1
344.912	4576.1
350.751	4581.1
356.583	4601.1
362.408	4610.1
368.227	4600.1
374.04	4599.1
379.847	4627.1
385.647	4629.1
391.44	4628.1
397.228	4677.1
403.009	4717.1
408.784	4705.1
414.553	4708.1
420.315	4748.1
426.071	4768.1
431.821	4731.1
437.565	4762.1
443.302	4727.1
449.033	4712.1
454.758	4704.1
460.477	4694.1
466.189	4686.1
471.896	4626.1
477.596	4627.1
483.29	4598.1
488.978	4583.1
494.66	4557.1
500.335	4497.1
506.005	4405.1
511.668	4257.1
517.325	4090.1
522.977	4019.1
528.622	3928.1
534.261	3864.1
539.894	3844.1
545.521	3808.1
551.141	3775.1
556.756	3747.1
562.365	3710.1
567.968	3704.1
573.565	3690.1
579.155	3661.1
584.74	3626.1
590.319	3640.1
595.892	3617.1
601.459	3635.1
607.02	3614.1
612.575	3582.1
618.124	3542.1
623.667	3529.1
629.204	3470.1
634.735	3440.1
640.261	3443.1
645.781	3402.1
651.294	3387.1
656.802	3402.1
662.304	3386.1
667.8	3348.1
673.29	3346.1
678.775	3391.1
684.254	3341.1
689.726	3362.1
695.193	3332.1
700.655	3321.1
706.11	3282.1
711.56	3277.1
717.004	3254.1
722.442	3241.1
727.874	3222.1
733.301	3231.1
738.722	3199.1
744.137	3198.1
749.547	3195.1
754.951	3192.1
760.349	3188.1
765.741	3181.1
771.128	3222.1
776.509	3222.1
781.885	3234.1
787.254	3240.1
792.618	3257.1
797.977	3237.1
803.33	3193.1
808.677	3198.1
814.019	3139.1
819.355	3152.1
824.686	3132.1
830.011	3113.1
835.33	3096.1
840.644	3081.1
845.952	3068.1
851.255	3059.1
856.552	3075.1
861.844	3035.1
867.13	3026.1
872.41	3019.1
877.686	2978.1
882.955	2979.1
888.219	2930.1
893.478	2907.1
898.731	2866.1
903.979	2851.1
909.221	2831.1
914.458	2798.1
919.69	2787.1
924.916	2799.1
930.136	2821.1
935.351	2792.1
940.561	2804.1
945.766	2824.1
950.965	2798.1
956.158	2771.1
961.347	2744.1
966.529	2703.1
971.707	2670.1
976.879	2633.1
982.046	2606.1
987.208	2598.1
992.364	2628.1
997.515	2639.1
1002.66	2622.1
1007.801	2637.1
1012.936	2686.1
1018.066	2688.1
1023.19	2664.1
1028.309	2701.1
1033.423	2700.1
1038.532	2692.1
1043.636	2654.1
1048.734	2615.1
1053.827	2601.1
1058.915	2552.1
1063.998	2548.1
1069.075	2536.1
1074.147	2539.1
1079.214	2543.1
1084.276	2547.1
1089.333	2563.1
1094.385	2570.1
1099.431	2568.1
1104.472	2565.1
1109.509	2557.1
1114.54	2530.1
1119.565	2506.1
1124.586	2449.1
1129.602	2421.1
1134.613	2388.1
1139.618	2380.1
1144.619	2394.1
1149.614	2391.1
1154.604	2409.1
1159.589	2406.1
1164.57	2406.1
1169.545	2408.1
1174.515	2407.1
1179.48	2418.1
1184.44	2370.1
1189.395	2367.1
1194.345	2358.1
1199.29	2338.1
1204.23	2318.1
1209.165	2341.1
1214.095	2350.1
1219.021	2352.1
1223.941	2353.1
1228.856	2373.1
1233.766	2389.1
1238.672	2381.1
1243.572	2389.1
1248.467	2367.1
1253.358	2345.1
1258.244	2326.1
1263.124	2278.1
1268	2212.1
1272.871	2217.1
1277.737	2188.1
1282.599	2181.1
1287.455	2162.1
1292.306	2183.1
1297.153	2196.1
1301.995	2205.1
1306.832	2201.1
1311.664	2244.1
1316.491	2230.1
1321.314	2235.1
1326.132	2224.1
1330.945	2187.1
1335.753	2144.1
1340.556	2130.1
1345.354	2117.1
1350.148	2063.1
1354.937	2047.1
1359.722	1997.1
1364.501	1967.1
1369.276	1923.1
1374.046	1897.1
1378.811	1863.1
1383.572	1852.1
1388.327	1848.1
1393.079	1875.1
1397.825	1877.1
1402.567	1876.1
1407.304	1866.1
1412.036	1870.1
1416.764	1867.1
1421.487	1859.1
1426.205	1882.1
1430.919	1890.1
1435.628	1893.1
1440.333	1911.1
1445.032	1910.1
1449.727	1933.1
1454.418	1940.1
1459.104	1948.1
1463.785	1914.1
1468.462	1886.1
1473.134	1860.1
1477.802	1808.1
1482.465	1781.1
1487.123	1748.1
1491.777	1694.1
1496.426	1695.1
1501.071	1701.1
1505.711	1686.1
1510.347	1674.1
1514.978	1676.1
1519.604	1687.1
1524.226	1667.1
1528.844	1639.1
1533.457	1643.1
1538.065	1624.1
1542.669	1635.1
1547.269	1634.1
1551.864	1603.1
1556.454	1656.1
1561.041	1662.1
1565.622	1672.1
1570.199	1669.1
1574.772	1679.1
1579.34	1721.1
1583.904	1726.1
1588.464	1757.1
1593.019	1762.1
1597.569	1757.1
1602.115	1746.1
1606.657	1760.1
1611.195	1720.1
1615.728	1720.1
1620.256	1730.1
1624.78	1736.1
1629.3	1725.1
1633.816	1751.1
1638.327	1756.1
1642.834	1751.1
1647.336	1760.1
1651.834	1760.1
1656.328	1768.1
1660.817	1767.1
1665.302	1751.1
1669.783	1707.1
1674.259	1668.1
1678.732	1622.1
1683.199	1596.1
1687.663	1546.1
1692.122	1494.1
1696.577	1428.1
1701.028	1363.1
1705.474	1334.1
1709.917	1288.1
1714.355	1256.1
1718.788	1243.1
1723.218	1250.1
1727.643	1254.1
1732.064	1239.1
1736.481	1242.1
1740.893	1193.1
1745.301	1200.1
1749.705	1152.1
1754.105	1145.1
1758.501	1130.1
1762.893	1117.1
1767.28	1101.1
1771.663	1078.1
1776.042	1077.1
1780.417	1039.1
1784.787	1041.1
1789.154	1029.1
1793.516	1046.1
1797.874	1011.1
1802.228	1003.1
1806.578	1003.1
1810.924	986.1
1815.266	954.1
1819.603	973.1
1823.937	973.1
1828.266	962.1
1832.591	972.1
1836.913	969.1
1841.23	967.1
1845.543	965.1
1849.852	970.1
1854.156	963.1
1858.457	957.1
1862.754	967.1
1867.047	962.1
1871.335	978.1
1875.62	969.1
1879.9	970.1
1884.177	965.1
1888.449	956.1
1892.718	940.1
1896.982	933.1
1901.243	928.1
1905.499	907.1
1909.752	902.1
1914	879.1
1918.245	877.1
1922.485	856.1
1926.722	856.1
1930.954	850.1
1935.183	849.1
1939.408	833.1
1943.628	849.1
1947.845	839.1
1952.058	832.1
1956.267	819.1
1960.472	811.1
1964.673	806.1
1968.87	795.1
1973.063	791.1
1977.252	785.1
1981.438	798.1
1985.619	773.1
1989.797	782.1
1993.971	790.1
1998.14	786.1
2002.306	790.1
2006.469	795.1
2010.627	780.1
2014.781	787.1
2018.932	792.1
2023.078	795.1
2027.221	781.1
2031.36	773.1
2035.495	765.1
2039.627	750.1
2043.754	734.1
2047.878	736.1
2051.998	751.1
2056.114	725.1
2060.226	728.1
2064.334	721.1
2068.439	725.1
2072.54	721.1
2076.637	721.1
2080.73	710.1
2084.82	714.1
2088.906	703.1
2092.988	695.1
2097.066	704.1
2101.14	694.1
2105.211	679.1
2109.278	673.1
2113.342	664.1
2117.401	651.1
2121.457	653.1
2125.509	639.1
2129.558	647.1
2133.602	657.1
2137.643	646.1
2141.681	643.1
2145.714	649.1
2149.744	629.1
2153.77	642.1
2157.793	632.1
2161.812	630.1
2165.827	639.1
2169.838	613.1
2173.846	598.1
2177.851	585.1
2181.851	593.1
2185.848	587.1
2189.841	592.1
2193.831	585.1
2197.817	575.1
2201.799	568.1
2205.778	563.1
2209.753	548.1
2213.725	556.1
2217.693	558.1
2221.657	564.1
2225.618	555.1
2229.575	569.1
2233.529	548.1
2237.479	550.1
2241.425	528.1
2245.368	515.1
2249.307	528.1
2253.243	522.1
2257.175	510.1
2261.104	502.1
2265.029	489.1
2268.95	489.1
2272.868	474.1
2276.783	481.1
2280.694	465.1
2284.601	453.1
2288.505	472.1
2292.405	460.1
2296.302	450.1
2300.195	445.1
2304.085	440.1
2307.971	423.1
2311.854	442.1
2315.734	406.1
2319.609	410.1
2323.482	410.1
2327.351	418.1
2331.216	429.1
2335.078	443.1
2338.937	416.1
2342.792	409.1
2346.643	399.1
2350.492	387.1
2354.336	396.1
2358.178	387.1
2362.015	403.1
2365.85	407.1
2369.681	411.1
2373.508	407.1
2377.333	408.1
2381.153	399.1
2384.971	397.1
2388.785	394.1
2392.595	393.1
2396.402	394.1
2400.206	391.1
2404.007	397.1
2407.804	383.1
2411.597	382.1
2415.388	377.1
2419.174	374.1
2422.958	372.1
2426.738	375.1
2430.515	378.1
2434.289	384.1
2438.059	373.1
2441.825	364.1
2445.589	360.1
2449.349	356.1
2453.106	347.1
2456.859	342.1
2460.61	342.1
2464.356	338.1
2468.1	332.1
2471.84	325.1
2475.577	335.1
2479.311	324.1
2483.041	321.1
2486.768	327.1
2490.492	322.1
2494.213	325.1
2497.93	319.1
2501.644	317.1
2505.355	320.1
2509.062	319.1
2512.766	294.1
2516.467	297.1
2520.165	298.1
2523.859	293.1
2527.551	288.1
2531.239	276.1
2534.923	281.1
2538.605	288.1
2542.283	273.1
2545.958	275.1
2549.63	277.1
2553.299	271.1
2556.964	261.1
2560.626	262.1
2564.285	254.1
2567.941	255.1
2571.594	251.1
2575.243	248.1
2578.89	244.1
2582.533	243.1
2586.173	241.1
2589.809	229.1
2593.443	235.1
2597.073	238.1
2600.701	224.1
2604.325	219.1
2607.946	224.1
2611.564	220.1
2615.178	221.1
2618.79	226.1
2622.398	223.1
2626.004	223.1
2629.606	219.1
2633.205	211.1
2636.801	213.1
2640.394	215.1
2643.983	215.1
2647.57	217.1
2651.153	211.1
2654.734	197.1
2658.311	190.1
2661.885	186.1
2665.456	195.1
2669.025	201.1
2672.589	197.1
2676.151	194.1
2679.71	189.1
2683.266	181.1
2686.819	174.1
2690.368	176.1
2693.915	177.1
2697.458	173.1
2700.999	183.1
2704.536	179.1
2708.071	162.1
2711.602	156.1
2715.13	158.1
2718.656	142.1
2722.178	151.1
2725.697	153.1
2729.214	146.1
2732.727	150.1
2736.237	151.1
2739.744	140.1
2743.249	148.1
2746.75	133.1
2750.248	136.1
2753.743	129.1
2757.236	130.1
2760.725	127.1
2764.211	111.1
2767.695	116.1
2771.175	112.1
2774.652	108.1
2778.127	119.1
2781.598	117.1
2785.067	115.1
2788.532	118.1
2791.995	126.1
2795.455	123.1
2798.911	117.1
2802.365	118.1
2805.816	127.1
2809.264	121.1
2812.709	130.1
2816.151	128.1
2819.59	123.1
2823.026	122.1
2826.46	118.1
2829.89	116.1
2833.318	114.1
2836.742	124.1
2840.164	119.1
2843.583	130.1
2846.999	128.1
2850.412	126.1
2853.822	128.1
2857.229	123.1
2860.634	131.1
2864.035	146.1
2867.434	146.1
2870.83	147.1
2874.223	159.1
2877.613	154.1
2881	158.1
2884.385	162.1
2887.766	149.1
2891.145	140.1
2894.521	161.1
2897.894	164.1
2901.264	166.1
2904.631	161.1
2907.996	164.1
2911.358	159.1
2914.717	167.1
2918.073	172.1
2921.426	174.1
2924.777	181.1
2928.124	187.1
2931.469	187.1
2934.811	207.1
2938.15	202.1
2941.487	199.1
2944.821	205.1
2948.152	201.1
2951.48	201.1
2954.805	205.1
2958.128	199.1
2961.447	193.1
2964.765	198.1
2968.079	196.1
2971.39	191.1
2974.699	196.1
2978.005	207.1
2981.308	212.1
2984.609	193.1
2987.907	199.1
2991.202	208.1
2994.494	206.1
2997.784	208.1
3001.07	218.1
3004.355	236.1
3007.636	223.1
3010.915	218.1
3014.191	228.1
3017.464	222.1
3020.734	236.1
3024.002	232.1
3027.267	235.1
3030.53	242.1
3033.789	258.1
3037.046	258.1
3040.301	253.1
3043.552	266.1
3046.801	277.1
3050.048	282.1
3053.291	284.1
3056.532	300.1
3059.771	316.1
3063.006	325.1
3066.239	332.1
3069.469	347.1
3072.697	349.1
3075.922	365.1
3079.144	376.1
3082.364	384.1
3085.581	395.1
3088.795	402.1
3092.007	409.1
3095.216	405.1
3098.423	421.1
3101.627	435.1
3104.828	445.1
3108.026	449.1
3111.222	458.1
3114.416	461.1
3117.607	491.1
3120.795	490.1
3123.98	487.1
3127.163	510.1
3130.344	514.1
3133.521	532.1
3136.696	557.1
3139.869	563.1
3143.039	569.1
3146.206	569.1
3149.371	587.1
3152.533	587.1
3155.693	580.1
3158.85	596.1
3162.005	588.1
3165.157	603.1
3168.306	594.1
3171.453	605.1
3174.597	613.1
3177.739	624.1
3180.878	620.1
3184.014	624.1
3187.149	629.1
3190.28	616.1
3193.409	623.1
3196.536	633.1
3199.659	630.1
3202.781	636.1
3205.9	632.1
3209.016	637.1
3212.13	633.1
3215.241	632.1
3218.35	620.1
3221.456	610.1
3224.56	614.1
3227.661	599.1
3230.76	602.1
3233.856	578.1
3236.95	573.1
3240.041	576.1
3243.13	554.1
3246.216	553.1
3249.3	543.1
3252.382	538.1
3255.46	541.1
3258.537	530.1
3261.611	525.1
3264.682	515.1
3267.751	519.1
3270.818	510.1
3273.882	505.1
3276.943	506.1
3280.002	509.1
3283.059	501.1
3286.113	501.1
3289.165	488.1
3292.214	491.1
3295.261	476.1
3298.306	471.1
3301.348	481.1
3304.387	463.1
3307.425	457.1
3310.459	470.1
3313.492	455.1
3316.521	442.1
3319.549	433.1
3322.574	433.1
3325.597	435.1
3328.617	432.1
3331.635	428.1
3334.65	436.1
3337.663	425.1
3340.674	423.1
3343.682	428.1
3346.688	416.1
3349.691	425.1
3352.692	418.1
3355.691	418.1
3358.687	426.1
3361.681	403.1
3364.673	401.1
3367.662	405.1
3370.649	385.1
3373.633	380.1
3376.615	375.1
3379.595	377.1
3382.572	364.1
3385.547	363.1
3388.52	354.1
3391.49	351.1
3394.458	351.1
3397.424	337.1
3400.387	331.1
3403.348	330.1
3406.307	323.1
3409.263	314.1
3412.217	312.1
3415.168	317.1
3418.118	307.1
3421.065	299.1
3424.009	304.1
3426.951	302.1
3429.891	285.1
3432.829	274.1
3435.764	270.1
3438.697	264.1
3441.628	255.1
3444.557	253.1
3447.483	238.1
3450.407	233.1
3453.328	221.1
3456.247	213.1
3459.164	204.1
3462.079	191.1
3464.991	182.1
3467.902	175.1
3470.809	181.1
3473.715	165.1
3476.618	161.1
3479.519	147.1
3482.418	140.1
3485.315	139.1
3488.209	123.1
3491.101	127.1
3493.99	125.1
3496.878	113.1
3499.763	104.1
3502.646	96.1
3505.527	92.1
3508.405	87.1
3511.281	80.1
3514.155	76.1
3517.027	70.1
3519.897	67.1
3522.764	52.1
3525.629	43.1
3528.492	46.1
3531.352	45.1
3534.211	26.1
3537.067	25.1
3539.921	24.1
3542.773	13.1
3545.622	3.1
3548.469	0.1
3551.315	0.1
3554.157	-3.9
3556.998	-6.9
3559.837	-11.9
3562.673	-11.9
3565.507	-16.9
3568.339	-27.9
3571.169	-33.9
3573.996	-29.9
3576.822	-31.9
3579.645	-35.9
3582.466	-36.9
3585.285	-43.9
3588.101	-38.9
3590.916	-48.9
3593.728	-59.9
3596.538	-50.9
3599.346	-57.9
3602.152	-53.9
3604.956	-57.9
3607.757	-60.9
3610.556	-60.9
3613.354	-66.9
3616.149	-70.9
3618.942	-80.9
3621.732	-73.9
3624.521	-70.9
3627.307	-77.9
3630.092	-75.9
3632.874	-77.9
3635.654	-91.9
3638.432	-79.9
3641.208	-83.9
3643.982	-86.9
3646.753	-91.9
3649.523	-86.9
3652.29	-85.9
3655.055	-92.9
3657.818	-98.9
3660.579	-94.9
3663.338	-92.9
3666.095	-97.9
3668.849	-103.9
3671.602	-94.9
3674.352	-102.9
3677.101	-112.9
3679.847	-102.9
3682.591	-106.9
3685.333	-98.9
3688.073	-103.9
3690.811	-107.9
3693.547	-114.9
3696.281	-113.9
3699.013	-112.9
3701.742	-112.9
3704.47	-112.9
3707.195	-110.9
3709.919	-114.9
3712.64	-114.9
3715.359	-119.9
3718.076	-114.9
3720.792	-116.9
3723.505	-121.9
3726.216	-115.9
3728.925	-120.9
3731.632	-117.9
3734.336	-131.9
3737.039	-116.9
3739.74	-125.9
3742.439	-130.9
3745.136	-117.9
3747.83	-124.9
3750.523	-124.9
3753.213	-125.9
3755.902	-122.9
3758.589	-123.9
3761.273	-118.9
3763.956	-119.9
3766.636	-121.9
3769.315	-117.9
3771.991	-126.9
3774.665	-132.9
3777.338	-121.9
3780.008	-120.9
3782.677	-124.9
3785.343	-121.9
3788.007	-125.9
3790.67	-127.9
3793.33	-127.9
3795.989	-122.9
3798.645	-124.9
3801.299	-123.9
3803.952	-130.9
3806.602	-122.9
3809.251	-130.9
3811.897	-126.9
3814.542	-131.9
3817.184	-125.9
3819.825	-125.9
3822.463	-129.9
3825.1	-124.9
3827.735	-127.9
3830.367	-125.9
3832.998	-127.9
3835.627	-132.9
3838.253	-125.9
3840.878	-127.9
3843.501	-122.9
3846.122	-132.9
3848.741	-129.9
3851.358	-125.9
3853.973	-134.9
3856.586	-126.9
3859.197	-135.9
3861.806	-125.9
3864.414	-128.9
3867.019	-121.9
3869.622	-128.9
3872.224	-117.9
3874.823	-113.9
3877.421	-107.9
3880.016	-82.9
3882.61	-59.9
3885.202	-60.9
3887.792	-73.9
3890.38	-98.9
3892.966	-121.9
3895.55	-124.9
3898.132	-129.9
3900.713	-129.9
3903.291	-134.9
3905.868	-135.9
3908.442	-126.9
3911.015	-127.9
3913.586	-131.9
3916.155	-133.9
3918.722	-132.9
3921.287	-130.9
3923.85	-130.9
3926.411	-132.9
3928.971	-129.9
3931.528	-132.9
3934.084	-123.9
3936.638	-129.9
3939.19	-137.9
3941.74	-132.9
3944.288	-132.9
3946.834	-130.9
3949.378	-131.9
3951.921	-134.9
3954.462	-135.9
3957	-132.9
3959.537	-125.9
3962.072	-136.9
3964.606	-129.9
3967.137	-128.9
3969.667	-127.9
3972.194	-127.9
3974.72	-125.9
3977.244	-127.9
3979.766	-134.9
3982.286	-130.9
3984.805	-135.9
3987.321	-128.9
3989.836	-124.9
3992.349	-128.9
3994.86	-125.9
3997.369	-131.9
3999.877	-133.9
4002.382	-122.9
4004.886	-133.9
4007.388	-132.9
4009.888	-127.9
4012.386	-126.9
4014.883	-133.9
4017.377	-128.9
4019.87	-128.9
4022.361	-133.9
4024.85	-130.9
4027.338	-130.9
4029.823	-124.9
4032.307	-121.9
4034.789	-127.9
4037.269	-126.9
4039.747	-127.9
4042.224	-123.9
4044.699	-131.9
4047.172	-132.9
4049.643	-128.9
4052.112	-125.9
4054.58	-128.9
4057.046	-130.9
4059.51	-128.9
4061.972	-128.9
4064.432	-132.9
4066.891	-135.9
4069.348	-126.9
4071.803	-131.9
4074.256	-130.9
4076.708	-122.9
4079.158	-127.9
4081.606	-121.9
4084.052	-132.9
4086.497	-129.9
4088.939	-121.9
4091.38	-131.9
4093.819	-128.9
4096.257	-134.9
4098.693	-133.9
4101.127	-132.9
4103.559	-133.9
4105.989	-4.9
4108.418	3.1
4110.845	3.1
4113.27	-1.9
4115.694	-12.9
4118.115	-6.9
4120.535	-129.9
4122.954	-129.9
4125.37	-128.9
4127.785	-129.9
4130.198	-131.9
4132.609	-135.9
4135.019	-135.9
4137.427	-137.9
4139.833	-134.9
4142.237	-134.9
