Data from 2018-2-8_conc=5_n=3_RamanShift_01.txt Node
Date: Mon Mar 12 15:56:58 IST 2018
User: aro
Spectrometer: QEPB0276
Trigger mode: 0
Integration Time (sec): 3.000000E1
Scans to average: 1
Electric dark correction enabled: true
Nonlinearity correction enabled: false
Boxcar width: 0
XAxis mode: Raman Shifts
Number of Pixels in Spectrum: 1044
>>>>>Begin Spectral Data<<<<<
160.701	24.1
166.742	46.1
172.777	95.1
178.805	289.1
184.826	758.1
190.841	1614.1
196.849	2658.1
202.85	3449.1
208.845	3772.1
214.833	3785.1
220.815	3760.1
226.789	3749.1
232.758	3782.1
238.719	3777.1
244.674	3755.1
250.623	3744.1
256.565	3716.1
262.5	3670.1
268.429	3634.1
274.351	3610.1
280.267	3611.1
286.176	3577.1
292.079	3592.1
297.975	3570.1
303.865	3584.1
309.748	3569.1
315.625	3569.1
321.495	3587.1
327.359	3574.1
333.217	3583.1
339.068	3598.1
344.912	3601.1
350.751	3594.1
356.583	3641.1
362.408	3617.1
368.227	3636.1
374.04	3655.1
379.847	3647.1
385.647	3692.1
391.44	3724.1
397.228	3723.1
403.009	3761.1
408.784	3763.1
414.553	3770.1
420.315	3790.1
426.071	3766.1
431.821	3795.1
437.565	3773.1
443.302	3786.1
449.033	3764.1
454.758	3751.1
460.477	3744.1
466.189	3689.1
471.896	3677.1
477.596	3635.1
483.29	3636.1
488.978	3628.1
494.66	3585.1
500.335	3534.1
506.005	3425.1
511.668	3294.1
517.325	3171.1
522.977	3042.1
528.622	2993.1
534.261	2928.1
539.894	2875.1
545.521	2839.1
551.141	2804.1
556.756	2811.1
562.365	2790.1
567.968	2767.1
573.565	2723.1
579.155	2719.1
584.74	2704.1
590.319	2677.1
595.892	2712.1
601.459	2691.1
607.02	2684.1
612.575	2674.1
618.124	2634.1
623.667	2614.1
629.204	2585.1
634.735	2549.1
640.261	2543.1
645.781	2529.1
651.294	2487.1
656.802	2513.1
662.304	2481.1
667.8	2492.1
673.29	2475.1
678.775	2483.1
684.254	2473.1
689.726	2446.1
695.193	2455.1
700.655	2429.1
706.11	2418.1
711.56	2386.1
717.004	2389.1
722.442	2378.1
727.874	2364.1
733.301	2369.1
738.722	2343.1
744.137	2349.1
749.547	2321.1
754.951	2345.1
760.349	2320.1
765.741	2322.1
771.128	2364.1
776.509	2379.1
781.885	2410.1
787.254	2429.1
792.618	2409.1
797.977	2431.1
803.33	2383.1
808.677	2391.1
814.019	2367.1
819.355	2347.1
824.686	2339.1
830.011	2289.1
835.33	2296.1
840.644	2314.1
845.952	2299.1
851.255	2267.1
856.552	2254.1
861.844	2237.1
867.13	2243.1
872.41	2237.1
877.686	2175.1
882.955	2159.1
888.219	2156.1
893.478	2135.1
898.731	2099.1
903.979	2069.1
909.221	2068.1
914.458	2068.1
919.69	2037.1
924.916	2061.1
930.136	2050.1
935.351	2073.1
940.561	2062.1
945.766	2055.1
950.965	2044.1
956.158	2018.1
961.347	2003.1
966.529	1988.1
971.707	1968.1
976.879	1921.1
982.046	1894.1
987.208	1906.1
992.364	1910.1
997.515	1913.1
1002.66	1956.1
1007.801	1941.1
1012.936	1958.1
1018.066	1942.1
1023.19	1952.1
1028.309	1954.1
1033.423	1972.1
1038.532	1952.1
1043.636	1955.1
1048.734	1930.1
1053.827	1917.1
1058.915	1888.1
1063.998	1866.1
1069.075	1859.1
1074.147	1873.1
1079.214	1873.1
1084.276	1870.1
1089.333	1889.1
1094.385	1892.1
1099.431	1882.1
1104.472	1879.1
1109.509	1876.1
1114.54	1841.1
1119.565	1842.1
1124.586	1795.1
1129.602	1757.1
1134.613	1766.1
1139.618	1750.1
1144.619	1764.1
1149.614	1738.1
1154.604	1754.1
1159.589	1752.1
1164.57	1752.1
1169.545	1761.1
1174.515	1766.1
1179.48	1750.1
1184.44	1747.1
1189.395	1716.1
1194.345	1719.1
1199.29	1694.1
1204.23	1702.1
1209.165	1708.1
1214.095	1725.1
1219.021	1717.1
1223.941	1737.1
1228.856	1735.1
1233.766	1745.1
1238.672	1757.1
1243.572	1723.1
1248.467	1727.1
1253.358	1722.1
1258.244	1682.1
1263.124	1661.1
1268	1614.1
1272.871	1613.1
1277.737	1597.1
1282.599	1579.1
1287.455	1581.1
1292.306	1589.1
1297.153	1593.1
1301.995	1622.1
1306.832	1608.1
1311.664	1631.1
1316.491	1603.1
1321.314	1625.1
1326.132	1606.1
1330.945	1595.1
1335.753	1569.1
1340.556	1582.1
1345.354	1532.1
1350.148	1517.1
1354.937	1492.1
1359.722	1460.1
1364.501	1456.1
1369.276	1444.1
1374.046	1402.1
1378.811	1384.1
1383.572	1354.1
1388.327	1369.1
1393.079	1373.1
1397.825	1370.1
1402.567	1374.1
1407.304	1376.1
1412.036	1374.1
1416.764	1364.1
1421.487	1378.1
1426.205	1354.1
1430.919	1370.1
1435.628	1382.1
1440.333	1394.1
1445.032	1418.1
1449.727	1421.1
1454.418	1425.1
1459.104	1416.1
1463.785	1414.1
1468.462	1381.1
1473.134	1364.1
1477.802	1335.1
1482.465	1309.1
1487.123	1281.1
1491.777	1271.1
1496.426	1258.1
1501.071	1259.1
1505.711	1243.1
1510.347	1247.1
1514.978	1258.1
1519.604	1251.1
1524.226	1257.1
1528.844	1240.1
1533.457	1235.1
1538.065	1212.1
1542.669	1214.1
1547.269	1200.1
1551.864	1209.1
1556.454	1234.1
1561.041	1235.1
1565.622	1251.1
1570.199	1238.1
1574.772	1251.1
1579.34	1258.1
1583.904	1264.1
1588.464	1289.1
1593.019	1276.1
1597.569	1293.1
1602.115	1304.1
1606.657	1278.1
1611.195	1261.1
1615.728	1261.1
1620.256	1278.1
1624.78	1278.1
1629.3	1265.1
1633.816	1281.1
1638.327	1294.1
1642.834	1290.1
1647.336	1296.1
1651.834	1299.1
1656.328	1290.1
1660.817	1314.1
1665.302	1284.1
1669.783	1274.1
1674.259	1241.1
1678.732	1212.1
1683.199	1176.1
1687.663	1146.1
1692.122	1132.1
1696.577	1091.1
1701.028	1037.1
1705.474	1018.1
1709.917	974.1
1714.355	980.1
1718.788	930.1
1723.218	945.1
1727.643	955.1
1732.064	938.1
1736.481	937.1
1740.893	902.1
1745.301	897.1
1749.705	881.1
1754.105	865.1
1758.501	856.1
1762.893	836.1
1767.28	835.1
1771.663	826.1
1776.042	822.1
1780.417	820.1
1784.787	804.1
1789.154	803.1
1793.516	793.1
1797.874	786.1
1802.228	779.1
1806.578	765.1
1810.924	757.1
1815.266	753.1
1819.603	758.1
1823.937	750.1
1828.266	734.1
1832.591	723.1
1836.913	725.1
1841.23	727.1
1845.543	743.1
1849.852	736.1
1854.156	742.1
1858.457	733.1
1862.754	746.1
1867.047	739.1
1871.335	734.1
1875.62	744.1
1879.9	742.1
1884.177	737.1
1888.449	735.1
1892.718	712.1
1896.982	717.1
1901.243	704.1
1905.499	707.1
1909.752	686.1
1914	679.1
1918.245	686.1
1922.485	675.1
1926.722	660.1
1930.954	670.1
1935.183	665.1
1939.408	663.1
1943.628	658.1
1947.845	650.1
1952.058	645.1
1956.267	637.1
1960.472	635.1
1964.673	620.1
1968.87	619.1
1973.063	617.1
1977.252	606.1
1981.438	619.1
1985.619	609.1
1989.797	591.1
1993.971	602.1
1998.14	606.1
2002.306	606.1
2006.469	613.1
2010.627	595.1
2014.781	597.1
2018.932	600.1
2023.078	605.1
2027.221	600.1
2031.36	603.1
2035.495	576.1
2039.627	571.1
2043.754	563.1
2047.878	572.1
2051.998	553.1
2056.114	555.1
2060.226	557.1
2064.334	551.1
2068.439	547.1
2072.54	543.1
2076.637	560.1
2080.73	559.1
2084.82	546.1
2088.906	539.1
2092.988	548.1
2097.066	519.1
2101.14	520.1
2105.211	519.1
2109.278	526.1
2113.342	505.1
2117.401	507.1
2121.457	495.1
2125.509	496.1
2129.558	489.1
2133.602	495.1
2137.643	491.1
2141.681	493.1
2145.714	488.1
2149.744	483.1
2153.77	482.1
2157.793	485.1
2161.812	475.1
2165.827	481.1
2169.838	480.1
2173.846	461.1
2177.851	445.1
2181.851	444.1
2185.848	429.1
2189.841	441.1
2193.831	433.1
2197.817	426.1
2201.799	427.1
2205.778	422.1
2209.753	407.1
2213.725	413.1
2217.693	420.1
2221.657	422.1
2225.618	426.1
2229.575	432.1
2233.529	413.1
2237.479	409.1
2241.425	399.1
2245.368	399.1
2249.307	397.1
2253.243	376.1
2257.175	387.1
2261.104	371.1
2265.029	367.1
2268.95	373.1
2272.868	364.1
2276.783	345.1
2280.694	361.1
2284.601	354.1
2288.505	345.1
2292.405	342.1
2296.302	343.1
2300.195	336.1
2304.085	326.1
2307.971	314.1
2311.854	318.1
2315.734	316.1
2319.609	309.1
2323.482	306.1
2327.351	304.1
2331.216	315.1
2335.078	328.1
2338.937	310.1
2342.792	287.1
2346.643	285.1
2350.492	286.1
2354.336	284.1
2358.178	292.1
2362.015	293.1
2365.85	295.1
2369.681	292.1
2373.508	288.1
2377.333	290.1
2381.153	287.1
2384.971	295.1
2388.785	282.1
2392.595	285.1
2396.402	279.1
2400.206	281.1
2404.007	277.1
2407.804	287.1
2411.597	278.1
2415.388	270.1
2419.174	271.1
2422.958	270.1
2426.738	267.1
2430.515	277.1
2434.289	267.1
2438.059	264.1
2441.825	253.1
2445.589	263.1
2449.349	241.1
2453.106	261.1
2456.859	251.1
2460.61	255.1
2464.356	239.1
2468.1	233.1
2471.84	237.1
2475.577	242.1
2479.311	228.1
2483.041	229.1
2486.768	241.1
2490.492	226.1
2494.213	231.1
2497.93	228.1
2501.644	229.1
2505.355	215.1
2509.062	225.1
2512.766	227.1
2516.467	216.1
2520.165	209.1
2523.859	212.1
2527.551	204.1
2531.239	197.1
2534.923	203.1
2538.605	193.1
2542.283	197.1
2545.958	188.1
2549.63	192.1
2553.299	191.1
2556.964	195.1
2560.626	185.1
2564.285	185.1
2567.941	185.1
2571.594	188.1
2575.243	176.1
2578.89	172.1
2582.533	171.1
2586.173	173.1
2589.809	161.1
2593.443	168.1
2597.073	170.1
2600.701	166.1
2604.325	157.1
2607.946	165.1
2611.564	168.1
2615.178	164.1
2618.79	162.1
2622.398	151.1
2626.004	148.1
2629.606	150.1
2633.205	151.1
2636.801	148.1
2640.394	145.1
2643.983	147.1
2647.57	141.1
2651.153	145.1
2654.734	136.1
2658.311	136.1
2661.885	133.1
2665.456	132.1
2669.025	144.1
2672.589	135.1
2676.151	134.1
2679.71	133.1
2683.266	125.1
2686.819	129.1
2690.368	129.1
2693.915	117.1
2697.458	121.1
2700.999	115.1
2704.536	118.1
2708.071	106.1
2711.602	113.1
2715.13	115.1
2718.656	105.1
2722.178	102.1
2725.697	106.1
2729.214	99.1
2732.727	104.1
2736.237	105.1
2739.744	94.1
2743.249	93.1
2746.75	99.1
2750.248	93.1
2753.743	92.1
2757.236	96.1
2760.725	90.1
2764.211	83.1
2767.695	87.1
2771.175	69.1
2774.652	77.1
2778.127	81.1
2781.598	81.1
2785.067	79.1
2788.532	82.1
2791.995	85.1
2795.455	78.1
2798.911	72.1
2802.365	83.1
2805.816	89.1
2809.264	80.1
2812.709	84.1
2816.151	85.1
2819.59	83.1
2823.026	79.1
2826.46	78.1
2829.89	80.1
2833.318	74.1
2836.742	87.1
2840.164	82.1
2843.583	84.1
2846.999	81.1
2850.412	84.1
2853.822	80.1
2857.229	81.1
2860.634	93.1
2864.035	92.1
2867.434	94.1
2870.83	105.1
2874.223	105.1
2877.613	104.1
2881	114.1
2884.385	106.1
2887.766	108.1
2891.145	99.1
2894.521	104.1
2897.894	114.1
2901.264	110.1
2904.631	104.1
2907.996	106.1
2911.358	111.1
2914.717	106.1
2918.073	106.1
2921.426	118.1
2924.777	119.1
2928.124	123.1
2931.469	118.1
2934.811	122.1
2938.15	124.1
2941.487	135.1
2944.821	136.1
2948.152	139.1
2951.48	135.1
2954.805	139.1
2958.128	134.1
2961.447	121.1
2964.765	132.1
2968.079	121.1
2971.39	124.1
2974.699	133.1
2978.005	131.1
2981.308	127.1
2984.609	140.1
2987.907	126.1
2991.202	135.1
2994.494	131.1
2997.784	133.1
3001.07	150.1
3004.355	153.1
3007.636	145.1
3010.915	147.1
3014.191	142.1
3017.464	149.1
3020.734	152.1
3024.002	144.1
3027.267	156.1
3030.53	160.1
3033.789	166.1
3037.046	174.1
3040.301	157.1
3043.552	182.1
3046.801	185.1
3050.048	191.1
3053.291	194.1
3056.532	202.1
3059.771	206.1
3063.006	217.1
3066.239	232.1
3069.469	222.1
3072.697	226.1
3075.922	242.1
3079.144	251.1
3082.364	257.1
3085.581	259.1
3088.795	264.1
3092.007	271.1
3095.216	268.1
3098.423	286.1
3101.627	294.1
3104.828	306.1
3108.026	307.1
3111.222	307.1
3114.416	312.1
3117.607	327.1
3120.795	331.1
3123.98	339.1
3127.163	340.1
3130.344	362.1
3133.521	356.1
3136.696	383.1
3139.869	380.1
3143.039	380.1
3146.206	380.1
3149.371	397.1
3152.533	404.1
3155.693	417.1
3158.85	404.1
3162.005	414.1
3165.157	422.1
3168.306	408.1
3171.453	398.1
3174.597	405.1
3177.739	424.1
3180.878	427.1
3184.014	432.1
3187.149	417.1
3190.28	424.1
3193.409	431.1
3196.536	427.1
3199.659	430.1
3202.781	432.1
3205.9	439.1
3209.016	442.1
3212.13	441.1
3215.241	439.1
3218.35	420.1
3221.456	413.1
3224.56	414.1
3227.661	409.1
3230.76	402.1
3233.856	393.1
3236.95	390.1
3240.041	397.1
3243.13	377.1
3246.216	374.1
3249.3	363.1
3252.382	376.1
3255.46	368.1
3258.537	363.1
3261.611	355.1
3264.682	346.1
3267.751	350.1
3270.818	344.1
3273.882	343.1
3276.943	343.1
3280.002	347.1
3283.059	340.1
3286.113	336.1
3289.165	343.1
3292.214	330.1
3295.261	312.1
3298.306	315.1
3301.348	304.1
3304.387	313.1
3307.425	307.1
3310.459	301.1
3313.492	302.1
3316.521	287.1
3319.549	288.1
3322.574	286.1
3325.597	279.1
3328.617	287.1
3331.635	284.1
3334.65	277.1
3337.663	277.1
3340.674	283.1
3343.682	280.1
3346.688	268.1
3349.691	285.1
3352.692	278.1
3355.691	278.1
3358.687	271.1
3361.681	267.1
3364.673	261.1
3367.662	265.1
3370.649	257.1
3373.633	258.1
3376.615	242.1
3379.595	245.1
3382.572	235.1
3385.547	236.1
3388.52	234.1
3391.49	239.1
3394.458	222.1
3397.424	220.1
3400.387	216.1
3403.348	222.1
3406.307	201.1
3409.263	207.1
3412.217	208.1
3415.168	206.1
3418.118	200.1
3421.065	202.1
3424.009	193.1
3426.951	184.1
3429.891	181.1
3432.829	177.1
3435.764	168.1
3438.697	170.1
3441.628	161.1
3444.557	162.1
3447.483	148.1
3450.407	152.1
3453.328	137.1
3456.247	127.1
3459.164	124.1
3462.079	118.1
3464.991	122.1
3467.902	108.1
3470.809	108.1
3473.715	96.1
3476.618	92.1
3479.519	89.1
3482.418	87.1
3485.315	79.1
3488.209	80.1
3491.101	73.1
3493.99	75.1
3496.878	61.1
3499.763	55.1
3502.646	50.1
3505.527	46.1
3508.405	49.1
3511.281	48.1
3514.155	42.1
3517.027	36.1
3519.897	23.1
3522.764	18.1
3525.629	16.1
3528.492	18.1
3531.352	18.1
3534.211	9.1
3537.067	4.1
3539.921	4.1
3542.773	-8.9
3545.622	-10.9
3548.469	-18.9
3551.315	-13.9
3554.157	-15.9
3556.998	-27.9
3559.837	-30.9
3562.673	-29.9
3565.507	-25.9
3568.339	-27.9
3571.169	-40.9
3573.996	-35.9
3576.822	-36.9
3579.645	-38.9
3582.466	-40.9
3585.285	-46.9
3588.101	-40.9
3590.916	-51.9
3593.728	-56.9
3596.538	-49.9
3599.346	-52.9
3602.152	-51.9
3604.956	-55.9
3607.757	-48.9
3610.556	-59.9
3613.354	-59.9
3616.149	-69.9
3618.942	-65.9
3621.732	-66.9
3624.521	-67.9
3627.307	-67.9
3630.092	-72.9
3632.874	-71.9
3635.654	-71.9
3638.432	-68.9
3641.208	-72.9
3643.982	-76.9
3646.753	-77.9
3649.523	-78.9
3652.29	-78.9
3655.055	-74.9
3657.818	-79.9
3660.579	-76.9
3663.338	-78.9
3666.095	-86.9
3668.849	-89.9
3671.602	-87.9
3674.352	-82.9
3677.101	-90.9
3679.847	-87.9
3682.591	-89.9
3685.333	-89.9
3688.073	-93.9
3690.811	-95.9
3693.547	-98.9
3696.281	-92.9
3699.013	-93.9
3701.742	-99.9
3704.47	-96.9
3707.195	-95.9
3709.919	-99.9
3712.64	-95.9
3715.359	-103.9
3718.076	-101.9
3720.792	-103.9
3723.505	-102.9
3726.216	-102.9
3728.925	-99.9
3731.632	-104.9
3734.336	-105.9
3737.039	-99.9
3739.74	-102.9
3742.439	-109.9
3745.136	-98.9
3747.83	-108.9
3750.523	-108.9
3753.213	-116.9
3755.902	-99.9
3758.589	-105.9
3761.273	-98.9
3763.956	-97.9
3766.636	-105.9
3769.315	-101.9
3771.991	-102.9
3774.665	-112.9
3777.338	-100.9
3780.008	-103.9
3782.677	-107.9
3785.343	-97.9
3788.007	-105.9
3790.67	-105.9
3793.33	-106.9
3795.989	-109.9
3798.645	-104.9
3801.299	-104.9
3803.952	-111.9
3806.602	-103.9
3809.251	-108.9
3811.897	-114.9
3814.542	-111.9
3817.184	-104.9
3819.825	-105.9
3822.463	-103.9
3825.1	-105.9
3827.735	-110.9
3830.367	-108.9
3832.998	-110.9
3835.627	-109.9
3838.253	-106.9
3840.878	-110.9
3843.501	-101.9
3846.122	-108.9
3848.741	-112.9
3851.358	-99.9
3853.973	-114.9
3856.586	-109.9
3859.197	-112.9
3861.806	-108.9
3864.414	-107.9
3867.019	-102.9
3869.622	-107.9
3872.224	-98.9
3874.823	-88.9
3877.421	-76.9
3880.016	-53.9
3882.61	-34.9
3885.202	-29.9
3887.792	-44.9
3890.38	-74.9
3892.966	-92.9
3895.55	-102.9
3898.132	-104.9
3900.713	-109.9
3903.291	-111.9
3905.868	-112.9
3908.442	-104.9
3911.015	-115.9
3913.586	-108.9
3916.155	-113.9
3918.722	-113.9
3921.287	-113.9
3923.85	-114.9
3926.411	-112.9
3928.971	-112.9
3931.528	-106.9
3934.084	-110.9
3936.638	-103.9
3939.19	-115.9
3941.74	-115.9
3944.288	-115.9
3946.834	-109.9
3949.378	-107.9
3951.921	-112.9
3954.462	-113.9
3957	-111.9
3959.537	-105.9
3962.072	-112.9
3964.606	-112.9
3967.137	-109.9
3969.667	-110.9
3972.194	-114.9
3974.72	-106.9
3977.244	-107.9
3979.766	-111.9
3982.286	-110.9
3984.805	-112.9
3987.321	-113.9
3989.836	-101.9
3992.349	-111.9
3994.86	-109.9
3997.369	-114.9
3999.877	-109.9
4002.382	-103.9
4004.886	-117.9
4007.388	-106.9
4009.888	-105.9
4012.386	-113.9
4014.883	-103.9
4017.377	-108.9
4019.87	-109.9
4022.361	-110.9
4024.85	-113.9
4027.338	-109.9
4029.823	-104.9
4032.307	-107.9
4034.789	-111.9
4037.269	-105.9
4039.747	-106.9
4042.224	-107.9
4044.699	-114.9
4047.172	-109.9
4049.643	-106.9
4052.112	-106.9
4054.58	-109.9
4057.046	-104.9
4059.51	-109.9
4061.972	-109.9
4064.432	-107.9
4066.891	-118.9
4069.348	-104.9
4071.803	-116.9
4074.256	-113.9
4076.708	-102.9
4079.158	-110.9
4081.606	-97.9
4084.052	-112.9
4086.497	-107.9
4088.939	-104.9
4091.38	-107.9
4093.819	-106.9
4096.257	-113.9
4098.693	-107.9
4101.127	-115.9
4103.559	-112.9
4105.989	29.1
4108.418	21.1
4110.845	23.1
4113.27	23.1
4115.694	15.1
4118.115	8.1
4120.535	-108.9
4122.954	-106.9
4125.37	-106.9
4127.785	-107.9
4130.198	-108.9
4132.609	-107.9
4135.019	-113.9
4137.427	-115.9
4139.833	-111.9
4142.237	-112.9
