Data from 2018-2-8_conc=6_n=1_RamanShift_01.txt Node
Date: Mon Mar 12 16:23:28 IST 2018
User: aro
Spectrometer: QEPB0276
Trigger mode: 0
Integration Time (sec): 3.000000E1
Scans to average: 1
Electric dark correction enabled: true
Nonlinearity correction enabled: false
Boxcar width: 0
XAxis mode: Raman Shifts
Number of Pixels in Spectrum: 1044
>>>>>Begin Spectral Data<<<<<
160.701	20.5
166.742	41.5
172.777	102.5
178.805	307.5
184.826	825.5
190.841	1762.5
196.849	2907.5
202.85	3797.5
208.845	4133.5
214.833	4140.5
220.815	4102.5
226.789	4125.5
232.758	4077.5
238.719	4110.5
244.674	4080.5
250.623	4033.5
256.565	4019.5
262.5	3947.5
268.429	3881.5
274.351	3885.5
280.267	3867.5
286.176	3862.5
292.079	3835.5
297.975	3837.5
303.865	3814.5
309.748	3807.5
315.625	3792.5
321.495	3793.5
327.359	3806.5
333.217	3825.5
339.068	3813.5
344.912	3842.5
350.751	3835.5
356.583	3847.5
362.408	3881.5
368.227	3875.5
374.04	3881.5
379.847	3874.5
385.647	3929.5
391.44	3920.5
397.228	3954.5
403.009	4017.5
408.784	3983.5
414.553	4019.5
420.315	4018.5
426.071	4043.5
431.821	4006.5
437.565	4003.5
443.302	3990.5
449.033	3990.5
454.758	3961.5
460.477	3957.5
466.189	3953.5
471.896	3901.5
477.596	3838.5
483.29	3833.5
488.978	3855.5
494.66	3846.5
500.335	3762.5
506.005	3668.5
511.668	3511.5
517.325	3403.5
522.977	3275.5
528.622	3205.5
534.261	3166.5
539.894	3096.5
545.521	3060.5
551.141	2997.5
556.756	3037.5
562.365	3023.5
567.968	2971.5
573.565	2948.5
579.155	2939.5
584.74	2916.5
590.319	2922.5
595.892	2896.5
601.459	2909.5
607.02	2920.5
612.575	2880.5
618.124	2864.5
623.667	2821.5
629.204	2779.5
634.735	2767.5
640.261	2759.5
645.781	2731.5
651.294	2737.5
656.802	2705.5
662.304	2690.5
667.8	2699.5
673.29	2688.5
678.775	2665.5
684.254	2670.5
689.726	2671.5
695.193	2662.5
700.655	2620.5
706.11	2637.5
711.56	2628.5
717.004	2604.5
722.442	2581.5
727.874	2584.5
733.301	2558.5
738.722	2557.5
744.137	2545.5
749.547	2545.5
754.951	2552.5
760.349	2551.5
765.741	2545.5
771.128	2576.5
776.509	2611.5
781.885	2612.5
787.254	2586.5
792.618	2616.5
797.977	2606.5
803.33	2582.5
808.677	2568.5
814.019	2545.5
819.355	2547.5
824.686	2533.5
830.011	2503.5
835.33	2495.5
840.644	2480.5
845.952	2488.5
851.255	2467.5
856.552	2442.5
861.844	2436.5
867.13	2408.5
872.41	2386.5
877.686	2371.5
882.955	2360.5
888.219	2341.5
893.478	2320.5
898.731	2252.5
903.979	2251.5
909.221	2243.5
914.458	2243.5
919.69	2219.5
924.916	2241.5
930.136	2232.5
935.351	2231.5
940.561	2249.5
945.766	2245.5
950.965	2228.5
956.158	2191.5
961.347	2187.5
966.529	2161.5
971.707	2148.5
976.879	2098.5
982.046	2091.5
987.208	2054.5
992.364	2074.5
997.515	2081.5
1002.66	2099.5
1007.801	2113.5
1012.936	2124.5
1018.066	2116.5
1023.19	2129.5
1028.309	2133.5
1033.423	2136.5
1038.532	2136.5
1043.636	2116.5
1048.734	2100.5
1053.827	2072.5
1058.915	2064.5
1063.998	2042.5
1069.075	2007.5
1074.147	2024.5
1079.214	2024.5
1084.276	2037.5
1089.333	2041.5
1094.385	2051.5
1099.431	2042.5
1104.472	2028.5
1109.509	2033.5
1114.54	2019.5
1119.565	1983.5
1124.586	1948.5
1129.602	1920.5
1134.613	1918.5
1139.618	1885.5
1144.619	1914.5
1149.614	1867.5
1154.604	1894.5
1159.589	1902.5
1164.57	1906.5
1169.545	1913.5
1174.515	1928.5
1179.48	1910.5
1184.44	1897.5
1189.395	1887.5
1194.345	1870.5
1199.29	1845.5
1204.23	1867.5
1209.165	1849.5
1214.095	1857.5
1219.021	1882.5
1223.941	1877.5
1228.856	1910.5
1233.766	1900.5
1238.672	1894.5
1243.572	1909.5
1248.467	1882.5
1253.358	1869.5
1258.244	1827.5
1263.124	1788.5
1268	1773.5
1272.871	1744.5
1277.737	1745.5
1282.599	1729.5
1287.455	1722.5
1292.306	1719.5
1297.153	1738.5
1301.995	1753.5
1306.832	1758.5
1311.664	1774.5
1316.491	1759.5
1321.314	1761.5
1326.132	1746.5
1330.945	1726.5
1335.753	1707.5
1340.556	1688.5
1345.354	1668.5
1350.148	1643.5
1354.937	1631.5
1359.722	1588.5
1364.501	1569.5
1369.276	1550.5
1374.046	1537.5
1378.811	1511.5
1383.572	1505.5
1388.327	1484.5
1393.079	1485.5
1397.825	1491.5
1402.567	1473.5
1407.304	1485.5
1412.036	1484.5
1416.764	1482.5
1421.487	1483.5
1426.205	1499.5
1430.919	1485.5
1435.628	1525.5
1440.333	1529.5
1445.032	1556.5
1449.727	1549.5
1454.418	1555.5
1459.104	1539.5
1463.785	1533.5
1468.462	1504.5
1473.134	1495.5
1477.802	1452.5
1482.465	1428.5
1487.123	1397.5
1491.777	1383.5
1496.426	1379.5
1501.071	1379.5
1505.711	1353.5
1510.347	1369.5
1514.978	1384.5
1519.604	1357.5
1524.226	1368.5
1528.844	1352.5
1533.457	1330.5
1538.065	1332.5
1542.669	1324.5
1547.269	1304.5
1551.864	1331.5
1556.454	1332.5
1561.041	1351.5
1565.622	1363.5
1570.199	1354.5
1574.772	1371.5
1579.34	1372.5
1583.904	1409.5
1588.464	1423.5
1593.019	1406.5
1597.569	1427.5
1602.115	1408.5
1606.657	1391.5
1611.195	1398.5
1615.728	1409.5
1620.256	1404.5
1624.78	1391.5
1629.3	1406.5
1633.816	1400.5
1638.327	1419.5
1642.834	1410.5
1647.336	1429.5
1651.834	1432.5
1656.328	1425.5
1660.817	1417.5
1665.302	1416.5
1669.783	1402.5
1674.259	1369.5
1678.732	1341.5
1683.199	1305.5
1687.663	1255.5
1692.122	1217.5
1696.577	1189.5
1701.028	1129.5
1705.474	1094.5
1709.917	1066.5
1714.355	1052.5
1718.788	1031.5
1723.218	1029.5
1727.643	1042.5
1732.064	1022.5
1736.481	1017.5
1740.893	993.5
1745.301	969.5
1749.705	957.5
1754.105	938.5
1758.501	914.5
1762.893	916.5
1767.28	921.5
1771.663	894.5
1776.042	892.5
1780.417	887.5
1784.787	881.5
1789.154	864.5
1793.516	861.5
1797.874	850.5
1802.228	841.5
1806.578	843.5
1810.924	837.5
1815.266	817.5
1819.603	809.5
1823.937	808.5
1828.266	806.5
1832.591	799.5
1836.913	803.5
1841.23	793.5
1845.543	800.5
1849.852	802.5
1854.156	800.5
1858.457	807.5
1862.754	791.5
1867.047	801.5
1871.335	809.5
1875.62	814.5
1879.9	813.5
1884.177	801.5
1888.449	790.5
1892.718	775.5
1896.982	777.5
1901.243	760.5
1905.499	758.5
1909.752	762.5
1914	743.5
1918.245	736.5
1922.485	722.5
1926.722	723.5
1930.954	723.5
1935.183	726.5
1939.408	718.5
1943.628	714.5
1947.845	701.5
1952.058	699.5
1956.267	699.5
1960.472	686.5
1964.673	675.5
1968.87	665.5
1973.063	666.5
1977.252	650.5
1981.438	670.5
1985.619	664.5
1989.797	652.5
1993.971	658.5
1998.14	653.5
2002.306	655.5
2006.469	656.5
2010.627	653.5
2014.781	662.5
2018.932	653.5
2023.078	654.5
2027.221	661.5
2031.36	646.5
2035.495	634.5
2039.627	630.5
2043.754	609.5
2047.878	626.5
2051.998	625.5
2056.114	612.5
2060.226	605.5
2064.334	607.5
2068.439	607.5
2072.54	610.5
2076.637	602.5
2080.73	604.5
2084.82	605.5
2088.906	596.5
2092.988	584.5
2097.066	578.5
2101.14	577.5
2105.211	560.5
2109.278	566.5
2113.342	554.5
2117.401	551.5
2121.457	546.5
2125.509	528.5
2129.558	533.5
2133.602	534.5
2137.643	532.5
2141.681	531.5
2145.714	536.5
2149.744	533.5
2153.77	536.5
2157.793	535.5
2161.812	526.5
2165.827	513.5
2169.838	512.5
2173.846	505.5
2177.851	495.5
2181.851	474.5
2185.848	491.5
2189.841	472.5
2193.831	482.5
2197.817	465.5
2201.799	458.5
2205.778	466.5
2209.753	466.5
2213.725	460.5
2217.693	460.5
2221.657	456.5
2225.618	461.5
2229.575	457.5
2233.529	460.5
2237.479	449.5
2241.425	427.5
2245.368	435.5
2249.307	418.5
2253.243	418.5
2257.175	415.5
2261.104	406.5
2265.029	411.5
2268.95	406.5
2272.868	395.5
2276.783	387.5
2280.694	379.5
2284.601	378.5
2288.505	381.5
2292.405	378.5
2296.302	366.5
2300.195	356.5
2304.085	358.5
2307.971	342.5
2311.854	348.5
2315.734	339.5
2319.609	325.5
2323.482	332.5
2327.351	336.5
2331.216	340.5
2335.078	347.5
2338.937	339.5
2342.792	321.5
2346.643	315.5
2350.492	314.5
2354.336	312.5
2358.178	319.5
2362.015	314.5
2365.85	325.5
2369.681	311.5
2373.508	321.5
2377.333	316.5
2381.153	311.5
2384.971	319.5
2388.785	312.5
2392.595	313.5
2396.402	305.5
2400.206	310.5
2404.007	300.5
2407.804	293.5
2411.597	291.5
2415.388	293.5
2419.174	292.5
2422.958	290.5
2426.738	292.5
2430.515	285.5
2434.289	283.5
2438.059	274.5
2441.825	276.5
2445.589	276.5
2449.349	272.5
2453.106	272.5
2456.859	270.5
2460.61	267.5
2464.356	260.5
2468.1	261.5
2471.84	252.5
2475.577	266.5
2479.311	244.5
2483.041	247.5
2486.768	241.5
2490.492	237.5
2494.213	232.5
2497.93	240.5
2501.644	226.5
2505.355	235.5
2509.062	239.5
2512.766	236.5
2516.467	228.5
2520.165	228.5
2523.859	223.5
2527.551	232.5
2531.239	216.5
2534.923	213.5
2538.605	211.5
2542.283	211.5
2545.958	208.5
2549.63	211.5
2553.299	210.5
2556.964	215.5
2560.626	202.5
2564.285	194.5
2567.941	194.5
2571.594	201.5
2575.243	201.5
2578.89	184.5
2582.533	183.5
2586.173	180.5
2589.809	182.5
2593.443	191.5
2597.073	176.5
2600.701	178.5
2604.325	170.5
2607.946	172.5
2611.564	174.5
2615.178	170.5
2618.79	173.5
2622.398	167.5
2626.004	166.5
2629.606	162.5
2633.205	159.5
2636.801	162.5
2640.394	158.5
2643.983	166.5
2647.57	155.5
2651.153	161.5
2654.734	152.5
2658.311	141.5
2661.885	141.5
2665.456	152.5
2669.025	152.5
2672.589	147.5
2676.151	143.5
2679.71	142.5
2683.266	141.5
2686.819	131.5
2690.368	128.5
2693.915	125.5
2697.458	124.5
2700.999	131.5
2704.536	128.5
2708.071	115.5
2711.602	120.5
2715.13	122.5
2718.656	117.5
2722.178	118.5
2725.697	112.5
2729.214	104.5
2732.727	117.5
2736.237	113.5
2739.744	108.5
2743.249	116.5
2746.75	110.5
2750.248	104.5
2753.743	104.5
2757.236	94.5
2760.725	94.5
2764.211	86.5
2767.695	96.5
2771.175	80.5
2774.652	90.5
2778.127	94.5
2781.598	83.5
2785.067	86.5
2788.532	82.5
2791.995	97.5
2795.455	94.5
2798.911	87.5
2802.365	96.5
2805.816	104.5
2809.264	96.5
2812.709	92.5
2816.151	97.5
2819.59	93.5
2823.026	102.5
2826.46	96.5
2829.89	95.5
2833.318	93.5
2836.742	96.5
2840.164	88.5
2843.583	93.5
2846.999	97.5
2850.412	90.5
2853.822	99.5
2857.229	92.5
2860.634	93.5
2864.035	100.5
2867.434	99.5
2870.83	113.5
2874.223	115.5
2877.613	118.5
2881	128.5
2884.385	126.5
2887.766	114.5
2891.145	116.5
2894.521	124.5
2897.894	123.5
2901.264	126.5
2904.631	123.5
2907.996	131.5
2911.358	126.5
2914.717	126.5
2918.073	126.5
2921.426	129.5
2924.777	143.5
2928.124	149.5
2931.469	143.5
2934.811	154.5
2938.15	154.5
2941.487	152.5
2944.821	160.5
2948.152	159.5
2951.48	159.5
2954.805	163.5
2958.128	163.5
2961.447	148.5
2964.765	158.5
2968.079	155.5
2971.39	156.5
2974.699	157.5
2978.005	155.5
2981.308	158.5
2984.609	154.5
2987.907	161.5
2991.202	171.5
2994.494	165.5
2997.784	173.5
3001.07	176.5
3004.355	175.5
3007.636	176.5
3010.915	172.5
3014.191	177.5
3017.464	185.5
3020.734	176.5
3024.002	176.5
3027.267	185.5
3030.53	191.5
3033.789	193.5
3037.046	207.5
3040.301	198.5
3043.552	215.5
3046.801	227.5
3050.048	225.5
3053.291	228.5
3056.532	248.5
3059.771	248.5
3063.006	254.5
3066.239	266.5
3069.469	277.5
3072.697	281.5
3075.922	296.5
3079.144	290.5
3082.364	301.5
3085.581	314.5
3088.795	318.5
3092.007	321.5
3095.216	334.5
3098.423	341.5
3101.627	342.5
3104.828	342.5
3108.026	361.5
3111.222	364.5
3114.416	379.5
3117.607	384.5
3120.795	388.5
3123.98	394.5
3127.163	408.5
3130.344	430.5
3133.521	414.5
3136.696	448.5
3139.869	448.5
3143.039	452.5
3146.206	459.5
3149.371	475.5
3152.533	470.5
3155.693	488.5
3158.85	474.5
3162.005	490.5
3165.157	480.5
3168.306	496.5
3171.453	490.5
3174.597	505.5
3177.739	497.5
3180.878	497.5
3184.014	501.5
3187.149	510.5
3190.28	506.5
3193.409	496.5
3196.536	507.5
3199.659	516.5
3202.781	527.5
3205.9	521.5
3209.016	521.5
3212.13	512.5
3215.241	511.5
3218.35	502.5
3221.456	492.5
3224.56	498.5
3227.661	495.5
3230.76	495.5
3233.856	479.5
3236.95	472.5
3240.041	457.5
3243.13	461.5
3246.216	446.5
3249.3	437.5
3252.382	439.5
3255.46	443.5
3258.537	431.5
3261.611	424.5
3264.682	429.5
3267.751	426.5
3270.818	414.5
3273.882	422.5
3276.943	410.5
3280.002	422.5
3283.059	406.5
3286.113	407.5
3289.165	403.5
3292.214	395.5
3295.261	386.5
3298.306	385.5
3301.348	383.5
3304.387	373.5
3307.425	371.5
3310.459	367.5
3313.492	362.5
3316.521	353.5
3319.549	350.5
3322.574	343.5
3325.597	349.5
3328.617	351.5
3331.635	335.5
3334.65	345.5
3337.663	334.5
3340.674	339.5
3343.682	337.5
3346.688	333.5
3349.691	338.5
3352.692	323.5
3355.691	338.5
3358.687	324.5
3361.681	327.5
3364.673	322.5
3367.662	328.5
3370.649	311.5
3373.633	300.5
3376.615	298.5
3379.595	296.5
3382.572	296.5
3385.547	297.5
3388.52	293.5
3391.49	284.5
3394.458	279.5
3397.424	265.5
3400.387	260.5
3403.348	261.5
3406.307	251.5
3409.263	251.5
3412.217	253.5
3415.168	258.5
3418.118	242.5
3421.065	238.5
3424.009	233.5
3426.951	236.5
3429.891	225.5
3432.829	227.5
3435.764	216.5
3438.697	213.5
3441.628	196.5
3444.557	204.5
3447.483	195.5
3450.407	180.5
3453.328	174.5
3456.247	171.5
3459.164	167.5
3462.079	154.5
3464.991	148.5
3467.902	146.5
3470.809	139.5
3473.715	125.5
3476.618	124.5
3479.519	121.5
3482.418	113.5
3485.315	111.5
3488.209	94.5
3491.101	99.5
3493.99	100.5
3496.878	79.5
3499.763	78.5
3502.646	74.5
3505.527	68.5
3508.405	72.5
3511.281	65.5
3514.155	59.5
3517.027	57.5
3519.897	46.5
3522.764	33.5
3525.629	34.5
3528.492	29.5
3531.352	20.5
3534.211	21.5
3537.067	14.5
3539.921	17.5
3542.773	8.5
3545.622	-3.5
3548.469	-3.5
3551.315	-3.5
3554.157	-10.5
3556.998	-18.5
3559.837	-14.5
3562.673	-20.5
3565.507	-20.5
3568.339	-27.5
3571.169	-32.5
3573.996	-31.5
3576.822	-26.5
3579.645	-29.5
3582.466	-31.5
3585.285	-43.5
3588.101	-35.5
3590.916	-46.5
3593.728	-48.5
3596.538	-46.5
3599.346	-51.5
3602.152	-54.5
3604.956	-54.5
3607.757	-53.5
3610.556	-56.5
3613.354	-59.5
3616.149	-65.5
3618.942	-66.5
3621.732	-66.5
3624.521	-70.5
3627.307	-60.5
3630.092	-65.5
3632.874	-67.5
3635.654	-71.5
3638.432	-70.5
3641.208	-72.5
3643.982	-74.5
3646.753	-81.5
3649.523	-85.5
3652.29	-82.5
3655.055	-86.5
3657.818	-83.5
3660.579	-80.5
3663.338	-83.5
3666.095	-82.5
3668.849	-91.5
3671.602	-90.5
3674.352	-90.5
3677.101	-94.5
3679.847	-93.5
3682.591	-94.5
3685.333	-90.5
3688.073	-92.5
3690.811	-96.5
3693.547	-98.5
3696.281	-99.5
3699.013	-101.5
3701.742	-103.5
3704.47	-105.5
3707.195	-95.5
3709.919	-100.5
3712.64	-102.5
3715.359	-104.5
3718.076	-102.5
3720.792	-108.5
3723.505	-104.5
3726.216	-102.5
3728.925	-107.5
3731.632	-102.5
3734.336	-110.5
3737.039	-104.5
3739.74	-107.5
3742.439	-110.5
3745.136	-104.5
3747.83	-112.5
3750.523	-107.5
3753.213	-100.5
3755.902	-107.5
3758.589	-109.5
3761.273	-109.5
3763.956	-108.5
3766.636	-110.5
3769.315	-107.5
3771.991	-106.5
3774.665	-111.5
3777.338	-105.5
3780.008	-103.5
3782.677	-113.5
3785.343	-110.5
3788.007	-110.5
3790.67	-109.5
3793.33	-105.5
3795.989	-110.5
3798.645	-103.5
3801.299	-114.5
3803.952	-114.5
3806.602	-108.5
3809.251	-111.5
3811.897	-112.5
3814.542	-109.5
3817.184	-107.5
3819.825	-109.5
3822.463	-109.5
3825.1	-112.5
3827.735	-108.5
3830.367	-112.5
3832.998	-114.5
3835.627	-110.5
3838.253	-104.5
3840.878	-108.5
3843.501	-106.5
3846.122	-110.5
3848.741	-115.5
3851.358	-105.5
3853.973	-114.5
3856.586	-108.5
3859.197	-119.5
3861.806	-108.5
3864.414	-111.5
3867.019	-109.5
3869.622	-105.5
3872.224	-99.5
3874.823	-94.5
3877.421	-82.5
3880.016	-64.5
3882.61	-43.5
3885.202	-37.5
3887.792	-57.5
3890.38	-75.5
3892.966	-100.5
3895.55	-103.5
3898.132	-108.5
3900.713	-112.5
3903.291	-114.5
3905.868	-111.5
3908.442	-107.5
3911.015	-113.5
3913.586	-112.5
3916.155	-115.5
3918.722	-121.5
3921.287	-113.5
3923.85	-114.5
3926.411	-112.5
3928.971	-110.5
3931.528	-111.5
3934.084	-111.5
3936.638	-112.5
3939.19	-122.5
3941.74	-112.5
3944.288	-112.5
3946.834	-110.5
3949.378	-112.5
3951.921	-111.5
3954.462	-119.5
3957	-118.5
3959.537	-107.5
3962.072	-112.5
3964.606	-108.5
3967.137	-110.5
3969.667	-111.5
3972.194	-121.5
3974.72	-114.5
3977.244	-118.5
3979.766	-110.5
3982.286	-108.5
3984.805	-112.5
3987.321	-108.5
3989.836	-109.5
3992.349	-112.5
3994.86	-113.5
3997.369	-116.5
3999.877	-112.5
4002.382	-107.5
4004.886	-111.5
4007.388	-111.5
4009.888	-107.5
4012.386	-111.5
4014.883	-114.5
4017.377	-116.5
4019.87	-111.5
4022.361	-110.5
4024.85	-114.5
4027.338	-112.5
4029.823	-114.5
4032.307	-114.5
4034.789	-113.5
4037.269	-111.5
4039.747	-105.5
4042.224	-108.5
4044.699	-114.5
4047.172	-108.5
4049.643	-107.5
4052.112	-111.5
4054.58	-113.5
4057.046	-115.5
4059.51	-113.5
4061.972	-109.5
4064.432	-109.5
4066.891	-108.5
4069.348	-105.5
4071.803	-118.5
4074.256	-111.5
4076.708	-104.5
4079.158	-107.5
4081.606	-101.5
4084.052	-113.5
4086.497	-111.5
4088.939	-105.5
4091.38	-114.5
4093.819	-112.5
4096.257	-115.5
4098.693	-113.5
4101.127	-118.5
4103.559	-113.5
4105.989	18.5
4108.418	9.5
4110.845	6.5
4113.27	7.5
4115.694	12.5
4118.115	0.5
4120.535	-115.5
4122.954	-111.5
4125.37	-108.5
4127.785	-109.5
4130.198	-112.5
4132.609	-111.5
4135.019	-115.5
4137.427	-121.5
4139.833	-117.5
4142.237	-117.5
