Data from 2018-2-8_conc=2_n=6_RamanShift_05.txt Node
Date: Mon Mar 12 14:14:58 IST 2018
User: aro
Spectrometer: QEPB0276
Trigger mode: 0
Integration Time (sec): 3.000000E1
Scans to average: 1
Electric dark correction enabled: true
Nonlinearity correction enabled: false
Boxcar width: 0
XAxis mode: Raman Shifts
Number of Pixels in Spectrum: 1044
>>>>>Begin Spectral Data<<<<<
160.701	1.5
166.742	40.5
172.777	125.5
178.805	403.5
184.826	1082.5
190.841	2369.5
196.849	3981.5
202.85	5216.5
208.845	5686.5
214.833	5678.5
220.815	5629.5
226.789	5577.5
232.758	5580.5
238.719	5583.5
244.674	5545.5
250.623	5470.5
256.565	5413.5
262.5	5316.5
268.429	5241.5
274.351	5178.5
280.267	5127.5
286.176	5118.5
292.079	5091.5
297.975	5060.5
303.865	5024.5
309.748	5064.5
315.625	5007.5
321.495	4990.5
327.359	4988.5
333.217	5011.5
339.068	4963.5
344.912	4995.5
350.751	4988.5
356.583	4992.5
362.408	4984.5
368.227	4999.5
374.04	5027.5
379.847	5028.5
385.647	5048.5
391.44	5089.5
397.228	5097.5
403.009	5122.5
408.784	5177.5
414.553	5138.5
420.315	5132.5
426.071	5204.5
431.821	5176.5
437.565	5165.5
443.302	5165.5
449.033	5133.5
454.758	5137.5
460.477	5098.5
466.189	5058.5
471.896	5062.5
477.596	5021.5
483.29	5033.5
488.978	4998.5
494.66	4975.5
500.335	4921.5
506.005	4805.5
511.668	4679.5
517.325	4542.5
522.977	4453.5
528.622	4351.5
534.261	4319.5
539.894	4284.5
545.521	4247.5
551.141	4237.5
556.756	4168.5
562.365	4160.5
567.968	4162.5
573.565	4111.5
579.155	4095.5
584.74	4083.5
590.319	4095.5
595.892	4051.5
601.459	4064.5
607.02	4031.5
612.575	4023.5
618.124	3946.5
623.667	3962.5
629.204	3918.5
634.735	3874.5
640.261	3849.5
645.781	3810.5
651.294	3806.5
656.802	3838.5
662.304	3795.5
667.8	3787.5
673.29	3772.5
678.775	3778.5
684.254	3756.5
689.726	3738.5
695.193	3744.5
700.655	3720.5
706.11	3679.5
711.56	3670.5
717.004	3654.5
722.442	3628.5
727.874	3612.5
733.301	3620.5
738.722	3580.5
744.137	3571.5
749.547	3548.5
754.951	3571.5
760.349	3570.5
765.741	3583.5
771.128	3596.5
776.509	3620.5
781.885	3628.5
787.254	3634.5
792.618	3620.5
797.977	3604.5
803.33	3590.5
808.677	3549.5
814.019	3567.5
819.355	3495.5
824.686	3484.5
830.011	3476.5
835.33	3456.5
840.644	3466.5
845.952	3424.5
851.255	3444.5
856.552	3445.5
861.844	3443.5
867.13	3407.5
872.41	3407.5
877.686	3375.5
882.955	3342.5
888.219	3300.5
893.478	3294.5
898.731	3209.5
903.979	3173.5
909.221	3134.5
914.458	3157.5
919.69	3134.5
924.916	3151.5
930.136	3145.5
935.351	3133.5
940.561	3162.5
945.766	3161.5
950.965	3157.5
956.158	3117.5
961.347	3090.5
966.529	3052.5
971.707	3005.5
976.879	2964.5
982.046	2941.5
987.208	2922.5
992.364	2922.5
997.515	2936.5
1002.66	2952.5
1007.801	2981.5
1012.936	3013.5
1018.066	3006.5
1023.19	3034.5
1028.309	3035.5
1033.423	3024.5
1038.532	2985.5
1043.636	2956.5
1048.734	2932.5
1053.827	2921.5
1058.915	2868.5
1063.998	2867.5
1069.075	2836.5
1074.147	2849.5
1079.214	2870.5
1084.276	2858.5
1089.333	2897.5
1094.385	2888.5
1099.431	2885.5
1104.472	2888.5
1109.509	2892.5
1114.54	2844.5
1119.565	2800.5
1124.586	2752.5
1129.602	2722.5
1134.613	2716.5
1139.618	2677.5
1144.619	2674.5
1149.614	2672.5
1154.604	2713.5
1159.589	2707.5
1164.57	2719.5
1169.545	2693.5
1174.515	2703.5
1179.48	2661.5
1184.44	2658.5
1189.395	2631.5
1194.345	2634.5
1199.29	2609.5
1204.23	2601.5
1209.165	2596.5
1214.095	2640.5
1219.021	2636.5
1223.941	2647.5
1228.856	2665.5
1233.766	2684.5
1238.672	2674.5
1243.572	2665.5
1248.467	2653.5
1253.358	2623.5
1258.244	2581.5
1263.124	2531.5
1268	2501.5
1272.871	2478.5
1277.737	2449.5
1282.599	2420.5
1287.455	2452.5
1292.306	2459.5
1297.153	2453.5
1301.995	2459.5
1306.832	2467.5
1311.664	2498.5
1316.491	2512.5
1321.314	2485.5
1326.132	2466.5
1330.945	2458.5
1335.753	2412.5
1340.556	2377.5
1345.354	2327.5
1350.148	2296.5
1354.937	2260.5
1359.722	2215.5
1364.501	2182.5
1369.276	2156.5
1374.046	2122.5
1378.811	2073.5
1383.572	2066.5
1388.327	2092.5
1393.079	2088.5
1397.825	2070.5
1402.567	2073.5
1407.304	2082.5
1412.036	2096.5
1416.764	2095.5
1421.487	2101.5
1426.205	2110.5
1430.919	2091.5
1435.628	2109.5
1440.333	2131.5
1445.032	2161.5
1449.727	2169.5
1454.418	2169.5
1459.104	2161.5
1463.785	2142.5
1468.462	2112.5
1473.134	2055.5
1477.802	2013.5
1482.465	1978.5
1487.123	1919.5
1491.777	1899.5
1496.426	1898.5
1501.071	1879.5
1505.711	1848.5
1510.347	1842.5
1514.978	1853.5
1519.604	1844.5
1524.226	1845.5
1528.844	1815.5
1533.457	1810.5
1538.065	1817.5
1542.669	1817.5
1547.269	1799.5
1551.864	1804.5
1556.454	1829.5
1561.041	1841.5
1565.622	1852.5
1570.199	1847.5
1574.772	1871.5
1579.34	1926.5
1583.904	1933.5
1588.464	1926.5
1593.019	1951.5
1597.569	1950.5
1602.115	1944.5
1606.657	1944.5
1611.195	1936.5
1615.728	1917.5
1620.256	1897.5
1624.78	1918.5
1629.3	1932.5
1633.816	1943.5
1638.327	1950.5
1642.834	1945.5
1647.336	1971.5
1651.834	1953.5
1656.328	1960.5
1660.817	1972.5
1665.302	1941.5
1669.783	1902.5
1674.259	1855.5
1678.732	1821.5
1683.199	1761.5
1687.663	1705.5
1692.122	1639.5
1696.577	1591.5
1701.028	1523.5
1705.474	1446.5
1709.917	1424.5
1714.355	1391.5
1718.788	1365.5
1723.218	1360.5
1727.643	1374.5
1732.064	1365.5
1736.481	1355.5
1740.893	1330.5
1745.301	1307.5
1749.705	1289.5
1754.105	1252.5
1758.501	1232.5
1762.893	1201.5
1767.28	1193.5
1771.663	1191.5
1776.042	1172.5
1780.417	1143.5
1784.787	1138.5
1789.154	1140.5
1793.516	1135.5
1797.874	1097.5
1802.228	1092.5
1806.578	1090.5
1810.924	1051.5
1815.266	1070.5
1819.603	1063.5
1823.937	1058.5
1828.266	1059.5
1832.591	1052.5
1836.913	1045.5
1841.23	1073.5
1845.543	1050.5
1849.852	1056.5
1854.156	1066.5
1858.457	1050.5
1862.754	1066.5
1867.047	1051.5
1871.335	1064.5
1875.62	1058.5
1879.9	1056.5
1884.177	1036.5
1888.449	1041.5
1892.718	1019.5
1896.982	1003.5
1901.243	998.5
1905.499	1002.5
1909.752	979.5
1914	959.5
1918.245	950.5
1922.485	941.5
1926.722	927.5
1930.954	934.5
1935.183	922.5
1939.408	915.5
1943.628	892.5
1947.845	892.5
1952.058	883.5
1956.267	893.5
1960.472	891.5
1964.673	881.5
1968.87	860.5
1973.063	862.5
1977.252	835.5
1981.438	852.5
1985.619	849.5
1989.797	838.5
1993.971	848.5
1998.14	867.5
2002.306	839.5
2006.469	858.5
2010.627	848.5
2014.781	861.5
2018.932	860.5
2023.078	861.5
2027.221	856.5
2031.36	850.5
2035.495	830.5
2039.627	822.5
2043.754	804.5
2047.878	795.5
2051.998	790.5
2056.114	787.5
2060.226	807.5
2064.334	793.5
2068.439	777.5
2072.54	779.5
2076.637	784.5
2080.73	777.5
2084.82	762.5
2088.906	773.5
2092.988	750.5
2097.066	753.5
2101.14	738.5
2105.211	737.5
2109.278	721.5
2113.342	710.5
2117.401	698.5
2121.457	708.5
2125.509	692.5
2129.558	695.5
2133.602	695.5
2137.643	697.5
2141.681	694.5
2145.714	695.5
2149.744	680.5
2153.77	690.5
2157.793	681.5
2161.812	699.5
2165.827	680.5
2169.838	679.5
2173.846	655.5
2177.851	649.5
2181.851	630.5
2185.848	627.5
2189.841	624.5
2193.831	638.5
2197.817	607.5
2201.799	611.5
2205.778	626.5
2209.753	608.5
2213.725	611.5
2217.693	608.5
2221.657	610.5
2225.618	611.5
2229.575	618.5
2233.529	602.5
2237.479	596.5
2241.425	589.5
2245.368	572.5
2249.307	563.5
2253.243	559.5
2257.175	555.5
2261.104	542.5
2265.029	534.5
2268.95	543.5
2272.868	534.5
2276.783	518.5
2280.694	529.5
2284.601	517.5
2288.505	512.5
2292.405	499.5
2296.302	503.5
2300.195	485.5
2304.085	476.5
2307.971	459.5
2311.854	481.5
2315.734	459.5
2319.609	449.5
2323.482	455.5
2327.351	451.5
2331.216	466.5
2335.078	472.5
2338.937	457.5
2342.792	430.5
2346.643	449.5
2350.492	432.5
2354.336	437.5
2358.178	431.5
2362.015	443.5
2365.85	434.5
2369.681	440.5
2373.508	448.5
2377.333	448.5
2381.153	438.5
2384.971	446.5
2388.785	443.5
2392.595	437.5
2396.402	432.5
2400.206	432.5
2404.007	420.5
2407.804	420.5
2411.597	411.5
2415.388	407.5
2419.174	415.5
2422.958	410.5
2426.738	414.5
2430.515	409.5
2434.289	413.5
2438.059	400.5
2441.825	396.5
2445.589	390.5
2449.349	382.5
2453.106	390.5
2456.859	386.5
2460.61	381.5
2464.356	380.5
2468.1	367.5
2471.84	359.5
2475.577	359.5
2479.311	342.5
2483.041	340.5
2486.768	349.5
2490.492	358.5
2494.213	355.5
2497.93	346.5
2501.644	339.5
2505.355	331.5
2509.062	328.5
2512.766	340.5
2516.467	330.5
2520.165	334.5
2523.859	319.5
2527.551	310.5
2531.239	312.5
2534.923	305.5
2538.605	298.5
2542.283	296.5
2545.958	295.5
2549.63	293.5
2553.299	291.5
2556.964	299.5
2560.626	288.5
2564.285	272.5
2567.941	282.5
2571.594	280.5
2575.243	278.5
2578.89	261.5
2582.533	262.5
2586.173	258.5
2589.809	263.5
2593.443	245.5
2597.073	254.5
2600.701	245.5
2604.325	239.5
2607.946	250.5
2611.564	239.5
2615.178	243.5
2618.79	244.5
2622.398	240.5
2626.004	232.5
2629.606	223.5
2633.205	231.5
2636.801	233.5
2640.394	228.5
2643.983	229.5
2647.57	228.5
2651.153	216.5
2654.734	216.5
2658.311	220.5
2661.885	202.5
2665.456	216.5
2669.025	216.5
2672.589	214.5
2676.151	210.5
2679.71	201.5
2683.266	201.5
2686.819	201.5
2690.368	197.5
2693.915	189.5
2697.458	192.5
2700.999	184.5
2704.536	181.5
2708.071	177.5
2711.602	176.5
2715.13	176.5
2718.656	163.5
2722.178	165.5
2725.697	164.5
2729.214	159.5
2732.727	160.5
2736.237	164.5
2739.744	163.5
2743.249	153.5
2746.75	159.5
2750.248	140.5
2753.743	145.5
2757.236	137.5
2760.725	132.5
2764.211	132.5
2767.695	127.5
2771.175	122.5
2774.652	132.5
2778.127	126.5
2781.598	124.5
2785.067	133.5
2788.532	126.5
2791.995	135.5
2795.455	130.5
2798.911	129.5
2802.365	137.5
2805.816	135.5
2809.264	125.5
2812.709	135.5
2816.151	129.5
2819.59	128.5
2823.026	139.5
2826.46	132.5
2829.89	128.5
2833.318	126.5
2836.742	134.5
2840.164	135.5
2843.583	139.5
2846.999	136.5
2850.412	145.5
2853.822	140.5
2857.229	133.5
2860.634	141.5
2864.035	151.5
2867.434	150.5
2870.83	154.5
2874.223	168.5
2877.613	164.5
2881	186.5
2884.385	186.5
2887.766	179.5
2891.145	176.5
2894.521	172.5
2897.894	187.5
2901.264	178.5
2904.631	177.5
2907.996	178.5
2911.358	188.5
2914.717	188.5
2918.073	203.5
2921.426	202.5
2924.777	203.5
2928.124	214.5
2931.469	212.5
2934.811	217.5
2938.15	219.5
2941.487	248.5
2944.821	231.5
2948.152	228.5
2951.48	228.5
2954.805	230.5
2958.128	239.5
2961.447	217.5
2964.765	227.5
2968.079	223.5
2971.39	226.5
2974.699	232.5
2978.005	220.5
2981.308	227.5
2984.609	232.5
2987.907	217.5
2991.202	239.5
2994.494	234.5
2997.784	238.5
3001.07	243.5
3004.355	249.5
3007.636	255.5
3010.915	242.5
3014.191	240.5
3017.464	264.5
3020.734	260.5
3024.002	258.5
3027.267	271.5
3030.53	279.5
3033.789	282.5
3037.046	286.5
3040.301	291.5
3043.552	311.5
3046.801	316.5
3050.048	316.5
3053.291	322.5
3056.532	334.5
3059.771	355.5
3063.006	356.5
3066.239	376.5
3069.469	387.5
3072.697	402.5
3075.922	402.5
3079.144	427.5
3082.364	438.5
3085.581	444.5
3088.795	450.5
3092.007	435.5
3095.216	469.5
3098.423	470.5
3101.627	493.5
3104.828	494.5
3108.026	509.5
3111.222	510.5
3114.416	523.5
3117.607	535.5
3120.795	551.5
3123.98	565.5
3127.163	565.5
3130.344	602.5
3133.521	596.5
3136.696	616.5
3139.869	619.5
3143.039	643.5
3146.206	643.5
3149.371	657.5
3152.533	665.5
3155.693	665.5
3158.85	674.5
3162.005	672.5
3165.157	689.5
3168.306	688.5
3171.453	675.5
3174.597	695.5
3177.739	687.5
3180.878	708.5
3184.014	700.5
3187.149	695.5
3190.28	703.5
3193.409	700.5
3196.536	703.5
3199.659	704.5
3202.781	717.5
3205.9	714.5
3209.016	717.5
3212.13	731.5
3215.241	712.5
3218.35	703.5
3221.456	690.5
3224.56	699.5
3227.661	688.5
3230.76	671.5
3233.856	672.5
3236.95	655.5
3240.041	637.5
3243.13	641.5
3246.216	628.5
3249.3	624.5
3252.382	622.5
3255.46	595.5
3258.537	595.5
3261.611	596.5
3264.682	585.5
3267.751	573.5
3270.818	593.5
3273.882	570.5
3276.943	573.5
3280.002	573.5
3283.059	558.5
3286.113	568.5
3289.165	561.5
3292.214	549.5
3295.261	547.5
3298.306	538.5
3301.348	526.5
3304.387	517.5
3307.425	517.5
3310.459	518.5
3313.492	511.5
3316.521	509.5
3319.549	509.5
3322.574	508.5
3325.597	499.5
3328.617	498.5
3331.635	483.5
3334.65	489.5
3337.663	475.5
3340.674	487.5
3343.682	488.5
3346.688	476.5
3349.691	480.5
3352.692	481.5
3355.691	478.5
3358.687	480.5
3361.681	475.5
3364.673	472.5
3367.662	467.5
3370.649	443.5
3373.633	436.5
3376.615	428.5
3379.595	421.5
3382.572	429.5
3385.547	416.5
3388.52	423.5
3391.49	406.5
3394.458	389.5
3397.424	382.5
3400.387	388.5
3403.348	381.5
3406.307	363.5
3409.263	368.5
3412.217	373.5
3415.168	371.5
3418.118	358.5
3421.065	348.5
3424.009	339.5
3426.951	337.5
3429.891	325.5
3432.829	318.5
3435.764	316.5
3438.697	309.5
3441.628	292.5
3444.557	286.5
3447.483	276.5
3450.407	266.5
3453.328	258.5
3456.247	254.5
3459.164	227.5
3462.079	224.5
3464.991	213.5
3467.902	208.5
3470.809	211.5
3473.715	190.5
3476.618	183.5
3479.519	180.5
3482.418	163.5
3485.315	147.5
3488.209	149.5
3491.101	138.5
3493.99	137.5
3496.878	133.5
3499.763	129.5
3502.646	114.5
3505.527	103.5
3508.405	99.5
3511.281	95.5
3514.155	89.5
3517.027	83.5
3519.897	70.5
3522.764	69.5
3525.629	61.5
3528.492	58.5
3531.352	46.5
3534.211	36.5
3537.067	21.5
3539.921	28.5
3542.773	17.5
3545.622	9.5
3548.469	13.5
3551.315	9.5
3554.157	-3.5
3556.998	-11.5
3559.837	-8.5
3562.673	-14.5
3565.507	-8.5
3568.339	-23.5
3571.169	-25.5
3573.996	-23.5
3576.822	-28.5
3579.645	-35.5
3582.466	-34.5
3585.285	-41.5
3588.101	-38.5
3590.916	-47.5
3593.728	-56.5
3596.538	-54.5
3599.346	-58.5
3602.152	-56.5
3604.956	-64.5
3607.757	-60.5
3610.556	-73.5
3613.354	-67.5
3616.149	-74.5
3618.942	-83.5
3621.732	-75.5
3624.521	-74.5
3627.307	-76.5
3630.092	-80.5
3632.874	-79.5
3635.654	-89.5
3638.432	-85.5
3641.208	-90.5
3643.982	-92.5
3646.753	-89.5
3649.523	-96.5
3652.29	-88.5
3655.055	-98.5
3657.818	-99.5
3660.579	-99.5
3663.338	-97.5
3666.095	-107.5
3668.849	-107.5
3671.602	-104.5
3674.352	-110.5
3677.101	-109.5
3679.847	-108.5
3682.591	-114.5
3685.333	-112.5
3688.073	-115.5
3690.811	-115.5
3693.547	-120.5
3696.281	-115.5
3699.013	-120.5
3701.742	-119.5
3704.47	-122.5
3707.195	-116.5
3709.919	-122.5
3712.64	-125.5
3715.359	-129.5
3718.076	-120.5
3720.792	-127.5
3723.505	-129.5
3726.216	-121.5
3728.925	-130.5
3731.632	-121.5
3734.336	-134.5
3737.039	-127.5
3739.74	-129.5
3742.439	-135.5
3745.136	-121.5
3747.83	-134.5
3750.523	-130.5
3753.213	-130.5
3755.902	-128.5
3758.589	-131.5
3761.273	-124.5
3763.956	-127.5
3766.636	-131.5
3769.315	-128.5
3771.991	-127.5
3774.665	-137.5
3777.338	-126.5
3780.008	-131.5
3782.677	-129.5
3785.343	-128.5
3788.007	-135.5
3790.67	-139.5
3793.33	-131.5
3795.989	-134.5
3798.645	-126.5
3801.299	-129.5
3803.952	-135.5
3806.602	-134.5
3809.251	-137.5
3811.897	-143.5
3814.542	-139.5
3817.184	-131.5
3819.825	-134.5
3822.463	-133.5
3825.1	-140.5
3827.735	-137.5
3830.367	-139.5
3832.998	-141.5
3835.627	-134.5
3838.253	-137.5
3840.878	-132.5
3843.501	-129.5
3846.122	-134.5
3848.741	-139.5
3851.358	-136.5
3853.973	-138.5
3856.586	-137.5
3859.197	-142.5
3861.806	-129.5
3864.414	-134.5
3867.019	-133.5
3869.622	-138.5
3872.224	-124.5
3874.823	-120.5
3877.421	-107.5
3880.016	-96.5
3882.61	-68.5
3885.202	-77.5
3887.792	-90.5
3890.38	-105.5
3892.966	-131.5
3895.55	-131.5
3898.132	-136.5
3900.713	-135.5
3903.291	-137.5
3905.868	-143.5
3908.442	-131.5
3911.015	-139.5
3913.586	-142.5
3916.155	-144.5
3918.722	-138.5
3921.287	-136.5
3923.85	-138.5
3926.411	-141.5
3928.971	-140.5
3931.528	-143.5
3934.084	-140.5
3936.638	-136.5
3939.19	-142.5
3941.74	-142.5
3944.288	-137.5
3946.834	-139.5
3949.378	-139.5
3951.921	-138.5
3954.462	-152.5
3957	-144.5
3959.537	-137.5
3962.072	-140.5
3964.606	-132.5
3967.137	-138.5
3969.667	-140.5
3972.194	-143.5
3974.72	-140.5
3977.244	-140.5
3979.766	-142.5
3982.286	-139.5
3984.805	-138.5
3987.321	-135.5
3989.836	-130.5
3992.349	-140.5
3994.86	-138.5
3997.369	-140.5
3999.877	-140.5
4002.382	-131.5
4004.886	-138.5
4007.388	-133.5
4009.888	-135.5
4012.386	-136.5
4014.883	-136.5
4017.377	-140.5
4019.87	-137.5
4022.361	-142.5
4024.85	-136.5
4027.338	-133.5
4029.823	-135.5
4032.307	-138.5
4034.789	-140.5
4037.269	-141.5
4039.747	-135.5
4042.224	-134.5
4044.699	-138.5
4047.172	-132.5
4049.643	-133.5
4052.112	-137.5
4054.58	-142.5
4057.046	-139.5
4059.51	-141.5
4061.972	-140.5
4064.432	-134.5
4066.891	-132.5
4069.348	-131.5
4071.803	-140.5
4074.256	-136.5
4076.708	-135.5
4079.158	-140.5
4081.606	-135.5
4084.052	-141.5
4086.497	-136.5
4088.939	-129.5
4091.38	-133.5
4093.819	-135.5
4096.257	-144.5
4098.693	-143.5
4101.127	-145.5
4103.559	-142.5
4105.989	-18.5
4108.418	-22.5
4110.845	-17.5
4113.27	-17.5
4115.694	-21.5
4118.115	-12.5
4120.535	-143.5
4122.954	-140.5
4125.37	-139.5
4127.785	-136.5
4130.198	-134.5
4132.609	-135.5
4135.019	-140.5
4137.427	-145.5
4139.833	-141.5
4142.237	-143.5
