Data from 2018-2-8_conc=3_n=3_RamanShift_01.txt Node
Date: Mon Mar 12 14:34:58 IST 2018
User: aro
Spectrometer: QEPB0276
Trigger mode: 0
Integration Time (sec): 3.000000E1
Scans to average: 1
Electric dark correction enabled: true
Nonlinearity correction enabled: false
Boxcar width: 0
XAxis mode: Raman Shifts
Number of Pixels in Spectrum: 1044
>>>>>Begin Spectral Data<<<<<
160.701	25.9
166.742	49.9
172.777	120.9
178.805	353.9
184.826	982.9
190.841	2080.9
196.849	3454.9
202.85	4524.9
208.845	4948.9
214.833	4956.9
220.815	4887.9
226.789	4862.9
232.758	4889.9
238.719	4872.9
244.674	4832.9
250.623	4786.9
256.565	4743.9
262.5	4632.9
268.429	4611.9
274.351	4582.9
280.267	4517.9
286.176	4516.9
292.079	4467.9
297.975	4420.9
303.865	4434.9
309.748	4448.9
315.625	4459.9
321.495	4437.9
327.359	4423.9
333.217	4446.9
339.068	4448.9
344.912	4479.9
350.751	4473.9
356.583	4468.9
362.408	4499.9
368.227	4495.9
374.04	4506.9
379.847	4523.9
385.647	4537.9
391.44	4584.9
397.228	4597.9
403.009	4590.9
408.784	4632.9
414.553	4628.9
420.315	4667.9
426.071	4680.9
431.821	4663.9
437.565	4645.9
443.302	4646.9
449.033	4636.9
454.758	4627.9
460.477	4591.9
466.189	4544.9
471.896	4534.9
477.596	4498.9
483.29	4513.9
488.978	4489.9
494.66	4427.9
500.335	4398.9
506.005	4293.9
511.668	4143.9
517.325	3986.9
522.977	3874.9
528.622	3803.9
534.261	3760.9
539.894	3697.9
545.521	3654.9
551.141	3627.9
556.756	3593.9
562.365	3562.9
567.968	3565.9
573.565	3551.9
579.155	3517.9
584.74	3508.9
590.319	3475.9
595.892	3478.9
601.459	3468.9
607.02	3442.9
612.575	3424.9
618.124	3380.9
623.667	3356.9
629.204	3327.9
634.735	3296.9
640.261	3277.9
645.781	3265.9
651.294	3265.9
656.802	3241.9
662.304	3228.9
667.8	3231.9
673.29	3209.9
678.775	3229.9
684.254	3186.9
689.726	3190.9
695.193	3182.9
700.655	3153.9
706.11	3147.9
711.56	3095.9
717.004	3099.9
722.442	3074.9
727.874	3069.9
733.301	3053.9
738.722	3039.9
744.137	3058.9
749.547	3047.9
754.951	3045.9
760.349	3051.9
765.741	3018.9
771.128	3042.9
776.509	3082.9
781.885	3080.9
787.254	3105.9
792.618	3103.9
797.977	3116.9
803.33	3097.9
808.677	3055.9
814.019	3032.9
819.355	3006.9
824.686	2996.9
830.011	2939.9
835.33	2995.9
840.644	2958.9
845.952	2957.9
851.255	2944.9
856.552	2930.9
861.844	2906.9
867.13	2902.9
872.41	2868.9
877.686	2851.9
882.955	2817.9
888.219	2832.9
893.478	2765.9
898.731	2727.9
903.979	2699.9
909.221	2659.9
914.458	2682.9
919.69	2672.9
924.916	2663.9
930.136	2663.9
935.351	2686.9
940.561	2688.9
945.766	2675.9
950.965	2658.9
956.158	2662.9
961.347	2621.9
966.529	2604.9
971.707	2533.9
976.879	2521.9
982.046	2488.9
987.208	2466.9
992.364	2474.9
997.515	2485.9
1002.66	2513.9
1007.801	2523.9
1012.936	2552.9
1018.066	2539.9
1023.19	2534.9
1028.309	2581.9
1033.423	2573.9
1038.532	2562.9
1043.636	2528.9
1048.734	2520.9
1053.827	2486.9
1058.915	2439.9
1063.998	2435.9
1069.075	2409.9
1074.147	2424.9
1079.214	2433.9
1084.276	2422.9
1089.333	2453.9
1094.385	2454.9
1099.431	2458.9
1104.472	2458.9
1109.509	2428.9
1114.54	2389.9
1119.565	2361.9
1124.586	2301.9
1129.602	2330.9
1134.613	2303.9
1139.618	2285.9
1144.619	2250.9
1149.614	2280.9
1154.604	2289.9
1159.589	2293.9
1164.57	2288.9
1169.545	2291.9
1174.515	2286.9
1179.48	2290.9
1184.44	2274.9
1189.395	2246.9
1194.345	2229.9
1199.29	2219.9
1204.23	2207.9
1209.165	2218.9
1214.095	2230.9
1219.021	2241.9
1223.941	2251.9
1228.856	2265.9
1233.766	2290.9
1238.672	2274.9
1243.572	2256.9
1248.467	2232.9
1253.358	2232.9
1258.244	2190.9
1263.124	2150.9
1268	2118.9
1272.871	2086.9
1277.737	2078.9
1282.599	2063.9
1287.455	2079.9
1292.306	2091.9
1297.153	2090.9
1301.995	2072.9
1306.832	2116.9
1311.664	2125.9
1316.491	2111.9
1321.314	2127.9
1326.132	2090.9
1330.945	2088.9
1335.753	2025.9
1340.556	1996.9
1345.354	1983.9
1350.148	1967.9
1354.937	1910.9
1359.722	1890.9
1364.501	1875.9
1369.276	1824.9
1374.046	1834.9
1378.811	1795.9
1383.572	1775.9
1388.327	1786.9
1393.079	1787.9
1397.825	1785.9
1402.567	1786.9
1407.304	1788.9
1412.036	1791.9
1416.764	1796.9
1421.487	1796.9
1426.205	1796.9
1430.919	1784.9
1435.628	1816.9
1440.333	1857.9
1445.032	1826.9
1449.727	1856.9
1454.418	1866.9
1459.104	1850.9
1463.785	1812.9
1468.462	1806.9
1473.134	1763.9
1477.802	1727.9
1482.465	1682.9
1487.123	1643.9
1491.777	1645.9
1496.426	1617.9
1501.071	1601.9
1505.711	1594.9
1510.347	1604.9
1514.978	1589.9
1519.604	1607.9
1524.226	1591.9
1528.844	1587.9
1533.457	1569.9
1538.065	1558.9
1542.669	1566.9
1547.269	1568.9
1551.864	1569.9
1556.454	1580.9
1561.041	1607.9
1565.622	1604.9
1570.199	1609.9
1574.772	1649.9
1579.34	1634.9
1583.904	1657.9
1588.464	1669.9
1593.019	1674.9
1597.569	1694.9
1602.115	1679.9
1606.657	1678.9
1611.195	1659.9
1615.728	1663.9
1620.256	1653.9
1624.78	1648.9
1629.3	1656.9
1633.816	1651.9
1638.327	1677.9
1642.834	1678.9
1647.336	1702.9
1651.834	1679.9
1656.328	1693.9
1660.817	1694.9
1665.302	1668.9
1669.783	1639.9
1674.259	1605.9
1678.732	1574.9
1683.199	1517.9
1687.663	1466.9
1692.122	1434.9
1696.577	1372.9
1701.028	1312.9
1705.474	1268.9
1709.917	1229.9
1714.355	1210.9
1718.788	1207.9
1723.218	1188.9
1727.643	1207.9
1732.064	1197.9
1736.481	1186.9
1740.893	1154.9
1745.301	1119.9
1749.705	1113.9
1754.105	1065.9
1758.501	1072.9
1762.893	1051.9
1767.28	1032.9
1771.663	1027.9
1776.042	1035.9
1780.417	1021.9
1784.787	1004.9
1789.154	993.9
1793.516	995.9
1797.874	978.9
1802.228	971.9
1806.578	960.9
1810.924	955.9
1815.266	951.9
1819.603	934.9
1823.937	924.9
1828.266	920.9
1832.591	932.9
1836.913	922.9
1841.23	926.9
1845.543	932.9
1849.852	931.9
1854.156	925.9
1858.457	928.9
1862.754	933.9
1867.047	922.9
1871.335	912.9
1875.62	923.9
1879.9	918.9
1884.177	914.9
1888.449	911.9
1892.718	891.9
1896.982	886.9
1901.243	871.9
1905.499	865.9
1909.752	854.9
1914	847.9
1918.245	843.9
1922.485	828.9
1926.722	815.9
1930.954	820.9
1935.183	808.9
1939.408	805.9
1943.628	800.9
1947.845	789.9
1952.058	786.9
1956.267	782.9
1960.472	782.9
1964.673	766.9
1968.87	743.9
1973.063	772.9
1977.252	759.9
1981.438	752.9
1985.619	750.9
1989.797	760.9
1993.971	753.9
1998.14	763.9
2002.306	759.9
2006.469	750.9
2010.627	763.9
2014.781	753.9
2018.932	750.9
2023.078	770.9
2027.221	747.9
2031.36	740.9
2035.495	724.9
2039.627	727.9
2043.754	715.9
2047.878	709.9
2051.998	710.9
2056.114	699.9
2060.226	699.9
2064.334	706.9
2068.439	676.9
2072.54	704.9
2076.637	694.9
2080.73	691.9
2084.82	685.9
2088.906	673.9
2092.988	675.9
2097.066	670.9
2101.14	650.9
2105.211	643.9
2109.278	644.9
2113.342	633.9
2117.401	629.9
2121.457	616.9
2125.509	614.9
2129.558	617.9
2133.602	624.9
2137.643	616.9
2141.681	612.9
2145.714	617.9
2149.744	622.9
2153.77	624.9
2157.793	607.9
2161.812	598.9
2165.827	603.9
2169.838	592.9
2173.846	582.9
2177.851	574.9
2181.851	553.9
2185.848	555.9
2189.841	544.9
2193.831	568.9
2197.817	543.9
2201.799	543.9
2205.778	542.9
2209.753	512.9
2213.725	539.9
2217.693	530.9
2221.657	548.9
2225.618	531.9
2229.575	529.9
2233.529	531.9
2237.479	517.9
2241.425	516.9
2245.368	503.9
2249.307	490.9
2253.243	493.9
2257.175	485.9
2261.104	478.9
2265.029	472.9
2268.95	480.9
2272.868	456.9
2276.783	454.9
2280.694	440.9
2284.601	447.9
2288.505	444.9
2292.405	440.9
2296.302	446.9
2300.195	433.9
2304.085	410.9
2307.971	415.9
2311.854	405.9
2315.734	389.9
2319.609	390.9
2323.482	393.9
2327.351	396.9
2331.216	385.9
2335.078	409.9
2338.937	394.9
2342.792	384.9
2346.643	372.9
2350.492	379.9
2354.336	378.9
2358.178	370.9
2362.015	374.9
2365.85	379.9
2369.681	367.9
2373.508	369.9
2377.333	369.9
2381.153	372.9
2384.971	387.9
2388.785	371.9
2392.595	367.9
2396.402	371.9
2400.206	365.9
2404.007	360.9
2407.804	360.9
2411.597	345.9
2415.388	348.9
2419.174	351.9
2422.958	347.9
2426.738	355.9
2430.515	344.9
2434.289	349.9
2438.059	341.9
2441.825	321.9
2445.589	331.9
2449.349	326.9
2453.106	317.9
2456.859	327.9
2460.61	320.9
2464.356	301.9
2468.1	301.9
2471.84	298.9
2475.577	311.9
2479.311	295.9
2483.041	290.9
2486.768	302.9
2490.492	291.9
2494.213	292.9
2497.93	293.9
2501.644	285.9
2505.355	279.9
2509.062	283.9
2512.766	269.9
2516.467	265.9
2520.165	262.9
2523.859	274.9
2527.551	262.9
2531.239	250.9
2534.923	255.9
2538.605	259.9
2542.283	245.9
2545.958	246.9
2549.63	253.9
2553.299	243.9
2556.964	249.9
2560.626	243.9
2564.285	233.9
2567.941	237.9
2571.594	238.9
2575.243	230.9
2578.89	214.9
2582.533	213.9
2586.173	215.9
2589.809	207.9
2593.443	217.9
2597.073	207.9
2600.701	204.9
2604.325	199.9
2607.946	201.9
2611.564	203.9
2615.178	213.9
2618.79	205.9
2622.398	204.9
2626.004	195.9
2629.606	186.9
2633.205	190.9
2636.801	191.9
2640.394	189.9
2643.983	187.9
2647.57	196.9
2651.153	186.9
2654.734	185.9
2658.311	172.9
2661.885	175.9
2665.456	181.9
2669.025	178.9
2672.589	174.9
2676.151	171.9
2679.71	176.9
2683.266	166.9
2686.819	166.9
2690.368	168.9
2693.915	143.9
2697.458	154.9
2700.999	150.9
2704.536	155.9
2708.071	144.9
2711.602	145.9
2715.13	147.9
2718.656	139.9
2722.178	134.9
2725.697	137.9
2729.214	128.9
2732.727	136.9
2736.237	143.9
2739.744	127.9
2743.249	132.9
2746.75	122.9
2750.248	118.9
2753.743	118.9
2757.236	106.9
2760.725	110.9
2764.211	119.9
2767.695	102.9
2771.175	101.9
2774.652	103.9
2778.127	105.9
2781.598	106.9
2785.067	118.9
2788.532	113.9
2791.995	112.9
2795.455	108.9
2798.911	103.9
2802.365	112.9
2805.816	107.9
2809.264	104.9
2812.709	111.9
2816.151	111.9
2819.59	110.9
2823.026	114.9
2826.46	106.9
2829.89	99.9
2833.318	102.9
2836.742	115.9
2840.164	121.9
2843.583	114.9
2846.999	113.9
2850.412	113.9
2853.822	112.9
2857.229	102.9
2860.634	122.9
2864.035	120.9
2867.434	124.9
2870.83	135.9
2874.223	139.9
2877.613	131.9
2881	149.9
2884.385	150.9
2887.766	145.9
2891.145	148.9
2894.521	140.9
2897.894	148.9
2901.264	149.9
2904.631	145.9
2907.996	151.9
2911.358	164.9
2914.717	149.9
2918.073	163.9
2921.426	168.9
2924.777	167.9
2928.124	171.9
2931.469	172.9
2934.811	180.9
2938.15	175.9
2941.487	192.9
2944.821	190.9
2948.152	195.9
2951.48	193.9
2954.805	192.9
2958.128	182.9
2961.447	185.9
2964.765	198.9
2968.079	185.9
2971.39	184.9
2974.699	198.9
2978.005	199.9
2981.308	186.9
2984.609	188.9
2987.907	183.9
2991.202	196.9
2994.494	196.9
2997.784	198.9
3001.07	203.9
3004.355	210.9
3007.636	218.9
3010.915	208.9
3014.191	210.9
3017.464	222.9
3020.734	217.9
3024.002	229.9
3027.267	223.9
3030.53	223.9
3033.789	234.9
3037.046	236.9
3040.301	249.9
3043.552	263.9
3046.801	265.9
3050.048	275.9
3053.291	272.9
3056.532	289.9
3059.771	300.9
3063.006	304.9
3066.239	317.9
3069.469	322.9
3072.697	328.9
3075.922	347.9
3079.144	350.9
3082.364	362.9
3085.581	370.9
3088.795	380.9
3092.007	385.9
3095.216	390.9
3098.423	411.9
3101.627	401.9
3104.828	421.9
3108.026	424.9
3111.222	438.9
3114.416	452.9
3117.607	459.9
3120.795	468.9
3123.98	468.9
3127.163	493.9
3130.344	514.9
3133.521	510.9
3136.696	531.9
3139.869	530.9
3143.039	544.9
3146.206	546.9
3149.371	551.9
3152.533	560.9
3155.693	573.9
3158.85	571.9
3162.005	586.9
3165.157	574.9
3168.306	585.9
3171.453	597.9
3174.597	592.9
3177.739	581.9
3180.878	609.9
3184.014	613.9
3187.149	611.9
3190.28	616.9
3193.409	608.9
3196.536	606.9
3199.659	620.9
3202.781	606.9
3205.9	621.9
3209.016	612.9
3212.13	625.9
3215.241	617.9
3218.35	610.9
3221.456	596.9
3224.56	597.9
3227.661	585.9
3230.76	577.9
3233.856	575.9
3236.95	563.9
3240.041	563.9
3243.13	551.9
3246.216	547.9
3249.3	548.9
3252.382	517.9
3255.46	527.9
3258.537	519.9
3261.611	509.9
3264.682	506.9
3267.751	509.9
3270.818	504.9
3273.882	499.9
3276.943	494.9
3280.002	493.9
3283.059	500.9
3286.113	487.9
3289.165	481.9
3292.214	476.9
3295.261	458.9
3298.306	459.9
3301.348	453.9
3304.387	449.9
3307.425	446.9
3310.459	441.9
3313.492	435.9
3316.521	434.9
3319.549	424.9
3322.574	425.9
3325.597	419.9
3328.617	429.9
3331.635	414.9
3334.65	419.9
3337.663	403.9
3340.674	410.9
3343.682	422.9
3346.688	404.9
3349.691	407.9
3352.692	407.9
3355.691	402.9
3358.687	403.9
3361.681	403.9
3364.673	388.9
3367.662	392.9
3370.649	385.9
3373.633	376.9
3376.615	357.9
3379.595	363.9
3382.572	354.9
3385.547	354.9
3388.52	352.9
3391.49	334.9
3394.458	337.9
3397.424	323.9
3400.387	318.9
3403.348	319.9
3406.307	313.9
3409.263	306.9
3412.217	305.9
3415.168	308.9
3418.118	299.9
3421.065	298.9
3424.009	289.9
3426.951	287.9
3429.891	275.9
3432.829	272.9
3435.764	260.9
3438.697	251.9
3441.628	245.9
3444.557	249.9
3447.483	237.9
3450.407	206.9
3453.328	206.9
3456.247	212.9
3459.164	200.9
3462.079	192.9
3464.991	183.9
3467.902	172.9
3470.809	163.9
3473.715	155.9
3476.618	153.9
3479.519	156.9
3482.418	139.9
3485.315	132.9
3488.209	118.9
3491.101	119.9
3493.99	125.9
3496.878	110.9
3499.763	105.9
3502.646	96.9
3505.527	87.9
3508.405	83.9
3511.281	86.9
3514.155	79.9
3517.027	68.9
3519.897	53.9
3522.764	53.9
3525.629	44.9
3528.492	36.9
3531.352	38.9
3534.211	29.9
3537.067	25.9
3539.921	20.9
3542.773	12.9
3545.622	1.9
3548.469	-3.1
3551.315	-3.1
3554.157	-9.1
3556.998	-13.1
3559.837	-11.1
3562.673	-23.1
3565.507	-19.1
3568.339	-28.1
3571.169	-35.1
3573.996	-35.1
3576.822	-31.1
3579.645	-27.1
3582.466	-37.1
3585.285	-41.1
3588.101	-31.1
3590.916	-51.1
3593.728	-60.1
3596.538	-56.1
3599.346	-58.1
3602.152	-64.1
3604.956	-55.1
3607.757	-57.1
3610.556	-68.1
3613.354	-69.1
3616.149	-76.1
3618.942	-81.1
3621.732	-81.1
3624.521	-74.1
3627.307	-73.1
3630.092	-80.1
3632.874	-78.1
3635.654	-85.1
3638.432	-85.1
3641.208	-81.1
3643.982	-94.1
3646.753	-90.1
3649.523	-86.1
3652.29	-89.1
3655.055	-90.1
3657.818	-96.1
3660.579	-94.1
3663.338	-97.1
3666.095	-99.1
3668.849	-107.1
3671.602	-101.1
3674.352	-103.1
3677.101	-107.1
3679.847	-108.1
3682.591	-110.1
3685.333	-108.1
3688.073	-110.1
3690.811	-111.1
3693.547	-119.1
3696.281	-113.1
3699.013	-107.1
3701.742	-119.1
3704.47	-118.1
3707.195	-111.1
3709.919	-117.1
3712.64	-119.1
3715.359	-117.1
3718.076	-116.1
3720.792	-122.1
3723.505	-126.1
3726.216	-117.1
3728.925	-123.1
3731.632	-118.1
3734.336	-132.1
3737.039	-119.1
3739.74	-123.1
3742.439	-129.1
3745.136	-125.1
3747.83	-123.1
3750.523	-128.1
3753.213	-133.1
3755.902	-121.1
3758.589	-127.1
3761.273	-120.1
3763.956	-118.1
3766.636	-123.1
3769.315	-122.1
3771.991	-122.1
3774.665	-128.1
3777.338	-119.1
3780.008	-123.1
3782.677	-128.1
3785.343	-126.1
3788.007	-129.1
3790.67	-128.1
3793.33	-124.1
3795.989	-128.1
3798.645	-126.1
3801.299	-121.1
3803.952	-127.1
3806.602	-124.1
3809.251	-134.1
3811.897	-132.1
3814.542	-130.1
3817.184	-125.1
3819.825	-129.1
3822.463	-127.1
3825.1	-127.1
3827.735	-129.1
3830.367	-131.1
3832.998	-134.1
3835.627	-127.1
3838.253	-131.1
3840.878	-126.1
3843.501	-122.1
3846.122	-129.1
3848.741	-134.1
3851.358	-126.1
3853.973	-132.1
3856.586	-128.1
3859.197	-135.1
3861.806	-124.1
3864.414	-126.1
3867.019	-125.1
3869.622	-132.1
3872.224	-114.1
3874.823	-105.1
3877.421	-97.1
3880.016	-73.1
3882.61	-43.1
3885.202	-40.1
3887.792	-56.1
3890.38	-89.1
3892.966	-114.1
3895.55	-125.1
3898.132	-126.1
3900.713	-128.1
3903.291	-132.1
3905.868	-132.1
3908.442	-129.1
3911.015	-132.1
3913.586	-133.1
3916.155	-138.1
3918.722	-132.1
3921.287	-131.1
3923.85	-127.1
3926.411	-132.1
3928.971	-129.1
3931.528	-138.1
3934.084	-132.1
3936.638	-130.1
3939.19	-136.1
3941.74	-135.1
3944.288	-131.1
3946.834	-127.1
3949.378	-129.1
3951.921	-136.1
3954.462	-139.1
3957	-134.1
3959.537	-128.1
3962.072	-135.1
3964.606	-124.1
3967.137	-128.1
3969.667	-136.1
3972.194	-136.1
3974.72	-131.1
3977.244	-136.1
3979.766	-131.1
3982.286	-122.1
3984.805	-134.1
3987.321	-130.1
3989.836	-122.1
3992.349	-137.1
3994.86	-133.1
3997.369	-131.1
3999.877	-129.1
4002.382	-124.1
4004.886	-130.1
4007.388	-128.1
4009.888	-126.1
4012.386	-133.1
4014.883	-132.1
4017.377	-132.1
4019.87	-133.1
4022.361	-134.1
4024.85	-127.1
4027.338	-129.1
4029.823	-128.1
4032.307	-128.1
4034.789	-134.1
4037.269	-125.1
4039.747	-130.1
4042.224	-133.1
4044.699	-127.1
4047.172	-130.1
4049.643	-127.1
4052.112	-132.1
4054.58	-132.1
4057.046	-134.1
4059.51	-131.1
4061.972	-125.1
4064.432	-134.1
4066.891	-127.1
4069.348	-128.1
4071.803	-133.1
4074.256	-134.1
4076.708	-128.1
4079.158	-133.1
4081.606	-122.1
4084.052	-135.1
4086.497	-122.1
4088.939	-125.1
4091.38	-131.1
4093.819	-129.1
4096.257	-137.1
4098.693	-136.1
4101.127	-135.1
4103.559	-133.1
4105.989	25.9
4108.418	12.9
4110.845	14.9
4113.27	14.9
4115.694	9.9
4118.115	5.9
4120.535	-133.1
4122.954	-135.1
4125.37	-128.1
4127.785	-128.1
4130.198	-127.1
4132.609	-128.1
4135.019	-134.1
4137.427	-141.1
4139.833	-138.1
4142.237	-137.1
