Data from 2018-2-8_conc=5_n=3_RamanShift_04.txt Node
Date: Mon Mar 12 15:58:28 IST 2018
User: aro
Spectrometer: QEPB0276
Trigger mode: 0
Integration Time (sec): 3.000000E1
Scans to average: 1
Electric dark correction enabled: true
Nonlinearity correction enabled: false
Boxcar width: 0
XAxis mode: Raman Shifts
Number of Pixels in Spectrum: 1044
>>>>>Begin Spectral Data<<<<<
160.701	22.1
166.742	49.1
172.777	116.1
178.805	352.1
184.826	942.1
190.841	2021.1
196.849	3334.1
202.85	4381.1
208.845	4799.1
214.833	4812.1
220.815	4729.1
226.789	4730.1
232.758	4731.1
238.719	4752.1
244.674	4729.1
250.623	4684.1
256.565	4605.1
262.5	4551.1
268.429	4517.1
274.351	4476.1
280.267	4469.1
286.176	4442.1
292.079	4412.1
297.975	4382.1
303.865	4414.1
309.748	4367.1
315.625	4384.1
321.495	4353.1
327.359	4380.1
333.217	4396.1
339.068	4383.1
344.912	4367.1
350.751	4405.1
356.583	4417.1
362.408	4444.1
368.227	4412.1
374.04	4434.1
379.847	4439.1
385.647	4474.1
391.44	4506.1
397.228	4503.1
403.009	4532.1
408.784	4562.1
414.553	4596.1
420.315	4606.1
426.071	4603.1
431.821	4598.1
437.565	4600.1
443.302	4578.1
449.033	4561.1
454.758	4572.1
460.477	4525.1
466.189	4470.1
471.896	4435.1
477.596	4454.1
483.29	4423.1
488.978	4396.1
494.66	4405.1
500.335	4331.1
506.005	4206.1
511.668	4054.1
517.325	3922.1
522.977	3800.1
528.622	3727.1
534.261	3663.1
539.894	3606.1
545.521	3604.1
551.141	3539.1
556.756	3536.1
562.365	3505.1
567.968	3466.1
573.565	3430.1
579.155	3409.1
584.74	3413.1
590.319	3416.1
595.892	3403.1
601.459	3393.1
607.02	3401.1
612.575	3363.1
618.124	3297.1
623.667	3287.1
629.204	3270.1
634.735	3242.1
640.261	3211.1
645.781	3191.1
651.294	3180.1
656.802	3168.1
662.304	3131.1
667.8	3148.1
673.29	3132.1
678.775	3149.1
684.254	3185.1
689.726	3154.1
695.193	3097.1
700.655	3091.1
706.11	3052.1
711.56	3063.1
717.004	3023.1
722.442	3039.1
727.874	3002.1
733.301	2993.1
738.722	2991.1
744.137	2959.1
749.547	2977.1
754.951	2966.1
760.349	2965.1
765.741	2978.1
771.128	2996.1
776.509	3023.1
781.885	3026.1
787.254	3019.1
792.618	3034.1
797.977	3036.1
803.33	3003.1
808.677	2990.1
814.019	2997.1
819.355	2940.1
824.686	2934.1
830.011	2922.1
835.33	2902.1
840.644	2893.1
845.952	2889.1
851.255	2902.1
856.552	2846.1
861.844	2854.1
867.13	2838.1
872.41	2818.1
877.686	2795.1
882.955	2778.1
888.219	2741.1
893.478	2717.1
898.731	2678.1
903.979	2665.1
909.221	2617.1
914.458	2611.1
919.69	2615.1
924.916	2626.1
930.136	2629.1
935.351	2615.1
940.561	2627.1
945.766	2604.1
950.965	2611.1
956.158	2584.1
961.347	2568.1
966.529	2534.1
971.707	2481.1
976.879	2455.1
982.046	2438.1
987.208	2430.1
992.364	2427.1
997.515	2434.1
1002.66	2455.1
1007.801	2480.1
1012.936	2498.1
1018.066	2509.1
1023.19	2500.1
1028.309	2518.1
1033.423	2532.1
1038.532	2519.1
1043.636	2475.1
1048.734	2445.1
1053.827	2424.1
1058.915	2386.1
1063.998	2378.1
1069.075	2382.1
1074.147	2378.1
1079.214	2375.1
1084.276	2405.1
1089.333	2402.1
1094.385	2424.1
1099.431	2394.1
1104.472	2370.1
1109.509	2386.1
1114.54	2347.1
1119.565	2318.1
1124.586	2293.1
1129.602	2259.1
1134.613	2246.1
1139.618	2207.1
1144.619	2224.1
1149.614	2212.1
1154.604	2243.1
1159.589	2234.1
1164.57	2243.1
1169.545	2246.1
1174.515	2247.1
1179.48	2233.1
1184.44	2218.1
1189.395	2203.1
1194.345	2198.1
1199.29	2177.1
1204.23	2176.1
1209.165	2171.1
1214.095	2189.1
1219.021	2182.1
1223.941	2197.1
1228.856	2216.1
1233.766	2230.1
1238.672	2237.1
1243.572	2217.1
1248.467	2217.1
1253.358	2182.1
1258.244	2149.1
1263.124	2097.1
1268	2078.1
1272.871	2049.1
1277.737	2054.1
1282.599	2032.1
1287.455	2019.1
1292.306	2017.1
1297.153	2032.1
1301.995	2063.1
1306.832	2065.1
1311.664	2100.1
1316.491	2073.1
1321.314	2090.1
1326.132	2061.1
1330.945	2053.1
1335.753	2018.1
1340.556	1989.1
1345.354	1953.1
1350.148	1922.1
1354.937	1915.1
1359.722	1866.1
1364.501	1848.1
1369.276	1796.1
1374.046	1779.1
1378.811	1752.1
1383.572	1742.1
1388.327	1753.1
1393.079	1736.1
1397.825	1742.1
1402.567	1743.1
1407.304	1731.1
1412.036	1748.1
1416.764	1744.1
1421.487	1740.1
1426.205	1763.1
1430.919	1722.1
1435.628	1772.1
1440.333	1788.1
1445.032	1796.1
1449.727	1799.1
1454.418	1821.1
1459.104	1819.1
1463.785	1799.1
1468.462	1776.1
1473.134	1728.1
1477.802	1720.1
1482.465	1665.1
1487.123	1634.1
1491.777	1603.1
1496.426	1591.1
1501.071	1580.1
1505.711	1567.1
1510.347	1572.1
1514.978	1570.1
1519.604	1562.1
1524.226	1565.1
1528.844	1560.1
1533.457	1551.1
1538.065	1545.1
1542.669	1522.1
1547.269	1533.1
1551.864	1529.1
1556.454	1552.1
1561.041	1564.1
1565.622	1564.1
1570.199	1561.1
1574.772	1575.1
1579.34	1603.1
1583.904	1619.1
1588.464	1630.1
1593.019	1639.1
1597.569	1636.1
1602.115	1645.1
1606.657	1618.1
1611.195	1632.1
1615.728	1612.1
1620.256	1617.1
1624.78	1607.1
1629.3	1616.1
1633.816	1634.1
1638.327	1625.1
1642.834	1623.1
1647.336	1658.1
1651.834	1665.1
1656.328	1651.1
1660.817	1645.1
1665.302	1626.1
1669.783	1601.1
1674.259	1565.1
1678.732	1542.1
1683.199	1506.1
1687.663	1463.1
1692.122	1418.1
1696.577	1345.1
1701.028	1290.1
1705.474	1239.1
1709.917	1212.1
1714.355	1192.1
1718.788	1170.1
1723.218	1189.1
1727.643	1181.1
1732.064	1179.1
1736.481	1166.1
1740.893	1147.1
1745.301	1122.1
1749.705	1101.1
1754.105	1086.1
1758.501	1058.1
1762.893	1031.1
1767.28	1036.1
1771.663	1015.1
1776.042	1021.1
1780.417	1013.1
1784.787	993.1
1789.154	985.1
1793.516	983.1
1797.874	956.1
1802.228	942.1
1806.578	940.1
1810.924	934.1
1815.266	910.1
1819.603	925.1
1823.937	927.1
1828.266	915.1
1832.591	913.1
1836.913	903.1
1841.23	920.1
1845.543	912.1
1849.852	911.1
1854.156	915.1
1858.457	913.1
1862.754	908.1
1867.047	906.1
1871.335	918.1
1875.62	913.1
1879.9	921.1
1884.177	918.1
1888.449	896.1
1892.718	879.1
1896.982	878.1
1901.243	871.1
1905.499	852.1
1909.752	843.1
1914	838.1
1918.245	834.1
1922.485	814.1
1926.722	812.1
1930.954	829.1
1935.183	806.1
1939.408	813.1
1943.628	816.1
1947.845	795.1
1952.058	802.1
1956.267	764.1
1960.472	775.1
1964.673	763.1
1968.87	754.1
1973.063	747.1
1977.252	751.1
1981.438	747.1
1985.619	745.1
1989.797	740.1
1993.971	735.1
1998.14	752.1
2002.306	732.1
2006.469	743.1
2010.627	747.1
2014.781	759.1
2018.932	748.1
2023.078	748.1
2027.221	732.1
2031.36	741.1
2035.495	718.1
2039.627	708.1
2043.754	699.1
2047.878	701.1
2051.998	688.1
2056.114	691.1
2060.226	682.1
2064.334	688.1
2068.439	692.1
2072.54	686.1
2076.637	684.1
2080.73	681.1
2084.82	673.1
2088.906	672.1
2092.988	668.1
2097.066	658.1
2101.14	648.1
2105.211	643.1
2109.278	635.1
2113.342	626.1
2117.401	613.1
2121.457	611.1
2125.509	607.1
2129.558	606.1
2133.602	614.1
2137.643	609.1
2141.681	611.1
2145.714	618.1
2149.744	599.1
2153.77	596.1
2157.793	591.1
2161.812	596.1
2165.827	593.1
2169.838	594.1
2173.846	571.1
2177.851	559.1
2181.851	545.1
2185.848	541.1
2189.841	555.1
2193.831	550.1
2197.817	544.1
2201.799	537.1
2205.778	540.1
2209.753	530.1
2213.725	530.1
2217.693	536.1
2221.657	524.1
2225.618	529.1
2229.575	534.1
2233.529	515.1
2237.479	523.1
2241.425	507.1
2245.368	496.1
2249.307	488.1
2253.243	491.1
2257.175	473.1
2261.104	478.1
2265.029	472.1
2268.95	462.1
2272.868	453.1
2276.783	442.1
2280.694	444.1
2284.601	441.1
2288.505	449.1
2292.405	426.1
2296.302	431.1
2300.195	422.1
2304.085	418.1
2307.971	392.1
2311.854	411.1
2315.734	393.1
2319.609	391.1
2323.482	399.1
2327.351	385.1
2331.216	393.1
2335.078	406.1
2338.937	396.1
2342.792	388.1
2346.643	380.1
2350.492	366.1
2354.336	378.1
2358.178	380.1
2362.015	374.1
2365.85	373.1
2369.681	380.1
2373.508	368.1
2377.333	381.1
2381.153	375.1
2384.971	378.1
2388.785	376.1
2392.595	380.1
2396.402	357.1
2400.206	373.1
2404.007	371.1
2407.804	361.1
2411.597	351.1
2415.388	356.1
2419.174	347.1
2422.958	348.1
2426.738	353.1
2430.515	352.1
2434.289	351.1
2438.059	348.1
2441.825	348.1
2445.589	337.1
2449.349	320.1
2453.106	326.1
2456.859	332.1
2460.61	327.1
2464.356	317.1
2468.1	317.1
2471.84	319.1
2475.577	317.1
2479.311	295.1
2483.041	293.1
2486.768	303.1
2490.492	298.1
2494.213	303.1
2497.93	302.1
2501.644	295.1
2505.355	299.1
2509.062	280.1
2512.766	291.1
2516.467	277.1
2520.165	271.1
2523.859	284.1
2527.551	274.1
2531.239	264.1
2534.923	259.1
2538.605	258.1
2542.283	254.1
2545.958	251.1
2549.63	262.1
2553.299	264.1
2556.964	255.1
2560.626	254.1
2564.285	240.1
2567.941	233.1
2571.594	237.1
2575.243	235.1
2578.89	231.1
2582.533	223.1
2586.173	223.1
2589.809	217.1
2593.443	227.1
2597.073	217.1
2600.701	205.1
2604.325	213.1
2607.946	216.1
2611.564	213.1
2615.178	214.1
2618.79	213.1
2622.398	215.1
2626.004	212.1
2629.606	202.1
2633.205	195.1
2636.801	195.1
2640.394	201.1
2643.983	191.1
2647.57	199.1
2651.153	194.1
2654.734	190.1
2658.311	184.1
2661.885	185.1
2665.456	182.1
2669.025	178.1
2672.589	186.1
2676.151	181.1
2679.71	184.1
2683.266	176.1
2686.819	167.1
2690.368	164.1
2693.915	163.1
2697.458	165.1
2700.999	158.1
2704.536	159.1
2708.071	155.1
2711.602	151.1
2715.13	144.1
2718.656	142.1
2722.178	146.1
2725.697	140.1
2729.214	134.1
2732.727	148.1
2736.237	141.1
2739.744	140.1
2743.249	131.1
2746.75	131.1
2750.248	131.1
2753.743	125.1
2757.236	121.1
2760.725	124.1
2764.211	123.1
2767.695	111.1
2771.175	108.1
2774.652	107.1
2778.127	106.1
2781.598	106.1
2785.067	113.1
2788.532	115.1
2791.995	116.1
2795.455	113.1
2798.911	115.1
2802.365	115.1
2805.816	111.1
2809.264	103.1
2812.709	116.1
2816.151	119.1
2819.59	120.1
2823.026	114.1
2826.46	104.1
2829.89	111.1
2833.318	112.1
2836.742	117.1
2840.164	115.1
2843.583	122.1
2846.999	123.1
2850.412	120.1
2853.822	116.1
2857.229	111.1
2860.634	123.1
2864.035	126.1
2867.434	130.1
2870.83	130.1
2874.223	150.1
2877.613	153.1
2881	152.1
2884.385	145.1
2887.766	135.1
2891.145	144.1
2894.521	145.1
2897.894	155.1
2901.264	152.1
2904.631	143.1
2907.996	151.1
2911.358	144.1
2914.717	153.1
2918.073	147.1
2921.426	166.1
2924.777	166.1
2928.124	171.1
2931.469	175.1
2934.811	172.1
2938.15	185.1
2941.487	181.1
2944.821	185.1
2948.152	179.1
2951.48	194.1
2954.805	193.1
2958.128	186.1
2961.447	177.1
2964.765	181.1
2968.079	171.1
2971.39	172.1
2974.699	183.1
2978.005	183.1
2981.308	182.1
2984.609	181.1
2987.907	188.1
2991.202	186.1
2994.494	190.1
2997.784	183.1
3001.07	200.1
3004.355	201.1
3007.636	207.1
3010.915	196.1
3014.191	202.1
3017.464	210.1
3020.734	203.1
3024.002	208.1
3027.267	225.1
3030.53	218.1
3033.789	226.1
3037.046	242.1
3040.301	229.1
3043.552	245.1
3046.801	244.1
3050.048	260.1
3053.291	267.1
3056.532	273.1
3059.771	288.1
3063.006	300.1
3066.239	303.1
3069.469	315.1
3072.697	324.1
3075.922	334.1
3079.144	338.1
3082.364	350.1
3085.581	355.1
3088.795	359.1
3092.007	369.1
3095.216	368.1
3098.423	385.1
3101.627	396.1
3104.828	403.1
3108.026	418.1
3111.222	428.1
3114.416	430.1
3117.607	444.1
3120.795	443.1
3123.98	456.1
3127.163	466.1
3130.344	478.1
3133.521	485.1
3136.696	501.1
3139.869	507.1
3143.039	520.1
3146.206	520.1
3149.371	528.1
3152.533	541.1
3155.693	542.1
3158.85	548.1
3162.005	560.1
3165.157	547.1
3168.306	551.1
3171.453	550.1
3174.597	556.1
3177.739	560.1
3180.878	570.1
3184.014	581.1
3187.149	588.1
3190.28	570.1
3193.409	564.1
3196.536	576.1
3199.659	572.1
3202.781	578.1
3205.9	587.1
3209.016	577.1
3212.13	581.1
3215.241	576.1
3218.35	571.1
3221.456	553.1
3224.56	556.1
3227.661	549.1
3230.76	545.1
3233.856	534.1
3236.95	534.1
3240.041	508.1
3243.13	510.1
3246.216	498.1
3249.3	489.1
3252.382	498.1
3255.46	487.1
3258.537	487.1
3261.611	480.1
3264.682	474.1
3267.751	467.1
3270.818	456.1
3273.882	462.1
3276.943	454.1
3280.002	472.1
3283.059	464.1
3286.113	456.1
3289.165	444.1
3292.214	436.1
3295.261	430.1
3298.306	425.1
3301.348	418.1
3304.387	424.1
3307.425	420.1
3310.459	410.1
3313.492	407.1
3316.521	393.1
3319.549	385.1
3322.574	401.1
3325.597	396.1
3328.617	394.1
3331.635	383.1
3334.65	381.1
3337.663	379.1
3340.674	376.1
3343.682	375.1
3346.688	384.1
3349.691	387.1
3352.692	378.1
3355.691	370.1
3358.687	370.1
3361.681	365.1
3364.673	375.1
3367.662	362.1
3370.649	358.1
3373.633	350.1
3376.615	338.1
3379.595	338.1
3382.572	335.1
3385.547	321.1
3388.52	322.1
3391.49	315.1
3394.458	318.1
3397.424	300.1
3400.387	285.1
3403.348	299.1
3406.307	288.1
3409.263	296.1
3412.217	285.1
3415.168	287.1
3418.118	274.1
3421.065	274.1
3424.009	268.1
3426.951	263.1
3429.891	261.1
3432.829	248.1
3435.764	243.1
3438.697	236.1
3441.628	236.1
3444.557	228.1
3447.483	210.1
3450.407	204.1
3453.328	194.1
3456.247	187.1
3459.164	177.1
3462.079	169.1
3464.991	166.1
3467.902	155.1
3470.809	155.1
3473.715	134.1
3476.618	142.1
3479.519	139.1
3482.418	125.1
3485.315	118.1
3488.209	102.1
3491.101	103.1
3493.99	111.1
3496.878	96.1
3499.763	91.1
3502.646	80.1
3505.527	77.1
3508.405	72.1
3511.281	60.1
3514.155	49.1
3517.027	52.1
3519.897	45.1
3522.764	46.1
3525.629	34.1
3528.492	36.1
3531.352	25.1
3534.211	20.1
3537.067	13.1
3539.921	13.1
3542.773	9.1
3545.622	-5.9
3548.469	-5.9
3551.315	-5.9
3554.157	-12.9
3556.998	-20.9
3559.837	-16.9
3562.673	-23.9
3565.507	-17.9
3568.339	-26.9
3571.169	-39.9
3573.996	-34.9
3576.822	-35.9
3579.645	-35.9
3582.466	-43.9
3585.285	-48.9
3588.101	-40.9
3590.916	-53.9
3593.728	-57.9
3596.538	-50.9
3599.346	-62.9
3602.152	-63.9
3604.956	-64.9
3607.757	-60.9
3610.556	-67.9
3613.354	-63.9
3616.149	-80.9
3618.942	-80.9
3621.732	-77.9
3624.521	-76.9
3627.307	-71.9
3630.092	-81.9
3632.874	-72.9
3635.654	-86.9
3638.432	-79.9
3641.208	-83.9
3643.982	-88.9
3646.753	-92.9
3649.523	-93.9
3652.29	-87.9
3655.055	-88.9
3657.818	-87.9
3660.579	-94.9
3663.338	-91.9
3666.095	-101.9
3668.849	-103.9
3671.602	-100.9
3674.352	-100.9
3677.101	-103.9
3679.847	-102.9
3682.591	-106.9
3685.333	-103.9
3688.073	-108.9
3690.811	-108.9
3693.547	-114.9
3696.281	-103.9
3699.013	-112.9
3701.742	-112.9
3704.47	-110.9
3707.195	-110.9
3709.919	-112.9
3712.64	-122.9
3715.359	-118.9
3718.076	-117.9
3720.792	-118.9
3723.505	-119.9
3726.216	-114.9
3728.925	-120.9
3731.632	-122.9
3734.336	-127.9
3737.039	-122.9
3739.74	-123.9
3742.439	-126.9
3745.136	-111.9
3747.83	-125.9
3750.523	-125.9
3753.213	-127.9
3755.902	-123.9
3758.589	-125.9
3761.273	-117.9
3763.956	-117.9
3766.636	-120.9
3769.315	-116.9
3771.991	-119.9
3774.665	-127.9
3777.338	-120.9
3780.008	-121.9
3782.677	-125.9
3785.343	-118.9
3788.007	-124.9
3790.67	-123.9
3793.33	-124.9
3795.989	-127.9
3798.645	-121.9
3801.299	-124.9
3803.952	-127.9
3806.602	-115.9
3809.251	-128.9
3811.897	-131.9
3814.542	-132.9
3817.184	-122.9
3819.825	-128.9
3822.463	-125.9
3825.1	-126.9
3827.735	-122.9
3830.367	-122.9
3832.998	-130.9
3835.627	-130.9
3838.253	-125.9
3840.878	-124.9
3843.501	-120.9
3846.122	-130.9
3848.741	-125.9
3851.358	-120.9
3853.973	-127.9
3856.586	-125.9
3859.197	-133.9
3861.806	-126.9
3864.414	-126.9
3867.019	-125.9
3869.622	-127.9
3872.224	-114.9
3874.823	-104.9
3877.421	-88.9
3880.016	-66.9
3882.61	-37.9
3885.202	-40.9
3887.792	-56.9
3890.38	-83.9
3892.966	-113.9
3895.55	-123.9
3898.132	-125.9
3900.713	-124.9
3903.291	-128.9
3905.868	-133.9
3908.442	-124.9
3911.015	-128.9
3913.586	-128.9
3916.155	-131.9
3918.722	-135.9
3921.287	-128.9
3923.85	-130.9
3926.411	-133.9
3928.971	-129.9
3931.528	-131.9
3934.084	-126.9
3936.638	-123.9
3939.19	-134.9
3941.74	-137.9
3944.288	-128.9
3946.834	-124.9
3949.378	-130.9
3951.921	-133.9
3954.462	-133.9
3957	-127.9
3959.537	-125.9
3962.072	-131.9
3964.606	-126.9
3967.137	-125.9
3969.667	-132.9
3972.194	-132.9
3974.72	-131.9
3977.244	-132.9
3979.766	-129.9
3982.286	-126.9
3984.805	-130.9
3987.321	-129.9
3989.836	-120.9
3992.349	-125.9
3994.86	-124.9
3997.369	-133.9
3999.877	-133.9
4002.382	-126.9
4004.886	-135.9
4007.388	-132.9
4009.888	-124.9
4012.386	-130.9
4014.883	-128.9
4017.377	-129.9
4019.87	-123.9
4022.361	-128.9
4024.85	-129.9
4027.338	-127.9
4029.823	-129.9
4032.307	-121.9
4034.789	-130.9
4037.269	-125.9
4039.747	-124.9
4042.224	-128.9
4044.699	-133.9
4047.172	-127.9
4049.643	-124.9
4052.112	-127.9
4054.58	-128.9
4057.046	-126.9
4059.51	-128.9
4061.972	-125.9
4064.432	-127.9
4066.891	-127.9
4069.348	-125.9
4071.803	-131.9
4074.256	-127.9
4076.708	-121.9
4079.158	-130.9
4081.606	-118.9
4084.052	-134.9
4086.497	-131.9
4088.939	-118.9
4091.38	-125.9
4093.819	-127.9
4096.257	-131.9
4098.693	-132.9
4101.127	-134.9
4103.559	-131.9
4105.989	30.1
4108.418	27.1
4110.845	20.1
4113.27	23.1
4115.694	8.1
4118.115	12.1
4120.535	-127.9
4122.954	-130.9
4125.37	-126.9
4127.785	-128.9
4130.198	-131.9
4132.609	-127.9
4135.019	-134.9
4137.427	-134.9
4139.833	-134.9
4142.237	-134.9
