Data from 2018-2-8_conc=3_n=8_RamanShift_02.txt Node
Date: Mon Mar 12 14:52:58 IST 2018
User: aro
Spectrometer: QEPB0276
Trigger mode: 0
Integration Time (sec): 3.000000E1
Scans to average: 1
Electric dark correction enabled: true
Nonlinearity correction enabled: false
Boxcar width: 0
XAxis mode: Raman Shifts
Number of Pixels in Spectrum: 1044
>>>>>Begin Spectral Data<<<<<
160.701	7.8
166.742	32.8
172.777	118.8
178.805	375.8
184.826	1003.8
190.841	2202.8
196.849	3700.8
202.85	4833.8
208.845	5273.8
214.833	5266.8
220.815	5191.8
226.789	5134.8
232.758	5118.8
238.719	5121.8
244.674	5109.8
250.623	5019.8
256.565	4913.8
262.5	4852.8
268.429	4769.8
274.351	4764.8
280.267	4690.8
286.176	4654.8
292.079	4625.8
297.975	4624.8
303.865	4583.8
309.748	4574.8
315.625	4526.8
321.495	4514.8
327.359	4530.8
333.217	4513.8
339.068	4525.8
344.912	4537.8
350.751	4544.8
356.583	4555.8
362.408	4545.8
368.227	4550.8
374.04	4584.8
379.847	4576.8
385.647	4596.8
391.44	4614.8
397.228	4624.8
403.009	4662.8
408.784	4696.8
414.553	4704.8
420.315	4696.8
426.071	4684.8
431.821	4727.8
437.565	4697.8
443.302	4708.8
449.033	4678.8
454.758	4688.8
460.477	4646.8
466.189	4622.8
471.896	4588.8
477.596	4574.8
483.29	4538.8
488.978	4557.8
494.66	4514.8
500.335	4454.8
506.005	4367.8
511.668	4209.8
517.325	4103.8
522.977	4016.8
528.622	3947.8
534.261	3888.8
539.894	3825.8
545.521	3833.8
551.141	3780.8
556.756	3745.8
562.365	3741.8
567.968	3699.8
573.565	3663.8
579.155	3666.8
584.74	3655.8
590.319	3615.8
595.892	3625.8
601.459	3624.8
607.02	3606.8
612.575	3563.8
618.124	3547.8
623.667	3488.8
629.204	3485.8
634.735	3480.8
640.261	3403.8
645.781	3431.8
651.294	3393.8
656.802	3381.8
662.304	3397.8
667.8	3366.8
673.29	3392.8
678.775	3383.8
684.254	3342.8
689.726	3338.8
695.193	3330.8
700.655	3310.8
706.11	3302.8
711.56	3233.8
717.004	3259.8
722.442	3241.8
727.874	3216.8
733.301	3223.8
738.722	3184.8
744.137	3177.8
749.547	3189.8
754.951	3190.8
760.349	3193.8
765.741	3174.8
771.128	3193.8
776.509	3210.8
781.885	3262.8
787.254	3264.8
792.618	3234.8
797.977	3231.8
803.33	3198.8
808.677	3176.8
814.019	3152.8
819.355	3137.8
824.686	3096.8
830.011	3086.8
835.33	3077.8
840.644	3098.8
845.952	3108.8
851.255	3078.8
856.552	3081.8
861.844	3042.8
867.13	3035.8
872.41	3045.8
877.686	3003.8
882.955	2967.8
888.219	2942.8
893.478	2902.8
898.731	2877.8
903.979	2834.8
909.221	2808.8
914.458	2814.8
919.69	2829.8
924.916	2806.8
930.136	2790.8
935.351	2810.8
940.561	2819.8
945.766	2816.8
950.965	2802.8
956.158	2778.8
961.347	2745.8
966.529	2721.8
971.707	2681.8
976.879	2642.8
982.046	2605.8
987.208	2599.8
992.364	2599.8
997.515	2610.8
1002.66	2655.8
1007.801	2674.8
1012.936	2685.8
1018.066	2661.8
1023.19	2669.8
1028.309	2673.8
1033.423	2690.8
1038.532	2685.8
1043.636	2672.8
1048.734	2626.8
1053.827	2610.8
1058.915	2574.8
1063.998	2536.8
1069.075	2525.8
1074.147	2543.8
1079.214	2534.8
1084.276	2550.8
1089.333	2566.8
1094.385	2584.8
1099.431	2592.8
1104.472	2597.8
1109.509	2559.8
1114.54	2511.8
1119.565	2492.8
1124.586	2463.8
1129.602	2426.8
1134.613	2419.8
1139.618	2398.8
1144.619	2378.8
1149.614	2386.8
1154.604	2407.8
1159.589	2397.8
1164.57	2403.8
1169.545	2404.8
1174.515	2417.8
1179.48	2400.8
1184.44	2395.8
1189.395	2363.8
1194.345	2340.8
1199.29	2326.8
1204.23	2338.8
1209.165	2352.8
1214.095	2323.8
1219.021	2354.8
1223.941	2399.8
1228.856	2389.8
1233.766	2390.8
1238.672	2393.8
1243.572	2385.8
1248.467	2374.8
1253.358	2336.8
1258.244	2297.8
1263.124	2279.8
1268	2251.8
1272.871	2219.8
1277.737	2204.8
1282.599	2184.8
1287.455	2181.8
1292.306	2215.8
1297.153	2194.8
1301.995	2236.8
1306.832	2221.8
1311.664	2230.8
1316.491	2239.8
1321.314	2233.8
1326.132	2239.8
1330.945	2197.8
1335.753	2176.8
1340.556	2154.8
1345.354	2100.8
1350.148	2084.8
1354.937	2046.8
1359.722	1998.8
1364.501	1995.8
1369.276	1933.8
1374.046	1889.8
1378.811	1876.8
1383.572	1850.8
1388.327	1866.8
1393.079	1864.8
1397.825	1877.8
1402.567	1880.8
1407.304	1871.8
1412.036	1888.8
1416.764	1869.8
1421.487	1891.8
1426.205	1898.8
1430.919	1901.8
1435.628	1915.8
1440.333	1918.8
1445.032	1968.8
1449.727	1948.8
1454.418	1965.8
1459.104	1970.8
1463.785	1926.8
1468.462	1888.8
1473.134	1845.8
1477.802	1831.8
1482.465	1777.8
1487.123	1748.8
1491.777	1734.8
1496.426	1723.8
1501.071	1688.8
1505.711	1683.8
1510.347	1689.8
1514.978	1679.8
1519.604	1689.8
1524.226	1682.8
1528.844	1663.8
1533.457	1647.8
1538.065	1642.8
1542.669	1619.8
1547.269	1636.8
1551.864	1635.8
1556.454	1642.8
1561.041	1684.8
1565.622	1676.8
1570.199	1674.8
1574.772	1714.8
1579.34	1717.8
1583.904	1725.8
1588.464	1783.8
1593.019	1765.8
1597.569	1776.8
1602.115	1792.8
1606.657	1770.8
1611.195	1761.8
1615.728	1771.8
1620.256	1752.8
1624.78	1753.8
1629.3	1782.8
1633.816	1766.8
1638.327	1779.8
1642.834	1801.8
1647.336	1785.8
1651.834	1803.8
1656.328	1794.8
1660.817	1789.8
1665.302	1779.8
1669.783	1741.8
1674.259	1701.8
1678.732	1665.8
1683.199	1609.8
1687.663	1558.8
1692.122	1509.8
1696.577	1456.8
1701.028	1378.8
1705.474	1344.8
1709.917	1277.8
1714.355	1260.8
1718.788	1266.8
1723.218	1235.8
1727.643	1256.8
1732.064	1252.8
1736.481	1252.8
1740.893	1222.8
1745.301	1181.8
1749.705	1171.8
1754.105	1131.8
1758.501	1111.8
1762.893	1093.8
1767.28	1115.8
1771.663	1078.8
1776.042	1060.8
1780.417	1064.8
1784.787	1034.8
1789.154	1026.8
1793.516	1023.8
1797.874	1008.8
1802.228	1001.8
1806.578	972.8
1810.924	966.8
1815.266	969.8
1819.603	951.8
1823.937	962.8
1828.266	959.8
1832.591	961.8
1836.913	954.8
1841.23	961.8
1845.543	969.8
1849.852	973.8
1854.156	957.8
1858.457	969.8
1862.754	962.8
1867.047	977.8
1871.335	973.8
1875.62	981.8
1879.9	972.8
1884.177	959.8
1888.449	949.8
1892.718	937.8
1896.982	923.8
1901.243	919.8
1905.499	905.8
1909.752	887.8
1914	882.8
1918.245	873.8
1922.485	855.8
1926.722	846.8
1930.954	850.8
1935.183	835.8
1939.408	842.8
1943.628	831.8
1947.845	819.8
1952.058	832.8
1956.267	808.8
1960.472	815.8
1964.673	801.8
1968.87	792.8
1973.063	796.8
1977.252	769.8
1981.438	787.8
1985.619	779.8
1989.797	787.8
1993.971	782.8
1998.14	789.8
2002.306	775.8
2006.469	795.8
2010.627	797.8
2014.781	796.8
2018.932	794.8
2023.078	799.8
2027.221	763.8
2031.36	776.8
2035.495	771.8
2039.627	755.8
2043.754	734.8
2047.878	743.8
2051.998	732.8
2056.114	726.8
2060.226	725.8
2064.334	727.8
2068.439	725.8
2072.54	721.8
2076.637	716.8
2080.73	703.8
2084.82	717.8
2088.906	704.8
2092.988	708.8
2097.066	695.8
2101.14	688.8
2105.211	677.8
2109.278	669.8
2113.342	659.8
2117.401	646.8
2121.457	660.8
2125.509	640.8
2129.558	638.8
2133.602	654.8
2137.643	643.8
2141.681	645.8
2145.714	630.8
2149.744	647.8
2153.77	632.8
2157.793	632.8
2161.812	623.8
2165.827	618.8
2169.838	628.8
2173.846	608.8
2177.851	599.8
2181.851	590.8
2185.848	585.8
2189.841	588.8
2193.831	581.8
2197.817	570.8
2201.799	579.8
2205.778	580.8
2209.753	561.8
2213.725	558.8
2217.693	560.8
2221.657	565.8
2225.618	555.8
2229.575	560.8
2233.529	549.8
2237.479	555.8
2241.425	550.8
2245.368	527.8
2249.307	524.8
2253.243	524.8
2257.175	499.8
2261.104	504.8
2265.029	506.8
2268.95	502.8
2272.868	482.8
2276.783	479.8
2280.694	475.8
2284.601	466.8
2288.505	469.8
2292.405	461.8
2296.302	448.8
2300.195	443.8
2304.085	442.8
2307.971	436.8
2311.854	432.8
2315.734	416.8
2319.609	424.8
2323.482	412.8
2327.351	408.8
2331.216	425.8
2335.078	425.8
2338.937	425.8
2342.792	402.8
2346.643	404.8
2350.492	406.8
2354.336	398.8
2358.178	396.8
2362.015	404.8
2365.85	403.8
2369.681	408.8
2373.508	410.8
2377.333	413.8
2381.153	399.8
2384.971	410.8
2388.785	401.8
2392.595	400.8
2396.402	390.8
2400.206	392.8
2404.007	389.8
2407.804	393.8
2411.597	384.8
2415.388	380.8
2419.174	392.8
2422.958	381.8
2426.738	383.8
2430.515	375.8
2434.289	380.8
2438.059	366.8
2441.825	363.8
2445.589	368.8
2449.349	351.8
2453.106	362.8
2456.859	356.8
2460.61	344.8
2464.356	341.8
2468.1	336.8
2471.84	329.8
2475.577	332.8
2479.311	323.8
2483.041	322.8
2486.768	323.8
2490.492	316.8
2494.213	315.8
2497.93	313.8
2501.644	320.8
2505.355	320.8
2509.062	301.8
2512.766	305.8
2516.467	308.8
2520.165	303.8
2523.859	304.8
2527.551	296.8
2531.239	279.8
2534.923	283.8
2538.605	271.8
2542.283	279.8
2545.958	260.8
2549.63	268.8
2553.299	279.8
2556.964	269.8
2560.626	266.8
2564.285	252.8
2567.941	256.8
2571.594	260.8
2575.243	263.8
2578.89	259.8
2582.533	243.8
2586.173	240.8
2589.809	229.8
2593.443	239.8
2597.073	228.8
2600.701	229.8
2604.325	227.8
2607.946	222.8
2611.564	218.8
2615.178	224.8
2618.79	220.8
2622.398	225.8
2626.004	223.8
2629.606	218.8
2633.205	206.8
2636.801	203.8
2640.394	221.8
2643.983	208.8
2647.57	213.8
2651.153	207.8
2654.734	198.8
2658.311	195.8
2661.885	189.8
2665.456	206.8
2669.025	198.8
2672.589	192.8
2676.151	194.8
2679.71	194.8
2683.266	181.8
2686.819	176.8
2690.368	183.8
2693.915	178.8
2697.458	179.8
2700.999	170.8
2704.536	174.8
2708.071	161.8
2711.602	161.8
2715.13	165.8
2718.656	154.8
2722.178	159.8
2725.697	156.8
2729.214	150.8
2732.727	158.8
2736.237	149.8
2739.744	134.8
2743.249	140.8
2746.75	140.8
2750.248	148.8
2753.743	136.8
2757.236	128.8
2760.725	133.8
2764.211	128.8
2767.695	124.8
2771.175	125.8
2774.652	117.8
2778.127	122.8
2781.598	120.8
2785.067	138.8
2788.532	120.8
2791.995	126.8
2795.455	116.8
2798.911	122.8
2802.365	126.8
2805.816	129.8
2809.264	122.8
2812.709	132.8
2816.151	129.8
2819.59	137.8
2823.026	133.8
2826.46	125.8
2829.89	121.8
2833.318	130.8
2836.742	130.8
2840.164	130.8
2843.583	133.8
2846.999	134.8
2850.412	134.8
2853.822	135.8
2857.229	137.8
2860.634	144.8
2864.035	148.8
2867.434	148.8
2870.83	148.8
2874.223	162.8
2877.613	155.8
2881	170.8
2884.385	164.8
2887.766	155.8
2891.145	170.8
2894.521	169.8
2897.894	179.8
2901.264	175.8
2904.631	172.8
2907.996	173.8
2911.358	174.8
2914.717	183.8
2918.073	193.8
2921.426	193.8
2924.777	196.8
2928.124	198.8
2931.469	203.8
2934.811	205.8
2938.15	217.8
2941.487	216.8
2944.821	221.8
2948.152	222.8
2951.48	220.8
2954.805	217.8
2958.128	214.8
2961.447	215.8
2964.765	212.8
2968.079	211.8
2971.39	209.8
2974.699	220.8
2978.005	216.8
2981.308	220.8
2984.609	220.8
2987.907	218.8
2991.202	223.8
2994.494	218.8
2997.784	230.8
3001.07	229.8
3004.355	236.8
3007.636	241.8
3010.915	247.8
3014.191	241.8
3017.464	244.8
3020.734	255.8
3024.002	250.8
3027.267	260.8
3030.53	265.8
3033.789	267.8
3037.046	275.8
3040.301	273.8
3043.552	290.8
3046.801	303.8
3050.048	311.8
3053.291	310.8
3056.532	326.8
3059.771	341.8
3063.006	356.8
3066.239	364.8
3069.469	382.8
3072.697	384.8
3075.922	401.8
3079.144	413.8
3082.364	427.8
3085.581	423.8
3088.795	434.8
3092.007	438.8
3095.216	448.8
3098.423	463.8
3101.627	473.8
3104.828	476.8
3108.026	484.8
3111.222	499.8
3114.416	507.8
3117.607	527.8
3120.795	537.8
3123.98	544.8
3127.163	550.8
3130.344	584.8
3133.521	585.8
3136.696	590.8
3139.869	606.8
3143.039	612.8
3146.206	620.8
3149.371	634.8
3152.533	634.8
3155.693	643.8
3158.85	643.8
3162.005	659.8
3165.157	664.8
3168.306	669.8
3171.453	671.8
3174.597	676.8
3177.739	675.8
3180.878	665.8
3184.014	689.8
3187.149	674.8
3190.28	690.8
3193.409	690.8
3196.536	684.8
3199.659	700.8
3202.781	696.8
3205.9	700.8
3209.016	698.8
3212.13	692.8
3215.241	684.8
3218.35	690.8
3221.456	676.8
3224.56	677.8
3227.661	666.8
3230.76	637.8
3233.856	647.8
3236.95	635.8
3240.041	627.8
3243.13	618.8
3246.216	607.8
3249.3	593.8
3252.382	582.8
3255.46	581.8
3258.537	587.8
3261.611	569.8
3264.682	569.8
3267.751	569.8
3270.818	566.8
3273.882	573.8
3276.943	537.8
3280.002	565.8
3283.059	541.8
3286.113	555.8
3289.165	551.8
3292.214	544.8
3295.261	527.8
3298.306	523.8
3301.348	518.8
3304.387	523.8
3307.425	506.8
3310.459	503.8
3313.492	493.8
3316.521	486.8
3319.549	493.8
3322.574	484.8
3325.597	474.8
3328.617	469.8
3331.635	487.8
3334.65	482.8
3337.663	468.8
3340.674	479.8
3343.682	470.8
3346.688	463.8
3349.691	470.8
3352.692	463.8
3355.691	471.8
3358.687	448.8
3361.681	454.8
3364.673	449.8
3367.662	449.8
3370.649	440.8
3373.633	421.8
3376.615	411.8
3379.595	411.8
3382.572	407.8
3385.547	398.8
3388.52	392.8
3391.49	395.8
3394.458	389.8
3397.424	379.8
3400.387	369.8
3403.348	369.8
3406.307	358.8
3409.263	358.8
3412.217	345.8
3415.168	357.8
3418.118	355.8
3421.065	332.8
3424.009	340.8
3426.951	336.8
3429.891	326.8
3432.829	310.8
3435.764	303.8
3438.697	303.8
3441.628	293.8
3444.557	294.8
3447.483	270.8
3450.407	265.8
3453.328	247.8
3456.247	245.8
3459.164	231.8
3462.079	220.8
3464.991	212.8
3467.902	211.8
3470.809	213.8
3473.715	194.8
3476.618	180.8
3479.519	183.8
3482.418	168.8
3485.315	148.8
3488.209	144.8
3491.101	143.8
3493.99	141.8
3496.878	136.8
3499.763	120.8
3502.646	122.8
3505.527	106.8
3508.405	105.8
3511.281	101.8
3514.155	86.8
3517.027	95.8
3519.897	72.8
3522.764	69.8
3525.629	57.8
3528.492	59.8
3531.352	45.8
3534.211	48.8
3537.067	37.8
3539.921	33.8
3542.773	27.8
3545.622	19.8
3548.469	10.8
3551.315	9.8
3554.157	7.8
3556.998	-9.2
3559.837	-1.2
3562.673	-1.2
3565.507	-2.2
3568.339	-11.2
3571.169	-20.2
3573.996	-17.2
3576.822	-25.2
3579.645	-21.2
3582.466	-26.2
3585.285	-28.2
3588.101	-32.2
3590.916	-43.2
3593.728	-52.2
3596.538	-47.2
3599.346	-55.2
3602.152	-52.2
3604.956	-48.2
3607.757	-49.2
3610.556	-55.2
3613.354	-56.2
3616.149	-66.2
3618.942	-69.2
3621.732	-77.2
3624.521	-73.2
3627.307	-73.2
3630.092	-68.2
3632.874	-72.2
3635.654	-76.2
3638.432	-74.2
3641.208	-80.2
3643.982	-93.2
3646.753	-87.2
3649.523	-84.2
3652.29	-85.2
3655.055	-85.2
3657.818	-84.2
3660.579	-76.2
3663.338	-85.2
3666.095	-94.2
3668.849	-94.2
3671.602	-95.2
3674.352	-97.2
3677.101	-100.2
3679.847	-96.2
3682.591	-103.2
3685.333	-103.2
3688.073	-101.2
3690.811	-108.2
3693.547	-117.2
3696.281	-109.2
3699.013	-106.2
3701.742	-110.2
3704.47	-110.2
3707.195	-105.2
3709.919	-111.2
3712.64	-111.2
3715.359	-119.2
3718.076	-111.2
3720.792	-116.2
3723.505	-116.2
3726.216	-106.2
3728.925	-113.2
3731.632	-113.2
3734.336	-124.2
3737.039	-121.2
3739.74	-115.2
3742.439	-124.2
3745.136	-116.2
3747.83	-122.2
3750.523	-121.2
3753.213	-133.2
3755.902	-119.2
3758.589	-124.2
3761.273	-118.2
3763.956	-112.2
3766.636	-114.2
3769.315	-116.2
3771.991	-118.2
3774.665	-129.2
3777.338	-115.2
3780.008	-122.2
3782.677	-121.2
3785.343	-119.2
3788.007	-121.2
3790.67	-125.2
3793.33	-124.2
3795.989	-126.2
3798.645	-118.2
3801.299	-126.2
3803.952	-126.2
3806.602	-122.2
3809.251	-124.2
3811.897	-127.2
3814.542	-122.2
3817.184	-117.2
3819.825	-122.2
3822.463	-125.2
3825.1	-125.2
3827.735	-124.2
3830.367	-129.2
3832.998	-126.2
3835.627	-123.2
3838.253	-119.2
3840.878	-124.2
3843.501	-123.2
3846.122	-125.2
3848.741	-130.2
3851.358	-122.2
3853.973	-128.2
3856.586	-121.2
3859.197	-129.2
3861.806	-124.2
3864.414	-131.2
3867.019	-125.2
3869.622	-124.2
3872.224	-114.2
3874.823	-106.2
3877.421	-98.2
3880.016	-83.2
3882.61	-61.2
3885.202	-65.2
3887.792	-80.2
3890.38	-99.2
3892.966	-122.2
3895.55	-123.2
3898.132	-122.2
3900.713	-121.2
3903.291	-129.2
3905.868	-133.2
3908.442	-124.2
3911.015	-133.2
3913.586	-128.2
3916.155	-129.2
3918.722	-127.2
3921.287	-126.2
3923.85	-125.2
3926.411	-133.2
3928.971	-127.2
3931.528	-129.2
3934.084	-124.2
3936.638	-121.2
3939.19	-130.2
3941.74	-128.2
3944.288	-132.2
3946.834	-126.2
3949.378	-124.2
3951.921	-133.2
3954.462	-135.2
3957	-128.2
3959.537	-118.2
3962.072	-130.2
3964.606	-120.2
3967.137	-131.2
3969.667	-130.2
3972.194	-132.2
3974.72	-129.2
3977.244	-129.2
3979.766	-125.2
3982.286	-124.2
3984.805	-126.2
3987.321	-121.2
3989.836	-123.2
3992.349	-126.2
3994.86	-93.2
3997.369	-43.2
3999.877	-125.2
4002.382	-123.2
4004.886	-131.2
4007.388	-131.2
4009.888	-125.2
4012.386	-129.2
4014.883	-127.2
4017.377	-130.2
4019.87	-125.2
4022.361	-132.2
4024.85	-126.2
4027.338	-125.2
4029.823	-127.2
4032.307	-124.2
4034.789	-128.2
4037.269	-123.2
4039.747	-124.2
4042.224	-126.2
4044.699	-130.2
4047.172	-125.2
4049.643	-124.2
4052.112	-124.2
4054.58	-129.2
4057.046	-125.2
4059.51	-128.2
4061.972	-122.2
4064.432	-121.2
4066.891	-128.2
4069.348	-123.2
4071.803	-136.2
4074.256	-132.2
4076.708	-124.2
4079.158	-124.2
4081.606	-120.2
4084.052	-125.2
4086.497	-123.2
4088.939	-122.2
4091.38	-130.2
4093.819	-123.2
4096.257	-133.2
4098.693	-129.2
4101.127	-134.2
4103.559	-129.2
4105.989	-9.2
4108.418	-10.2
4110.845	-9.2
4113.27	-9.2
4115.694	-18.2
4118.115	-8.2
4120.535	-128.2
4122.954	-127.2
4125.37	-123.2
4127.785	-128.2
4130.198	-127.2
4132.609	-124.2
4135.019	-132.2
4137.427	-136.2
4139.833	-134.2
4142.237	-132.2
