Data from 2018-2-8_conc=5_n=2_RamanShift_03.txt Node
Date: Mon Mar 12 15:54:58 IST 2018
User: aro
Spectrometer: QEPB0276
Trigger mode: 0
Integration Time (sec): 3.000000E1
Scans to average: 1
Electric dark correction enabled: true
Nonlinearity correction enabled: false
Boxcar width: 0
XAxis mode: Raman Shifts
Number of Pixels in Spectrum: 1044
>>>>>Begin Spectral Data<<<<<
160.701	20.1
166.742	43.1
172.777	121.1
178.805	340.1
184.826	894.1
190.841	1884.1
196.849	3110.1
202.85	4066.1
208.845	4431.1
214.833	4460.1
220.815	4397.1
226.789	4389.1
232.758	4407.1
238.719	4422.1
244.674	4383.1
250.623	4334.1
256.565	4302.1
262.5	4262.1
268.429	4216.1
274.351	4195.1
280.267	4162.1
286.176	4133.1
292.079	4135.1
297.975	4120.1
303.865	4095.1
309.748	4084.1
315.625	4085.1
321.495	4112.1
327.359	4106.1
333.217	4103.1
339.068	4088.1
344.912	4101.1
350.751	4126.1
356.583	4135.1
362.408	4118.1
368.227	4156.1
374.04	4176.1
379.847	4186.1
385.647	4174.1
391.44	4225.1
397.228	4239.1
403.009	4273.1
408.784	4276.1
414.553	4267.1
420.315	4315.1
426.071	4305.1
431.821	4321.1
437.565	4273.1
443.302	4287.1
449.033	4280.1
454.758	4242.1
460.477	4232.1
466.189	4201.1
471.896	4180.1
477.596	4150.1
483.29	4134.1
488.978	4115.1
494.66	4108.1
500.335	4051.1
506.005	3925.1
511.668	3774.1
517.325	3652.1
522.977	3562.1
528.622	3516.1
534.261	3445.1
539.894	3379.1
545.521	3332.1
551.141	3350.1
556.756	3327.1
562.365	3286.1
567.968	3255.1
573.565	3234.1
579.155	3241.1
584.74	3219.1
590.319	3193.1
595.892	3195.1
601.459	3154.1
607.02	3184.1
612.575	3138.1
618.124	3137.1
623.667	3089.1
629.204	3089.1
634.735	3051.1
640.261	3003.1
645.781	2996.1
651.294	3002.1
656.802	2985.1
662.304	2972.1
667.8	2955.1
673.29	2968.1
678.775	2962.1
684.254	2925.1
689.726	2925.1
695.193	2924.1
700.655	2889.1
706.11	2878.1
711.56	2866.1
717.004	2848.1
722.442	2842.1
727.874	2826.1
733.301	2817.1
738.722	2797.1
744.137	2785.1
749.547	2805.1
754.951	2787.1
760.349	2799.1
765.741	2792.1
771.128	2820.1
776.509	2836.1
781.885	2843.1
787.254	2868.1
792.618	2867.1
797.977	2852.1
803.33	2834.1
808.677	2814.1
814.019	2794.1
819.355	2762.1
824.686	2754.1
830.011	2702.1
835.33	2747.1
840.644	2721.1
845.952	2711.1
851.255	2723.1
856.552	2695.1
861.844	2681.1
867.13	2657.1
872.41	2671.1
877.686	2640.1
882.955	2617.1
888.219	2594.1
893.478	2560.1
898.731	2505.1
903.979	2496.1
909.221	2471.1
914.458	2470.1
919.69	2447.1
924.916	2474.1
930.136	2477.1
935.351	2464.1
940.561	2499.1
945.766	2456.1
950.965	2434.1
956.158	2435.1
961.347	2425.1
966.529	2377.1
971.707	2350.1
976.879	2321.1
982.046	2289.1
987.208	2298.1
992.364	2296.1
997.515	2295.1
1002.66	2334.1
1007.801	2349.1
1012.936	2360.1
1018.066	2374.1
1023.19	2377.1
1028.309	2372.1
1033.423	2380.1
1038.532	2356.1
1043.636	2336.1
1048.734	2306.1
1053.827	2283.1
1058.915	2247.1
1063.998	2241.1
1069.075	2239.1
1074.147	2237.1
1079.214	2245.1
1084.276	2242.1
1089.333	2266.1
1094.385	2290.1
1099.431	2266.1
1104.472	2270.1
1109.509	2248.1
1114.54	2227.1
1119.565	2197.1
1124.586	2163.1
1129.602	2135.1
1134.613	2115.1
1139.618	2091.1
1144.619	2099.1
1149.614	2096.1
1154.604	2112.1
1159.589	2108.1
1164.57	2125.1
1169.545	2124.1
1174.515	2129.1
1179.48	2111.1
1184.44	2092.1
1189.395	2070.1
1194.345	2074.1
1199.29	2044.1
1204.23	2046.1
1209.165	2035.1
1214.095	2049.1
1219.021	2088.1
1223.941	2084.1
1228.856	2107.1
1233.766	2107.1
1238.672	2115.1
1243.572	2091.1
1248.467	2069.1
1253.358	2061.1
1258.244	2024.1
1263.124	1989.1
1268	1947.1
1272.871	1919.1
1277.737	1918.1
1282.599	1896.1
1287.455	1896.1
1292.306	1912.1
1297.153	1921.1
1301.995	1925.1
1306.832	1951.1
1311.664	1963.1
1316.491	1953.1
1321.314	1971.1
1326.132	1938.1
1330.945	1930.1
1335.753	1893.1
1340.556	1878.1
1345.354	1836.1
1350.148	1810.1
1354.937	1794.1
1359.722	1744.1
1364.501	1720.1
1369.276	1687.1
1374.046	1685.1
1378.811	1655.1
1383.572	1640.1
1388.327	1649.1
1393.079	1653.1
1397.825	1646.1
1402.567	1633.1
1407.304	1648.1
1412.036	1649.1
1416.764	1639.1
1421.487	1653.1
1426.205	1660.1
1430.919	1663.1
1435.628	1667.1
1440.333	1700.1
1445.032	1686.1
1449.727	1715.1
1454.418	1722.1
1459.104	1700.1
1463.785	1688.1
1468.462	1673.1
1473.134	1637.1
1477.802	1610.1
1482.465	1566.1
1487.123	1539.1
1491.777	1521.1
1496.426	1499.1
1501.071	1479.1
1505.711	1477.1
1510.347	1501.1
1514.978	1486.1
1519.604	1490.1
1524.226	1481.1
1528.844	1455.1
1533.457	1433.1
1538.065	1444.1
1542.669	1435.1
1547.269	1437.1
1551.864	1432.1
1556.454	1468.1
1561.041	1461.1
1565.622	1464.1
1570.199	1466.1
1574.772	1484.1
1579.34	1507.1
1583.904	1519.1
1588.464	1548.1
1593.019	1539.1
1597.569	1553.1
1602.115	1533.1
1606.657	1515.1
1611.195	1527.1
1615.728	1523.1
1620.256	1520.1
1624.78	1525.1
1629.3	1491.1
1633.816	1517.1
1638.327	1527.1
1642.834	1527.1
1647.336	1545.1
1651.834	1544.1
1656.328	1549.1
1660.817	1551.1
1665.302	1517.1
1669.783	1504.1
1674.259	1474.1
1678.732	1445.1
1683.199	1415.1
1687.663	1362.1
1692.122	1310.1
1696.577	1276.1
1701.028	1217.1
1705.474	1174.1
1709.917	1134.1
1714.355	1120.1
1718.788	1105.1
1723.218	1124.1
1727.643	1112.1
1732.064	1089.1
1736.481	1093.1
1740.893	1060.1
1745.301	1046.1
1749.705	1026.1
1754.105	1011.1
1758.501	1014.1
1762.893	1000.1
1767.28	966.1
1771.663	962.1
1776.042	953.1
1780.417	941.1
1784.787	942.1
1789.154	923.1
1793.516	920.1
1797.874	899.1
1802.228	886.1
1806.578	879.1
1810.924	869.1
1815.266	863.1
1819.603	851.1
1823.937	858.1
1828.266	843.1
1832.591	845.1
1836.913	860.1
1841.23	859.1
1845.543	856.1
1849.852	855.1
1854.156	852.1
1858.457	874.1
1862.754	860.1
1867.047	844.1
1871.335	871.1
1875.62	856.1
1879.9	857.1
1884.177	851.1
1888.449	831.1
1892.718	827.1
1896.982	825.1
1901.243	816.1
1905.499	805.1
1909.752	789.1
1914	777.1
1918.245	791.1
1922.485	767.1
1926.722	771.1
1930.954	757.1
1935.183	753.1
1939.408	742.1
1943.628	745.1
1947.845	737.1
1952.058	741.1
1956.267	726.1
1960.472	718.1
1964.673	707.1
1968.87	702.1
1973.063	698.1
1977.252	687.1
1981.438	698.1
1985.619	686.1
1989.797	684.1
1993.971	704.1
1998.14	698.1
2002.306	689.1
2006.469	697.1
2010.627	699.1
2014.781	708.1
2018.932	702.1
2023.078	707.1
2027.221	698.1
2031.36	688.1
2035.495	663.1
2039.627	668.1
2043.754	656.1
2047.878	640.1
2051.998	655.1
2056.114	642.1
2060.226	645.1
2064.334	648.1
2068.439	644.1
2072.54	637.1
2076.637	634.1
2080.73	624.1
2084.82	624.1
2088.906	629.1
2092.988	619.1
2097.066	611.1
2101.14	608.1
2105.211	604.1
2109.278	591.1
2113.342	587.1
2117.401	576.1
2121.457	569.1
2125.509	567.1
2129.558	560.1
2133.602	578.1
2137.643	561.1
2141.681	563.1
2145.714	550.1
2149.744	553.1
2153.77	552.1
2157.793	559.1
2161.812	552.1
2165.827	554.1
2169.838	550.1
2173.846	516.1
2177.851	527.1
2181.851	510.1
2185.848	512.1
2189.841	515.1
2193.831	506.1
2197.817	500.1
2201.799	489.1
2205.778	497.1
2209.753	496.1
2213.725	498.1
2217.693	491.1
2221.657	491.1
2225.618	495.1
2229.575	495.1
2233.529	490.1
2237.479	488.1
2241.425	472.1
2245.368	455.1
2249.307	454.1
2253.243	444.1
2257.175	454.1
2261.104	452.1
2265.029	430.1
2268.95	434.1
2272.868	432.1
2276.783	419.1
2280.694	412.1
2284.601	412.1
2288.505	406.1
2292.405	399.1
2296.302	404.1
2300.195	393.1
2304.085	383.1
2307.971	374.1
2311.854	374.1
2315.734	359.1
2319.609	364.1
2323.482	373.1
2327.351	371.1
2331.216	378.1
2335.078	394.1
2338.937	371.1
2342.792	351.1
2346.643	355.1
2350.492	350.1
2354.336	343.1
2358.178	352.1
2362.015	356.1
2365.85	345.1
2369.681	346.1
2373.508	349.1
2377.333	358.1
2381.153	350.1
2384.971	359.1
2388.785	350.1
2392.595	348.1
2396.402	347.1
2400.206	343.1
2404.007	348.1
2407.804	343.1
2411.597	339.1
2415.388	335.1
2419.174	327.1
2422.958	318.1
2426.738	330.1
2430.515	323.1
2434.289	340.1
2438.059	316.1
2441.825	313.1
2445.589	320.1
2449.349	308.1
2453.106	306.1
2456.859	298.1
2460.61	309.1
2464.356	295.1
2468.1	297.1
2471.84	281.1
2475.577	286.1
2479.311	276.1
2483.041	281.1
2486.768	287.1
2490.492	279.1
2494.213	281.1
2497.93	274.1
2501.644	273.1
2505.355	273.1
2509.062	270.1
2512.766	271.1
2516.467	263.1
2520.165	260.1
2523.859	253.1
2527.551	254.1
2531.239	242.1
2534.923	245.1
2538.605	240.1
2542.283	237.1
2545.958	236.1
2549.63	242.1
2553.299	231.1
2556.964	238.1
2560.626	231.1
2564.285	223.1
2567.941	228.1
2571.594	219.1
2575.243	223.1
2578.89	215.1
2582.533	211.1
2586.173	211.1
2589.809	204.1
2593.443	208.1
2597.073	206.1
2600.701	193.1
2604.325	192.1
2607.946	194.1
2611.564	195.1
2615.178	201.1
2618.79	190.1
2622.398	194.1
2626.004	196.1
2629.606	184.1
2633.205	182.1
2636.801	184.1
2640.394	177.1
2643.983	189.1
2647.57	175.1
2651.153	180.1
2654.734	175.1
2658.311	172.1
2661.885	165.1
2665.456	171.1
2669.025	169.1
2672.589	161.1
2676.151	170.1
2679.71	163.1
2683.266	158.1
2686.819	156.1
2690.368	158.1
2693.915	153.1
2697.458	148.1
2700.999	148.1
2704.536	139.1
2708.071	137.1
2711.602	141.1
2715.13	153.1
2718.656	133.1
2722.178	127.1
2725.697	125.1
2729.214	121.1
2732.727	129.1
2736.237	132.1
2739.744	122.1
2743.249	127.1
2746.75	117.1
2750.248	113.1
2753.743	111.1
2757.236	108.1
2760.725	110.1
2764.211	101.1
2767.695	98.1
2771.175	104.1
2774.652	94.1
2778.127	105.1
2781.598	91.1
2785.067	104.1
2788.532	102.1
2791.995	111.1
2795.455	107.1
2798.911	93.1
2802.365	108.1
2805.816	108.1
2809.264	100.1
2812.709	104.1
2816.151	107.1
2819.59	99.1
2823.026	104.1
2826.46	103.1
2829.89	93.1
2833.318	102.1
2836.742	107.1
2840.164	104.1
2843.583	100.1
2846.999	111.1
2850.412	106.1
2853.822	105.1
2857.229	102.1
2860.634	115.1
2864.035	117.1
2867.434	116.1
2870.83	126.1
2874.223	132.1
2877.613	125.1
2881	142.1
2884.385	219.1
2887.766	146.1
2891.145	127.1
2894.521	129.1
2897.894	134.1
2901.264	143.1
2904.631	131.1
2907.996	134.1
2911.358	140.1
2914.717	138.1
2918.073	139.1
2921.426	149.1
2924.777	158.1
2928.124	158.1
2931.469	155.1
2934.811	158.1
2938.15	163.1
2941.487	167.1
2944.821	164.1
2948.152	161.1
2951.48	176.1
2954.805	168.1
2958.128	170.1
2961.447	156.1
2964.765	167.1
2968.079	163.1
2971.39	166.1
2974.699	161.1
2978.005	160.1
2981.308	169.1
2984.609	172.1
2987.907	158.1
2991.202	172.1
2994.494	165.1
2997.784	157.1
3001.07	173.1
3004.355	175.1
3007.636	180.1
3010.915	180.1
3014.191	182.1
3017.464	183.1
3020.734	184.1
3024.002	183.1
3027.267	194.1
3030.53	192.1
3033.789	209.1
3037.046	209.1
3040.301	210.1
3043.552	228.1
3046.801	232.1
3050.048	237.1
3053.291	232.1
3056.532	241.1
3059.771	264.1
3063.006	259.1
3066.239	270.1
3069.469	283.1
3072.697	293.1
3075.922	300.1
3079.144	308.1
3082.364	314.1
3085.581	321.1
3088.795	327.1
3092.007	325.1
3095.216	337.1
3098.423	352.1
3101.627	346.1
3104.828	359.1
3108.026	369.1
3111.222	387.1
3114.416	379.1
3117.607	396.1
3120.795	405.1
3123.98	399.1
3127.163	418.1
3130.344	435.1
3133.521	443.1
3136.696	460.1
3139.869	460.1
3143.039	470.1
3146.206	467.1
3149.371	469.1
3152.533	483.1
3155.693	486.1
3158.85	494.1
3162.005	511.1
3165.157	495.1
3168.306	501.1
3171.453	498.1
3174.597	503.1
3177.739	508.1
3180.878	522.1
3184.014	529.1
3187.149	515.1
3190.28	517.1
3193.409	517.1
3196.536	521.1
3199.659	509.1
3202.781	526.1
3205.9	528.1
3209.016	534.1
3212.13	523.1
3215.241	527.1
3218.35	518.1
3221.456	495.1
3224.56	499.1
3227.661	491.1
3230.76	491.1
3233.856	485.1
3236.95	477.1
3240.041	457.1
3243.13	461.1
3246.216	452.1
3249.3	441.1
3252.382	446.1
3255.46	426.1
3258.537	429.1
3261.611	433.1
3264.682	420.1
3267.751	428.1
3270.818	412.1
3273.882	416.1
3276.943	401.1
3280.002	401.1
3283.059	420.1
3286.113	400.1
3289.165	397.1
3292.214	394.1
3295.261	386.1
3298.306	370.1
3301.348	383.1
3304.387	365.1
3307.425	377.1
3310.459	364.1
3313.492	359.1
3316.521	363.1
3319.549	354.1
3322.574	352.1
3325.597	347.1
3328.617	352.1
3331.635	342.1
3334.65	347.1
3337.663	344.1
3340.674	339.1
3343.682	342.1
3346.688	335.1
3349.691	343.1
3352.692	338.1
3355.691	339.1
3358.687	325.1
3361.681	339.1
3364.673	327.1
3367.662	321.1
3370.649	317.1
3373.633	299.1
3376.615	306.1
3379.595	290.1
3382.572	296.1
3385.547	278.1
3388.52	278.1
3391.49	284.1
3394.458	276.1
3397.424	267.1
3400.387	269.1
3403.348	270.1
3406.307	255.1
3409.263	255.1
3412.217	259.1
3415.168	259.1
3418.118	248.1
3421.065	240.1
3424.009	237.1
3426.951	234.1
3429.891	216.1
3432.829	226.1
3435.764	209.1
3438.697	213.1
3441.628	201.1
3444.557	189.1
3447.483	183.1
3450.407	165.1
3453.328	168.1
3456.247	161.1
3459.164	162.1
3462.079	146.1
3464.991	143.1
3467.902	136.1
3470.809	130.1
3473.715	129.1
3476.618	120.1
3479.519	113.1
3482.418	116.1
3485.315	94.1
3488.209	94.1
3491.101	95.1
3493.99	96.1
3496.878	84.1
3499.763	76.1
3502.646	67.1
3505.527	60.1
3508.405	59.1
3511.281	59.1
3514.155	52.1
3517.027	39.1
3519.897	33.1
3522.764	27.1
3525.629	23.1
3528.492	19.1
3531.352	19.1
3534.211	9.1
3537.067	9.1
3539.921	9.1
3542.773	-0.9
3545.622	-14.9
3548.469	-12.9
3551.315	-6.9
3554.157	-16.9
3556.998	-20.9
3559.837	-22.9
3562.673	-28.9
3565.507	-21.9
3568.339	-39.9
3571.169	-41.9
3573.996	-46.9
3576.822	-39.9
3579.645	-37.9
3582.466	-43.9
3585.285	-50.9
3588.101	-39.9
3590.916	-52.9
3593.728	-63.9
3596.538	-56.9
3599.346	-62.9
3602.152	-61.9
3604.956	-64.9
3607.757	-55.9
3610.556	-72.9
3613.354	-64.9
3616.149	-77.9
3618.942	-79.9
3621.732	-72.9
3624.521	-74.9
3627.307	-74.9
3630.092	-74.9
3632.874	-79.9
3635.654	-86.9
3638.432	-81.9
3641.208	-83.9
3643.982	-84.9
3646.753	-92.9
3649.523	-90.9
3652.29	-87.9
3655.055	-87.9
3657.818	-93.9
3660.579	-97.9
3663.338	-93.9
3666.095	-97.9
3668.849	-96.9
3671.602	-97.9
3674.352	-101.9
3677.101	-106.9
3679.847	-102.9
3682.591	-107.9
3685.333	-99.9
3688.073	-99.9
3690.811	-101.9
3693.547	-109.9
3696.281	-109.9
3699.013	-114.9
3701.742	-113.9
3704.47	-111.9
3707.195	-107.9
3709.919	-109.9
3712.64	-110.9
3715.359	-118.9
3718.076	-115.9
3720.792	-115.9
3723.505	-115.9
3726.216	-116.9
3728.925	-119.9
3731.632	-109.9
3734.336	-120.9
3737.039	-116.9
3739.74	-116.9
3742.439	-124.9
3745.136	-112.9
3747.83	-122.9
3750.523	-120.9
3753.213	-127.9
3755.902	-113.9
3758.589	-121.9
3761.273	-116.9
3763.956	-116.9
3766.636	-116.9
3769.315	-116.9
3771.991	-119.9
3774.665	-123.9
3777.338	-113.9
3780.008	-117.9
3782.677	-118.9
3785.343	-119.9
3788.007	-122.9
3790.67	-124.9
3793.33	-119.9
3795.989	-118.9
3798.645	-117.9
3801.299	-123.9
3803.952	-126.9
3806.602	-115.9
3809.251	-127.9
3811.897	-124.9
3814.542	-127.9
3817.184	-118.9
3819.825	-121.9
3822.463	-119.9
3825.1	-119.9
3827.735	-118.9
3830.367	-120.9
3832.998	-132.9
3835.627	-124.9
3838.253	-118.9
3840.878	-120.9
3843.501	-114.9
3846.122	-125.9
3848.741	-129.9
3851.358	-122.9
3853.973	-124.9
3856.586	-123.9
3859.197	-129.9
3861.806	-126.9
3864.414	-124.9
3867.019	-119.9
3869.622	-120.9
3872.224	-113.9
3874.823	-102.9
3877.421	-92.9
3880.016	-69.9
3882.61	-43.9
3885.202	-37.9
3887.792	-55.9
3890.38	-83.9
3892.966	-110.9
3895.55	-117.9
3898.132	-120.9
3900.713	-124.9
3903.291	-126.9
3905.868	-125.9
3908.442	-120.9
3911.015	-120.9
3913.586	-122.9
3916.155	-128.9
3918.722	-126.9
3921.287	-123.9
3923.85	-123.9
3926.411	-123.9
3928.971	-119.9
3931.528	-125.9
3934.084	-119.9
3936.638	-118.9
3939.19	-132.9
3941.74	-126.9
3944.288	-125.9
3946.834	-119.9
3949.378	-122.9
3951.921	-123.9
3954.462	-128.9
3957	-126.9
3959.537	-115.9
3962.072	-127.9
3964.606	-120.9
3967.137	-120.9
3969.667	-125.9
3972.194	-129.9
3974.72	-124.9
3977.244	-124.9
3979.766	-125.9
3982.286	-124.9
3984.805	-125.9
3987.321	-126.9
3989.836	-118.9
3992.349	-121.9
3994.86	-123.9
3997.369	-125.9
3999.877	-124.9
4002.382	-123.9
4004.886	-125.9
4007.388	-123.9
4009.888	-119.9
4012.386	-121.9
4014.883	-125.9
4017.377	-127.9
4019.87	-119.9
4022.361	-127.9
4024.85	-123.9
4027.338	-124.9
4029.823	-115.9
4032.307	-122.9
4034.789	-122.9
4037.269	-121.9
4039.747	-125.9
4042.224	-120.9
4044.699	-124.9
4047.172	-120.9
4049.643	-119.9
4052.112	-125.9
4054.58	-121.9
4057.046	-121.9
4059.51	-125.9
4061.972	-124.9
4064.432	-122.9
4066.891	-124.9
4069.348	-118.9
4071.803	-123.9
4074.256	-122.9
4076.708	-123.9
4079.158	-116.9
4081.606	-118.9
4084.052	-124.9
4086.497	-121.9
4088.939	-115.9
4091.38	-122.9
4093.819	-121.9
4096.257	-127.9
4098.693	-125.9
4101.127	-127.9
4103.559	-130.9
4105.989	20.1
4108.418	14.1
4110.845	16.1
4113.27	13.1
4115.694	10.1
4118.115	6.1
4120.535	-125.9
4122.954	-128.9
4125.37	-121.9
4127.785	-121.9
4130.198	-123.9
4132.609	-121.9
4135.019	-128.9
4137.427	-134.9
4139.833	-129.9
4142.237	-130.9
