Data from 2018-2-8_conc=0_n=5_RamanShift_05.txt Node
Date: Mon Mar 12 13:35:59 IST 2018
User: aro
Spectrometer: QEPB0276
Trigger mode: 0
Integration Time (sec): 3.000000E1
Scans to average: 1
Electric dark correction enabled: true
Nonlinearity correction enabled: false
Boxcar width: 0
XAxis mode: Raman Shifts
Number of Pixels in Spectrum: 1044
>>>>>Begin Spectral Data<<<<<
160.701	26.1
166.742	56.1
172.777	134.1
178.805	432.1
184.826	1130.1
190.841	2432.1
196.849	4082.1
202.85	5394.1
208.845	5876.1
214.833	5861.1
220.815	5748.1
226.789	5743.1
232.758	5736.1
238.719	5728.1
244.674	5645.1
250.623	5596.1
256.565	5528.1
262.5	5420.1
268.429	5326.1
274.351	5280.1
280.267	5195.1
286.176	5163.1
292.079	5176.1
297.975	5116.1
303.865	5117.1
309.748	5061.1
315.625	5093.1
321.495	5041.1
327.359	5050.1
333.217	5042.1
339.068	5074.1
344.912	5060.1
350.751	5050.1
356.583	5079.1
362.408	5081.1
368.227	5086.1
374.04	5079.1
379.847	5110.1
385.647	5184.1
391.44	5182.1
397.228	5175.1
403.009	5258.1
408.784	5276.1
414.553	5218.1
420.315	5285.1
426.071	5265.1
431.821	5270.1
437.565	5250.1
443.302	5272.1
449.033	5259.1
454.758	5214.1
460.477	5234.1
466.189	5177.1
471.896	5113.1
477.596	5105.1
483.29	5087.1
488.978	5088.1
494.66	5043.1
500.335	4989.1
506.005	4892.1
511.668	4737.1
517.325	4580.1
522.977	4477.1
528.622	4390.1
534.261	4283.1
539.894	4249.1
545.521	4217.1
551.141	4221.1
556.756	4171.1
562.365	4138.1
567.968	4127.1
573.565	4063.1
579.155	4094.1
584.74	4062.1
590.319	4035.1
595.892	4026.1
601.459	4029.1
607.02	4001.1
612.575	3978.1
618.124	3939.1
623.667	3912.1
629.204	3860.1
634.735	3830.1
640.261	3802.1
645.781	3766.1
651.294	3794.1
656.802	3796.1
662.304	3780.1
667.8	3758.1
673.29	3740.1
678.775	3743.1
684.254	3710.1
689.726	3704.1
695.193	3690.1
700.655	3695.1
706.11	3647.1
711.56	3649.1
717.004	3597.1
722.442	3589.1
727.874	3580.1
733.301	3566.1
738.722	3547.1
744.137	3542.1
749.547	3526.1
754.951	3534.1
760.349	3508.1
765.741	3531.1
771.128	3549.1
776.509	3596.1
781.885	3596.1
787.254	3607.1
792.618	3625.1
797.977	3584.1
803.33	3556.1
808.677	3541.1
814.019	3491.1
819.355	3487.1
824.686	3462.1
830.011	3450.1
835.33	3429.1
840.644	3427.1
845.952	3437.1
851.255	3416.1
856.552	3396.1
861.844	3351.1
867.13	3363.1
872.41	3357.1
877.686	3338.1
882.955	3317.1
888.219	3297.1
893.478	3271.1
898.731	3184.1
903.979	3145.1
909.221	3129.1
914.458	3099.1
919.69	3123.1
924.916	3123.1
930.136	3096.1
935.351	3087.1
940.561	3143.1
945.766	3113.1
950.965	3082.1
956.158	3067.1
961.347	3039.1
966.529	3020.1
971.707	2974.1
976.879	2924.1
982.046	2887.1
987.208	2878.1
992.364	2881.1
997.515	2900.1
1002.66	2920.1
1007.801	2935.1
1012.936	2972.1
1018.066	2993.1
1023.19	2953.1
1028.309	2993.1
1033.423	2987.1
1038.532	2978.1
1043.636	2949.1
1048.734	2916.1
1053.827	2877.1
1058.915	2844.1
1063.998	2837.1
1069.075	2828.1
1074.147	2828.1
1079.214	2833.1
1084.276	2831.1
1089.333	2835.1
1094.385	2874.1
1099.431	2857.1
1104.472	2872.1
1109.509	2838.1
1114.54	2799.1
1119.565	2758.1
1124.586	2733.1
1129.602	2679.1
1134.613	2674.1
1139.618	2623.1
1144.619	2660.1
1149.614	2641.1
1154.604	2665.1
1159.589	2654.1
1164.57	2656.1
1169.545	2685.1
1174.515	2688.1
1179.48	2670.1
1184.44	2625.1
1189.395	2600.1
1194.345	2594.1
1199.29	2593.1
1204.23	2572.1
1209.165	2555.1
1214.095	2603.1
1219.021	2586.1
1223.941	2627.1
1228.856	2635.1
1233.766	2635.1
1238.672	2659.1
1243.572	2634.1
1248.467	2640.1
1253.358	2611.1
1258.244	2541.1
1263.124	2526.1
1268	2485.1
1272.871	2456.1
1277.737	2463.1
1282.599	2432.1
1287.455	2429.1
1292.306	2424.1
1297.153	2442.1
1301.995	2446.1
1306.832	2467.1
1311.664	2491.1
1316.491	2453.1
1321.314	2478.1
1326.132	2468.1
1330.945	2445.1
1335.753	2373.1
1340.556	2383.1
1345.354	2332.1
1350.148	2270.1
1354.937	2253.1
1359.722	2208.1
1364.501	2171.1
1369.276	2135.1
1374.046	2082.1
1378.811	2067.1
1383.572	2072.1
1388.327	2074.1
1393.079	2047.1
1397.825	2072.1
1402.567	2075.1
1407.304	2053.1
1412.036	2087.1
1416.764	2089.1
1421.487	2072.1
1426.205	2099.1
1430.919	2091.1
1435.628	2107.1
1440.333	2133.1
1445.032	2139.1
1449.727	2171.1
1454.418	2181.1
1459.104	2166.1
1463.785	2124.1
1468.462	2094.1
1473.134	2046.1
1477.802	1990.1
1482.465	1964.1
1487.123	1931.1
1491.777	1889.1
1496.426	1872.1
1501.071	1860.1
1505.711	1858.1
1510.347	1852.1
1514.978	1829.1
1519.604	1818.1
1524.226	1830.1
1528.844	1811.1
1533.457	1787.1
1538.065	1781.1
1542.669	1804.1
1547.269	1809.1
1551.864	1793.1
1556.454	1815.1
1561.041	1835.1
1565.622	1844.1
1570.199	1850.1
1574.772	1850.1
1579.34	1893.1
1583.904	1927.1
1588.464	1925.1
1593.019	1949.1
1597.569	1944.1
1602.115	1939.1
1606.657	1944.1
1611.195	1940.1
1615.728	1936.1
1620.256	1915.1
1624.78	1931.1
1629.3	1932.1
1633.816	1941.1
1638.327	1963.1
1642.834	1951.1
1647.336	1963.1
1651.834	1951.1
1656.328	1967.1
1660.817	1961.1
1665.302	1951.1
1669.783	1913.1
1674.259	1842.1
1678.732	1802.1
1683.199	1753.1
1687.663	1692.1
1692.122	1641.1
1696.577	1559.1
1701.028	1491.1
1705.474	1446.1
1709.917	1392.1
1714.355	1358.1
1718.788	1347.1
1723.218	1358.1
1727.643	1346.1
1732.064	1349.1
1736.481	1349.1
1740.893	1306.1
1745.301	1286.1
1749.705	1256.1
1754.105	1231.1
1758.501	1222.1
1762.893	1195.1
1767.28	1173.1
1771.663	1151.1
1776.042	1159.1
1780.417	1135.1
1784.787	1126.1
1789.154	1109.1
1793.516	1104.1
1797.874	1088.1
1802.228	1065.1
1806.578	1044.1
1810.924	1026.1
1815.266	1038.1
1819.603	1042.1
1823.937	1030.1
1828.266	1037.1
1832.591	1040.1
1836.913	1032.1
1841.23	1027.1
1845.543	1048.1
1849.852	1017.1
1854.156	1033.1
1858.457	1038.1
1862.754	1035.1
1867.047	1037.1
1871.335	1050.1
1875.62	1031.1
1879.9	1036.1
1884.177	1017.1
1888.449	1007.1
1892.718	1004.1
1896.982	980.1
1901.243	977.1
1905.499	971.1
1909.752	949.1
1914	935.1
1918.245	921.1
1922.485	922.1
1926.722	900.1
1930.954	909.1
1935.183	914.1
1939.408	891.1
1943.628	897.1
1947.845	882.1
1952.058	873.1
1956.267	864.1
1960.472	861.1
1964.673	844.1
1968.87	834.1
1973.063	821.1
1977.252	825.1
1981.438	828.1
1985.619	830.1
1989.797	829.1
1993.971	831.1
1998.14	835.1
2002.306	839.1
2006.469	832.1
2010.627	846.1
2014.781	841.1
2018.932	850.1
2023.078	841.1
2027.221	841.1
2031.36	824.1
2035.495	815.1
2039.627	813.1
2043.754	791.1
2047.878	784.1
2051.998	791.1
2056.114	778.1
2060.226	776.1
2064.334	771.1
2068.439	775.1
2072.54	757.1
2076.637	779.1
2080.73	770.1
2084.82	756.1
2088.906	756.1
2092.988	754.1
2097.066	755.1
2101.14	718.1
2105.211	718.1
2109.278	701.1
2113.342	692.1
2117.401	698.1
2121.457	697.1
2125.509	688.1
2129.558	686.1
2133.602	692.1
2137.643	686.1
2141.681	692.1
2145.714	691.1
2149.744	676.1
2153.77	687.1
2157.793	676.1
2161.812	683.1
2165.827	670.1
2169.838	666.1
2173.846	647.1
2177.851	623.1
2181.851	625.1
2185.848	619.1
2189.841	631.1
2193.831	619.1
2197.817	616.1
2201.799	611.1
2205.778	607.1
2209.753	608.1
2213.725	603.1
2217.693	602.1
2221.657	615.1
2225.618	598.1
2229.575	600.1
2233.529	594.1
2237.479	592.1
2241.425	569.1
2245.368	571.1
2249.307	564.1
2253.243	560.1
2257.175	553.1
2261.104	560.1
2265.029	525.1
2268.95	538.1
2272.868	518.1
2276.783	518.1
2280.694	507.1
2284.601	515.1
2288.505	494.1
2292.405	488.1
2296.302	483.1
2300.195	483.1
2304.085	482.1
2307.971	453.1
2311.854	455.1
2315.734	448.1
2319.609	451.1
2323.482	449.1
2327.351	436.1
2331.216	456.1
2335.078	466.1
2338.937	451.1
2342.792	426.1
2346.643	425.1
2350.492	431.1
2354.336	432.1
2358.178	428.1
2362.015	431.1
2365.85	440.1
2369.681	425.1
2373.508	436.1
2377.333	435.1
2381.153	427.1
2384.971	440.1
2388.785	430.1
2392.595	438.1
2396.402	424.1
2400.206	426.1
2404.007	421.1
2407.804	420.1
2411.597	405.1
2415.388	413.1
2419.174	410.1
2422.958	408.1
2426.738	420.1
2430.515	410.1
2434.289	399.1
2438.059	398.1
2441.825	388.1
2445.589	383.1
2449.349	388.1
2453.106	372.1
2456.859	384.1
2460.61	368.1
2464.356	365.1
2468.1	365.1
2471.84	361.1
2475.577	357.1
2479.311	351.1
2483.041	341.1
2486.768	343.1
2490.492	347.1
2494.213	353.1
2497.93	342.1
2501.644	333.1
2505.355	339.1
2509.062	327.1
2512.766	320.1
2516.467	319.1
2520.165	320.1
2523.859	329.1
2527.551	309.1
2531.239	288.1
2534.923	286.1
2538.605	299.1
2542.283	292.1
2545.958	283.1
2549.63	292.1
2553.299	284.1
2556.964	297.1
2560.626	279.1
2564.285	269.1
2567.941	277.1
2571.594	277.1
2575.243	265.1
2578.89	262.1
2582.533	261.1
2586.173	252.1
2589.809	239.1
2593.443	247.1
2597.073	250.1
2600.701	235.1
2604.325	236.1
2607.946	244.1
2611.564	237.1
2615.178	241.1
2618.79	231.1
2622.398	236.1
2626.004	238.1
2629.606	228.1
2633.205	226.1
2636.801	221.1
2640.394	225.1
2643.983	227.1
2647.57	230.1
2651.153	223.1
2654.734	212.1
2658.311	208.1
2661.885	205.1
2665.456	205.1
2669.025	201.1
2672.589	213.1
2676.151	209.1
2679.71	209.1
2683.266	189.1
2686.819	196.1
2690.368	187.1
2693.915	183.1
2697.458	177.1
2700.999	178.1
2704.536	179.1
2708.071	182.1
2711.602	160.1
2715.13	170.1
2718.656	166.1
2722.178	164.1
2725.697	155.1
2729.214	154.1
2732.727	164.1
2736.237	160.1
2739.744	150.1
2743.249	146.1
2746.75	150.1
2750.248	144.1
2753.743	147.1
2757.236	129.1
2760.725	135.1
2764.211	124.1
2767.695	127.1
2771.175	120.1
2774.652	122.1
2778.127	111.1
2781.598	116.1
2785.067	124.1
2788.532	122.1
2791.995	131.1
2795.455	121.1
2798.911	125.1
2802.365	129.1
2805.816	129.1
2809.264	125.1
2812.709	133.1
2816.151	123.1
2819.59	132.1
2823.026	138.1
2826.46	133.1
2829.89	123.1
2833.318	130.1
2836.742	137.1
2840.164	130.1
2843.583	132.1
2846.999	143.1
2850.412	137.1
2853.822	141.1
2857.229	142.1
2860.634	143.1
2864.035	148.1
2867.434	147.1
2870.83	164.1
2874.223	168.1
2877.613	178.1
2881	195.1
2884.385	196.1
2887.766	177.1
2891.145	181.1
2894.521	192.1
2897.894	191.1
2901.264	190.1
2904.631	191.1
2907.996	188.1
2911.358	199.1
2914.717	203.1
2918.073	196.1
2921.426	207.1
2924.777	218.1
2928.124	223.1
2931.469	216.1
2934.811	235.1
2938.15	242.1
2941.487	248.1
2944.821	242.1
2948.152	250.1
2951.48	242.1
2954.805	245.1
2958.128	232.1
2961.447	232.1
2964.765	235.1
2968.079	234.1
2971.39	223.1
2974.699	233.1
2978.005	239.1
2981.308	244.1
2984.609	242.1
2987.907	242.1
2991.202	239.1
2994.494	243.1
2997.784	238.1
3001.07	248.1
3004.355	256.1
3007.636	260.1
3010.915	250.1
3014.191	271.1
3017.464	267.1
3020.734	259.1
3024.002	263.1
3027.267	272.1
3030.53	275.1
3033.789	283.1
3037.046	291.1
3040.301	305.1
3043.552	320.1
3046.801	319.1
3050.048	330.1
3053.291	337.1
3056.532	346.1
3059.771	363.1
3063.006	382.1
3066.239	396.1
3069.469	399.1
3072.697	419.1
3075.922	425.1
3079.144	432.1
3082.364	438.1
3085.581	459.1
3088.795	465.1
3092.007	478.1
3095.216	485.1
3098.423	497.1
3101.627	515.1
3104.828	520.1
3108.026	521.1
3111.222	550.1
3114.416	554.1
3117.607	565.1
3120.795	578.1
3123.98	576.1
3127.163	602.1
3130.344	630.1
3133.521	624.1
3136.696	639.1
3139.869	655.1
3143.039	670.1
3146.206	664.1
3149.371	684.1
3152.533	697.1
3155.693	701.1
3158.85	695.1
3162.005	701.1
3165.157	715.1
3168.306	709.1
3171.453	718.1
3174.597	730.1
3177.739	732.1
3180.878	740.1
3184.014	725.1
3187.149	737.1
3190.28	728.1
3193.409	732.1
3196.536	744.1
3199.659	737.1
3202.781	748.1
3205.9	739.1
3209.016	747.1
3212.13	751.1
3215.241	748.1
3218.35	737.1
3221.456	721.1
3224.56	715.1
3227.661	711.1
3230.76	705.1
3233.856	691.1
3236.95	671.1
3240.041	676.1
3243.13	647.1
3246.216	645.1
3249.3	633.1
3252.382	646.1
3255.46	628.1
3258.537	619.1
3261.611	604.1
3264.682	609.1
3267.751	609.1
3270.818	613.1
3273.882	598.1
3276.943	593.1
3280.002	597.1
3283.059	586.1
3286.113	573.1
3289.165	568.1
3292.214	577.1
3295.261	558.1
3298.306	556.1
3301.348	540.1
3304.387	538.1
3307.425	539.1
3310.459	524.1
3313.492	535.1
3316.521	526.1
3319.549	518.1
3322.574	520.1
3325.597	510.1
3328.617	519.1
3331.635	505.1
3334.65	512.1
3337.663	496.1
3340.674	507.1
3343.682	504.1
3346.688	495.1
3349.691	504.1
3352.692	504.1
3355.691	502.1
3358.687	489.1
3361.681	484.1
3364.673	493.1
3367.662	478.1
3370.649	457.1
3373.633	458.1
3376.615	453.1
3379.595	447.1
3382.572	441.1
3385.547	422.1
3388.52	421.1
3391.49	415.1
3394.458	415.1
3397.424	394.1
3400.387	387.1
3403.348	399.1
3406.307	381.1
3409.263	388.1
3412.217	382.1
3415.168	365.1
3418.118	379.1
3421.065	364.1
3424.009	363.1
3426.951	348.1
3429.891	339.1
3432.829	326.1
3435.764	324.1
3438.697	314.1
3441.628	312.1
3444.557	296.1
3447.483	283.1
3450.407	274.1
3453.328	258.1
3456.247	246.1
3459.164	235.1
3462.079	228.1
3464.991	218.1
3467.902	213.1
3470.809	207.1
3473.715	199.1
3476.618	184.1
3479.519	181.1
3482.418	165.1
3485.315	152.1
3488.209	154.1
3491.101	144.1
3493.99	147.1
3496.878	137.1
3499.763	123.1
3502.646	119.1
3505.527	103.1
3508.405	96.1
3511.281	88.1
3514.155	91.1
3517.027	73.1
3519.897	70.1
3522.764	66.1
3525.629	58.1
3528.492	50.1
3531.352	44.1
3534.211	36.1
3537.067	24.1
3539.921	25.1
3542.773	15.1
3545.622	7.1
3548.469	2.1
3551.315	-2.9
3554.157	-6.9
3556.998	-10.9
3559.837	-15.9
3562.673	-21.9
3565.507	-21.9
3568.339	-25.9
3571.169	-39.9
3573.996	-28.9
3576.822	-34.9
3579.645	-39.9
3582.466	-46.9
3585.285	-55.9
3588.101	-44.9
3590.916	-63.9
3593.728	-56.9
3596.538	-59.9
3599.346	-65.9
3602.152	-62.9
3604.956	-68.9
3607.757	-71.9
3610.556	-79.9
3613.354	-71.9
3616.149	-90.9
3618.942	-86.9
3621.732	-80.9
3624.521	-86.9
3627.307	-92.9
3630.092	-90.9
3632.874	-89.9
3635.654	-99.9
3638.432	-92.9
3641.208	-94.9
3643.982	-102.9
3646.753	-106.9
3649.523	-109.9
3652.29	-104.9
3655.055	-109.9
3657.818	-109.9
3660.579	-109.9
3663.338	-103.9
3666.095	-116.9
3668.849	-116.9
3671.602	-120.9
3674.352	-120.9
3677.101	-125.9
3679.847	-125.9
3682.591	-128.9
3685.333	-124.9
3688.073	-127.9
3690.811	-120.9
3693.547	-131.9
3696.281	-127.9
3699.013	-130.9
3701.742	-132.9
3704.47	-140.9
3707.195	-131.9
3709.919	-129.9
3712.64	-133.9
3715.359	-135.9
3718.076	-131.9
3720.792	-138.9
3723.505	-141.9
3726.216	-136.9
3728.925	-144.9
3731.632	-139.9
3734.336	-144.9
3737.039	-134.9
3739.74	-141.9
3742.439	-151.9
3745.136	-140.9
3747.83	-149.9
3750.523	-147.9
3753.213	-147.9
3755.902	-139.9
3758.589	-148.9
3761.273	-140.9
3763.956	-142.9
3766.636	-147.9
3769.315	-136.9
3771.991	-144.9
3774.665	-150.9
3777.338	-141.9
3780.008	-145.9
3782.677	-144.9
3785.343	-146.9
3788.007	-144.9
3790.67	-147.9
3793.33	-146.9
3795.989	-150.9
3798.645	-145.9
3801.299	-147.9
3803.952	-152.9
3806.602	-142.9
3809.251	-151.9
3811.897	-150.9
3814.542	-152.9
3817.184	-147.9
3819.825	-154.9
3822.463	-151.9
3825.1	-152.9
3827.735	-148.9
3830.367	-150.9
3832.998	-147.9
3835.627	-152.9
3838.253	-147.9
3840.878	-148.9
3843.501	-147.9
3846.122	-149.9
3848.741	-153.9
3851.358	-146.9
3853.973	-153.9
3856.586	-146.9
3859.197	-152.9
3861.806	-148.9
3864.414	-150.9
3867.019	-148.9
3869.622	-146.9
3872.224	-132.9
3874.823	-123.9
3877.421	-101.9
3880.016	-69.9
3882.61	-35.9
3885.202	-31.9
3887.792	-61.9
3890.38	-99.9
3892.966	-130.9
3895.55	-138.9
3898.132	-142.9
3900.713	-145.9
3903.291	-151.9
3905.868	-153.9
3908.442	-149.9
3911.015	-143.9
3913.586	-116.9
3916.155	-152.9
3918.722	-151.9
3921.287	-150.9
3923.85	-153.9
3926.411	-155.9
3928.971	-153.9
3931.528	-157.9
3934.084	-152.9
3936.638	-152.9
3939.19	-151.9
3941.74	-152.9
3944.288	-151.9
3946.834	-146.9
3949.378	-152.9
3951.921	-154.9
3954.462	-158.9
3957	-148.9
3959.537	-146.9
3962.072	-151.9
3964.606	-146.9
3967.137	-153.9
3969.667	-155.9
3972.194	-157.9
3974.72	-151.9
3977.244	-153.9
3979.766	-151.9
3982.286	-156.9
3984.805	-155.9
3987.321	-144.9
3989.836	-140.9
3992.349	-150.9
3994.86	-155.9
3997.369	-153.9
3999.877	-150.9
4002.382	-147.9
4004.886	-152.9
4007.388	-152.9
4009.888	-153.9
4012.386	-153.9
4014.883	-148.9
4017.377	-157.9
4019.87	-149.9
4022.361	-152.9
4024.85	-147.9
4027.338	-147.9
4029.823	-147.9
4032.307	-152.9
4034.789	-153.9
4037.269	-154.9
4039.747	-149.9
4042.224	-151.9
4044.699	-152.9
4047.172	-149.9
4049.643	-150.9
4052.112	-154.9
4054.58	-159.9
4057.046	-152.9
4059.51	-147.9
4061.972	-146.9
4064.432	-145.9
4066.891	-154.9
4069.348	-152.9
4071.803	-153.9
4074.256	-153.9
4076.708	-148.9
4079.158	-144.9
4081.606	-140.9
4084.052	-148.9
4086.497	-151.9
4088.939	-142.9
4091.38	-151.9
4093.819	-150.9
4096.257	-160.9
4098.693	-155.9
4101.127	-159.9
4103.559	-158.9
4105.989	15.1
4108.418	26.1
4110.845	20.1
4113.27	16.1
4115.694	13.1
4118.115	12.1
4120.535	-156.9
4122.954	-151.9
4125.37	-148.9
4127.785	-148.9
4130.198	-148.9
4132.609	-150.9
4135.019	-162.9
4137.427	-161.9
4139.833	-162.9
4142.237	-160.9
