Data from 2018-2-8_conc=6_n=7_RamanShift_04.txt Node
Date: Mon Mar 12 16:43:27 IST 2018
User: aro
Spectrometer: QEPB0276
Trigger mode: 0
Integration Time (sec): 3.000000E1
Scans to average: 1
Electric dark correction enabled: true
Nonlinearity correction enabled: false
Boxcar width: 0
XAxis mode: Raman Shifts
Number of Pixels in Spectrum: 1044
>>>>>Begin Spectral Data<<<<<
160.701	10.6
166.742	40.6
172.777	122.6
178.805	378.6
184.826	1058.6
190.841	2279.6
196.849	3781.6
202.85	5001.6
208.845	5469.6
214.833	5448.6
220.815	5358.6
226.789	5335.6
232.758	5352.6
238.719	5337.6
244.674	5312.6
250.623	5259.6
256.565	5179.6
262.5	5112.6
268.429	5037.6
274.351	5010.6
280.267	4954.6
286.176	4916.6
292.079	4919.6
297.975	4878.6
303.865	4861.6
309.748	4850.6
315.625	4829.6
321.495	4804.6
327.359	4791.6
333.217	4811.6
339.068	4810.6
344.912	4834.6
350.751	4805.6
356.583	4841.6
362.408	4802.6
368.227	4842.6
374.04	4852.6
379.847	4887.6
385.647	4870.6
391.44	4903.6
397.228	4931.6
403.009	4959.6
408.784	4978.6
414.553	4977.6
420.315	5004.6
426.071	5036.6
431.821	5006.6
437.565	4999.6
443.302	4973.6
449.033	4964.6
454.758	4961.6
460.477	4940.6
466.189	4899.6
471.896	4855.6
477.596	4842.6
483.29	4845.6
488.978	4823.6
494.66	4802.6
500.335	4749.6
506.005	4650.6
511.668	4488.6
517.325	4414.6
522.977	4271.6
528.622	4237.6
534.261	4149.6
539.894	4123.6
545.521	4071.6
551.141	4061.6
556.756	4016.6
562.365	4009.6
567.968	3958.6
573.565	3936.6
579.155	3927.6
584.74	3923.6
590.319	3915.6
595.892	3891.6
601.459	3888.6
607.02	3861.6
612.575	3862.6
618.124	3799.6
623.667	3764.6
629.204	3748.6
634.735	3708.6
640.261	3690.6
645.781	3673.6
651.294	3669.6
656.802	3649.6
662.304	3655.6
667.8	3628.6
673.29	3624.6
678.775	3636.6
684.254	3613.6
689.726	3592.6
695.193	3559.6
700.655	3581.6
706.11	3557.6
711.56	3550.6
717.004	3506.6
722.442	3491.6
727.874	3466.6
733.301	3488.6
738.722	3448.6
744.137	3441.6
749.547	3437.6
754.951	3415.6
760.349	3421.6
765.741	3460.6
771.128	3465.6
776.509	3443.6
781.885	3471.6
787.254	3509.6
792.618	3494.6
797.977	3477.6
803.33	3436.6
808.677	3417.6
814.019	3402.6
819.355	3374.6
824.686	3335.6
830.011	3320.6
835.33	3322.6
840.644	3322.6
845.952	3317.6
851.255	3320.6
856.552	3309.6
861.844	3284.6
867.13	3256.6
872.41	3260.6
877.686	3218.6
882.955	3183.6
888.219	3165.6
893.478	3127.6
898.731	3091.6
903.979	3051.6
909.221	3021.6
914.458	3025.6
919.69	3013.6
924.916	3006.6
930.136	3022.6
935.351	3020.6
940.561	3038.6
945.766	3004.6
950.965	3023.6
956.158	3012.6
961.347	2972.6
966.529	2937.6
971.707	2897.6
976.879	2845.6
982.046	2822.6
987.208	2792.6
992.364	2805.6
997.515	2814.6
1002.66	2839.6
1007.801	2882.6
1012.936	2889.6
1018.066	2885.6
1023.19	2879.6
1028.309	2915.6
1033.423	2876.6
1038.532	2879.6
1043.636	2843.6
1048.734	2831.6
1053.827	2793.6
1058.915	2757.6
1063.998	2735.6
1069.075	2721.6
1074.147	2715.6
1079.214	2738.6
1084.276	2734.6
1089.333	2753.6
1094.385	2756.6
1099.431	2794.6
1104.472	2779.6
1109.509	2765.6
1114.54	2746.6
1119.565	2700.6
1124.586	2630.6
1129.602	2608.6
1134.613	2615.6
1139.618	2559.6
1144.619	2572.6
1149.614	2564.6
1154.604	2582.6
1159.589	2591.6
1164.57	2591.6
1169.545	2590.6
1174.515	2577.6
1179.48	2584.6
1184.44	2566.6
1189.395	2548.6
1194.345	2514.6
1199.29	2506.6
1204.23	2488.6
1209.165	2491.6
1214.095	2526.6
1219.021	2560.6
1223.941	2543.6
1228.856	2552.6
1233.766	2567.6
1238.672	2571.6
1243.572	2582.6
1248.467	2532.6
1253.358	2535.6
1258.244	2490.6
1263.124	2447.6
1268	2394.6
1272.871	2382.6
1277.737	2359.6
1282.599	2352.6
1287.455	2349.6
1292.306	2351.6
1297.153	2328.6
1301.995	2384.6
1306.832	2402.6
1311.664	2399.6
1316.491	2424.6
1321.314	2389.6
1326.132	2375.6
1330.945	2363.6
1335.753	2346.6
1340.556	2267.6
1345.354	2262.6
1350.148	2211.6
1354.937	2195.6
1359.722	2151.6
1364.501	2116.6
1369.276	2075.6
1374.046	2047.6
1378.811	2026.6
1383.572	2008.6
1388.327	2000.6
1393.079	2003.6
1397.825	2008.6
1402.567	2018.6
1407.304	2011.6
1412.036	2028.6
1416.764	2026.6
1421.487	2014.6
1426.205	2018.6
1430.919	2023.6
1435.628	2025.6
1440.333	2052.6
1445.032	2073.6
1449.727	2066.6
1454.418	2103.6
1459.104	2095.6
1463.785	2067.6
1468.462	2040.6
1473.134	2005.6
1477.802	1947.6
1482.465	1885.6
1487.123	1877.6
1491.777	1845.6
1496.426	1848.6
1501.071	1815.6
1505.711	1809.6
1510.347	1816.6
1514.978	1794.6
1519.604	1804.6
1524.226	1812.6
1528.844	1792.6
1533.457	1782.6
1538.065	1753.6
1542.669	1756.6
1547.269	1764.6
1551.864	1754.6
1556.454	1787.6
1561.041	1805.6
1565.622	1784.6
1570.199	1815.6
1574.772	1825.6
1579.34	1839.6
1583.904	1857.6
1588.464	1887.6
1593.019	1884.6
1597.569	1879.6
1602.115	1876.6
1606.657	1863.6
1611.195	1877.6
1615.728	1880.6
1620.256	1851.6
1624.78	1855.6
1629.3	1883.6
1633.816	1874.6
1638.327	1882.6
1642.834	1886.6
1647.336	1920.6
1651.834	1892.6
1656.328	1893.6
1660.817	1919.6
1665.302	1886.6
1669.783	1850.6
1674.259	1800.6
1678.732	1772.6
1683.199	1724.6
1687.663	1664.6
1692.122	1603.6
1696.577	1543.6
1701.028	1491.6
1705.474	1426.6
1709.917	1383.6
1714.355	1344.6
1718.788	1370.6
1723.218	1352.6
1727.643	1354.6
1732.064	1337.6
1736.481	1331.6
1740.893	1301.6
1745.301	1283.6
1749.705	1250.6
1754.105	1236.6
1758.501	1217.6
1762.893	1193.6
1767.28	1172.6
1771.663	1163.6
1776.042	1152.6
1780.417	1144.6
1784.787	1130.6
1789.154	1120.6
1793.516	1115.6
1797.874	1094.6
1802.228	1077.6
1806.578	1075.6
1810.924	1057.6
1815.266	1054.6
1819.603	1058.6
1823.937	1049.6
1828.266	1062.6
1832.591	1031.6
1836.913	1040.6
1841.23	1038.6
1845.543	1060.6
1849.852	1045.6
1854.156	1053.6
1858.457	1038.6
1862.754	1033.6
1867.047	1038.6
1871.335	1052.6
1875.62	1053.6
1879.9	1043.6
1884.177	1031.6
1888.449	1043.6
1892.718	1015.6
1896.982	1009.6
1901.243	986.6
1905.499	968.6
1909.752	964.6
1914	951.6
1918.245	951.6
1922.485	930.6
1926.722	912.6
1930.954	913.6
1935.183	906.6
1939.408	917.6
1943.628	914.6
1947.845	899.6
1952.058	905.6
1956.267	883.6
1960.472	869.6
1964.673	857.6
1968.87	868.6
1973.063	853.6
1977.252	840.6
1981.438	860.6
1985.619	849.6
1989.797	835.6
1993.971	851.6
1998.14	848.6
2002.306	844.6
2006.469	857.6
2010.627	859.6
2014.781	858.6
2018.932	862.6
2023.078	857.6
2027.221	842.6
2031.36	840.6
2035.495	834.6
2039.627	808.6
2043.754	812.6
2047.878	786.6
2051.998	782.6
2056.114	781.6
2060.226	783.6
2064.334	780.6
2068.439	776.6
2072.54	775.6
2076.637	789.6
2080.73	778.6
2084.82	770.6
2088.906	766.6
2092.988	751.6
2097.066	743.6
2101.14	736.6
2105.211	740.6
2109.278	736.6
2113.342	712.6
2117.401	701.6
2121.457	709.6
2125.509	697.6
2129.558	689.6
2133.602	699.6
2137.643	691.6
2141.681	692.6
2145.714	699.6
2149.744	689.6
2153.77	698.6
2157.793	688.6
2161.812	677.6
2165.827	671.6
2169.838	670.6
2173.846	659.6
2177.851	653.6
2181.851	635.6
2185.848	616.6
2189.841	619.6
2193.831	616.6
2197.817	612.6
2201.799	602.6
2205.778	620.6
2209.753	610.6
2213.725	605.6
2217.693	605.6
2221.657	606.6
2225.618	606.6
2229.575	608.6
2233.529	593.6
2237.479	592.6
2241.425	586.6
2245.368	570.6
2249.307	556.6
2253.243	561.6
2257.175	542.6
2261.104	541.6
2265.029	523.6
2268.95	527.6
2272.868	531.6
2276.783	511.6
2280.694	516.6
2284.601	506.6
2288.505	497.6
2292.405	488.6
2296.302	483.6
2300.195	473.6
2304.085	467.6
2307.971	472.6
2311.854	468.6
2315.734	442.6
2319.609	447.6
2323.482	436.6
2327.351	451.6
2331.216	452.6
2335.078	457.6
2338.937	443.6
2342.792	423.6
2346.643	429.6
2350.492	414.6
2354.336	432.6
2358.178	436.6
2362.015	432.6
2365.85	429.6
2369.681	425.6
2373.508	435.6
2377.333	435.6
2381.153	430.6
2384.971	445.6
2388.785	430.6
2392.595	421.6
2396.402	413.6
2400.206	423.6
2404.007	415.6
2407.804	413.6
2411.597	410.6
2415.388	401.6
2419.174	410.6
2422.958	401.6
2426.738	402.6
2430.515	396.6
2434.289	391.6
2438.059	395.6
2441.825	383.6
2445.589	383.6
2449.349	368.6
2453.106	369.6
2456.859	373.6
2460.61	368.6
2464.356	363.6
2468.1	360.6
2471.84	355.6
2475.577	353.6
2479.311	335.6
2483.041	333.6
2486.768	338.6
2490.492	336.6
2494.213	354.6
2497.93	345.6
2501.644	328.6
2505.355	327.6
2509.062	326.6
2512.766	325.6
2516.467	317.6
2520.165	319.6
2523.859	312.6
2527.551	314.6
2531.239	303.6
2534.923	298.6
2538.605	296.6
2542.283	295.6
2545.958	287.6
2549.63	287.6
2553.299	285.6
2556.964	292.6
2560.626	277.6
2564.285	269.6
2567.941	273.6
2571.594	271.6
2575.243	269.6
2578.89	270.6
2582.533	251.6
2586.173	252.6
2589.809	246.6
2593.443	250.6
2597.073	251.6
2600.701	250.6
2604.325	243.6
2607.946	247.6
2611.564	239.6
2615.178	244.6
2618.79	233.6
2622.398	240.6
2626.004	231.6
2629.606	228.6
2633.205	229.6
2636.801	225.6
2640.394	238.6
2643.983	219.6
2647.57	215.6
2651.153	222.6
2654.734	217.6
2658.311	201.6
2661.885	218.6
2665.456	206.6
2669.025	203.6
2672.589	198.6
2676.151	199.6
2679.71	198.6
2683.266	190.6
2686.819	190.6
2690.368	195.6
2693.915	182.6
2697.458	183.6
2700.999	186.6
2704.536	180.6
2708.071	173.6
2711.602	166.6
2715.13	172.6
2718.656	161.6
2722.178	160.6
2725.697	164.6
2729.214	154.6
2732.727	157.6
2736.237	156.6
2739.744	151.6
2743.249	156.6
2746.75	159.6
2750.248	146.6
2753.743	139.6
2757.236	132.6
2760.725	136.6
2764.211	135.6
2767.695	124.6
2771.175	125.6
2774.652	135.6
2778.127	129.6
2781.598	134.6
2785.067	128.6
2788.532	133.6
2791.995	125.6
2795.455	136.6
2798.911	127.6
2802.365	132.6
2805.816	138.6
2809.264	130.6
2812.709	131.6
2816.151	131.6
2819.59	135.6
2823.026	130.6
2826.46	128.6
2829.89	131.6
2833.318	124.6
2836.742	125.6
2840.164	131.6
2843.583	136.6
2846.999	137.6
2850.412	131.6
2853.822	140.6
2857.229	136.6
2860.634	146.6
2864.035	141.6
2867.434	142.6
2870.83	159.6
2874.223	163.6
2877.613	167.6
2881	180.6
2884.385	175.6
2887.766	162.6
2891.145	173.6
2894.521	170.6
2897.894	179.6
2901.264	176.6
2904.631	186.6
2907.996	177.6
2911.358	184.6
2914.717	175.6
2918.073	186.6
2921.426	198.6
2924.777	205.6
2928.124	203.6
2931.469	210.6
2934.811	216.6
2938.15	217.6
2941.487	223.6
2944.821	220.6
2948.152	221.6
2951.48	222.6
2954.805	216.6
2958.128	218.6
2961.447	210.6
2964.765	226.6
2968.079	219.6
2971.39	220.6
2974.699	220.6
2978.005	216.6
2981.308	224.6
2984.609	227.6
2987.907	223.6
2991.202	237.6
2994.494	224.6
2997.784	228.6
3001.07	237.6
3004.355	245.6
3007.636	235.6
3010.915	243.6
3014.191	247.6
3017.464	252.6
3020.734	251.6
3024.002	250.6
3027.267	264.6
3030.53	265.6
3033.789	268.6
3037.046	285.6
3040.301	278.6
3043.552	311.6
3046.801	311.6
3050.048	318.6
3053.291	320.6
3056.532	338.6
3059.771	346.6
3063.006	348.6
3066.239	371.6
3069.469	379.6
3072.697	383.6
3075.922	402.6
3079.144	411.6
3082.364	417.6
3085.581	427.6
3088.795	442.6
3092.007	440.6
3095.216	452.6
3098.423	468.6
3101.627	478.6
3104.828	494.6
3108.026	495.6
3111.222	511.6
3114.416	503.6
3117.607	532.6
3120.795	529.6
3123.98	539.6
3127.163	561.6
3130.344	579.6
3133.521	578.6
3136.696	607.6
3139.869	612.6
3143.039	620.6
3146.206	625.6
3149.371	650.6
3152.533	651.6
3155.693	655.6
3158.85	658.6
3162.005	675.6
3165.157	659.6
3168.306	659.6
3171.453	681.6
3174.597	660.6
3177.739	677.6
3180.878	674.6
3184.014	694.6
3187.149	686.6
3190.28	707.6
3193.409	688.6
3196.536	693.6
3199.659	713.6
3202.781	692.6
3205.9	708.6
3209.016	708.6
3212.13	702.6
3215.241	693.6
3218.35	687.6
3221.456	686.6
3224.56	672.6
3227.661	666.6
3230.76	657.6
3233.856	659.6
3236.95	631.6
3240.041	632.6
3243.13	610.6
3246.216	631.6
3249.3	605.6
3252.382	607.6
3255.46	597.6
3258.537	588.6
3261.611	578.6
3264.682	572.6
3267.751	584.6
3270.818	573.6
3273.882	565.6
3276.943	562.6
3280.002	566.6
3283.059	567.6
3286.113	562.6
3289.165	548.6
3292.214	547.6
3295.261	534.6
3298.306	528.6
3301.348	523.6
3304.387	516.6
3307.425	513.6
3310.459	502.6
3313.492	503.6
3316.521	498.6
3319.549	495.6
3322.574	489.6
3325.597	472.6
3328.617	478.6
3331.635	477.6
3334.65	487.6
3337.663	478.6
3340.674	481.6
3343.682	474.6
3346.688	470.6
3349.691	483.6
3352.692	470.6
3355.691	457.6
3358.687	461.6
3361.681	454.6
3364.673	448.6
3367.662	438.6
3370.649	435.6
3373.633	413.6
3376.615	409.6
3379.595	407.6
3382.572	416.6
3385.547	414.6
3388.52	402.6
3391.49	391.6
3394.458	398.6
3397.424	375.6
3400.387	361.6
3403.348	368.6
3406.307	364.6
3409.263	360.6
3412.217	350.6
3415.168	357.6
3418.118	350.6
3421.065	333.6
3424.009	336.6
3426.951	332.6
3429.891	319.6
3432.829	311.6
3435.764	303.6
3438.697	299.6
3441.628	288.6
3444.557	288.6
3447.483	265.6
3450.407	257.6
3453.328	248.6
3456.247	241.6
3459.164	224.6
3462.079	219.6
3464.991	217.6
3467.902	201.6
3470.809	200.6
3473.715	183.6
3476.618	173.6
3479.519	171.6
3482.418	166.6
3485.315	160.6
3488.209	147.6
3491.101	137.6
3493.99	146.6
3496.878	130.6
3499.763	125.6
3502.646	121.6
3505.527	108.6
3508.405	109.6
3511.281	88.6
3514.155	90.6
3517.027	79.6
3519.897	74.6
3522.764	61.6
3525.629	59.6
3528.492	58.6
3531.352	49.6
3534.211	39.6
3537.067	28.6
3539.921	31.6
3542.773	31.6
3545.622	20.6
3548.469	10.6
3551.315	7.6
3554.157	0.6
3556.998	-6.4
3559.837	-12.4
3562.673	-11.4
3565.507	-3.4
3568.339	-13.4
3571.169	-29.4
3573.996	-19.4
3576.822	-32.4
3579.645	-28.4
3582.466	-31.4
3585.285	-40.4
3588.101	-26.4
3590.916	-43.4
3593.728	-51.4
3596.538	-46.4
3599.346	-54.4
3602.152	-60.4
3604.956	-57.4
3607.757	-58.4
3610.556	-62.4
3613.354	-58.4
3616.149	-69.4
3618.942	-75.4
3621.732	-77.4
3624.521	-67.4
3627.307	-71.4
3630.092	-78.4
3632.874	-72.4
3635.654	-77.4
3638.432	-75.4
3641.208	-81.4
3643.982	-87.4
3646.753	-91.4
3649.523	-88.4
3652.29	-82.4
3655.055	-89.4
3657.818	-91.4
3660.579	-89.4
3663.338	-96.4
3666.095	-102.4
3668.849	-100.4
3671.602	-99.4
3674.352	-102.4
3677.101	-101.4
3679.847	-104.4
3682.591	-107.4
3685.333	-108.4
3688.073	-109.4
3690.811	-109.4
3693.547	-118.4
3696.281	-111.4
3699.013	-107.4
3701.742	-115.4
3704.47	-114.4
3707.195	-113.4
3709.919	-119.4
3712.64	-115.4
3715.359	-120.4
3718.076	-116.4
3720.792	-118.4
3723.505	-123.4
3726.216	-117.4
3728.925	-125.4
3731.632	-123.4
3734.336	-124.4
3737.039	-121.4
3739.74	-120.4
3742.439	-127.4
3745.136	-118.4
3747.83	-131.4
3750.523	-128.4
3753.213	-123.4
3755.902	-119.4
3758.589	-128.4
3761.273	-121.4
3763.956	-122.4
3766.636	-127.4
3769.315	-123.4
3771.991	-120.4
3774.665	-128.4
3777.338	-122.4
3780.008	-124.4
3782.677	-131.4
3785.343	-122.4
3788.007	-124.4
3790.67	-127.4
3793.33	-122.4
3795.989	-126.4
3798.645	-122.4
3801.299	-129.4
3803.952	-133.4
3806.602	-126.4
3809.251	-133.4
3811.897	-135.4
3814.542	-134.4
3817.184	-119.4
3819.825	-128.4
3822.463	-132.4
3825.1	-128.4
3827.735	-129.4
3830.367	-131.4
3832.998	-134.4
3835.627	-130.4
3838.253	-124.4
3840.878	-132.4
3843.501	-131.4
3846.122	-133.4
3848.741	-133.4
3851.358	-124.4
3853.973	-134.4
3856.586	-130.4
3859.197	-139.4
3861.806	-132.4
3864.414	-136.4
3867.019	-127.4
3869.622	-129.4
3872.224	-125.4
3874.823	-116.4
3877.421	-110.4
3880.016	-90.4
3882.61	-75.4
3885.202	-80.4
3887.792	-92.4
3890.38	-106.4
3892.966	-131.4
3895.55	-125.4
3898.132	-129.4
3900.713	-133.4
3903.291	-134.4
3905.868	-140.4
3908.442	-126.4
3911.015	-135.4
3913.586	-136.4
3916.155	-134.4
3918.722	-132.4
3921.287	-139.4
3923.85	-132.4
3926.411	-131.4
3928.971	-136.4
3931.528	-136.4
3934.084	-132.4
3936.638	-131.4
3939.19	-135.4
3941.74	-134.4
3944.288	-136.4
3946.834	-129.4
3949.378	-131.4
3951.921	-134.4
3954.462	-138.4
3957	-131.4
3959.537	-124.4
3962.072	-133.4
3964.606	-128.4
3967.137	-132.4
3969.667	-136.4
3972.194	-138.4
3974.72	-135.4
3977.244	-132.4
3979.766	-134.4
3982.286	-129.4
3984.805	-135.4
3987.321	-133.4
3989.836	-124.4
3992.349	-131.4
3994.86	-126.4
3997.369	-134.4
3999.877	-127.4
4002.382	-124.4
4004.886	-133.4
4007.388	-131.4
4009.888	-129.4
4012.386	-134.4
4014.883	-131.4
4017.377	-129.4
4019.87	-128.4
4022.361	-130.4
4024.85	-128.4
4027.338	-134.4
4029.823	-132.4
4032.307	-127.4
4034.789	-134.4
4037.269	-131.4
4039.747	-122.4
4042.224	-126.4
4044.699	-132.4
4047.172	-132.4
4049.643	-125.4
4052.112	-131.4
4054.58	-130.4
4057.046	-129.4
4059.51	-129.4
4061.972	-127.4
4064.432	-127.4
4066.891	-131.4
4069.348	-125.4
4071.803	-138.4
4074.256	-132.4
4076.708	-125.4
4079.158	-130.4
4081.606	-125.4
4084.052	-137.4
4086.497	-130.4
4088.939	-125.4
4091.38	-129.4
4093.819	-125.4
4096.257	-137.4
4098.693	-134.4
4101.127	-136.4
4103.559	-135.4
4105.989	-22.4
4108.418	-24.4
4110.845	-14.4
4113.27	-11.4
4115.694	-17.4
4118.115	-20.4
4120.535	-130.4
4122.954	-132.4
4125.37	-127.4
4127.785	-129.4
4130.198	-131.4
4132.609	-125.4
4135.019	-136.4
4137.427	-139.4
4139.833	-137.4
4142.237	-139.4
