Data from 2018-2-8_conc=4_n=5_RamanShift_04.txt Node
Date: Mon Mar 12 15:20:28 IST 2018
User: aro
Spectrometer: QEPB0276
Trigger mode: 0
Integration Time (sec): 3.000000E1
Scans to average: 1
Electric dark correction enabled: true
Nonlinearity correction enabled: false
Boxcar width: 0
XAxis mode: Raman Shifts
Number of Pixels in Spectrum: 1044
>>>>>Begin Spectral Data<<<<<
160.701	17.8
166.742	48.8
172.777	139.8
178.805	433.8
184.826	1193.8
190.841	2576.8
196.849	4259.8
202.85	5593.8
208.845	6125.8
214.833	6118.8
220.815	6042.8
226.789	5982.8
232.758	6000.8
238.719	6000.8
244.674	5966.8
250.623	5880.8
256.565	5794.8
262.5	5717.8
268.429	5648.8
274.351	5589.8
280.267	5506.8
286.176	5513.8
292.079	5471.8
297.975	5418.8
303.865	5434.8
309.748	5401.8
315.625	5383.8
321.495	5345.8
327.359	5391.8
333.217	5343.8
339.068	5374.8
344.912	5412.8
350.751	5379.8
356.583	5369.8
362.408	5366.8
368.227	5392.8
374.04	5421.8
379.847	5455.8
385.647	5460.8
391.44	5497.8
397.228	5504.8
403.009	5546.8
408.784	5551.8
414.553	5544.8
420.315	5559.8
426.071	5586.8
431.821	5604.8
437.565	5560.8
443.302	5555.8
449.033	5569.8
454.758	5523.8
460.477	5502.8
466.189	5474.8
471.896	5461.8
477.596	5444.8
483.29	5406.8
488.978	5413.8
494.66	5367.8
500.335	5291.8
506.005	5183.8
511.668	5006.8
517.325	4895.8
522.977	4805.8
528.622	4690.8
534.261	4650.8
539.894	4594.8
545.521	4563.8
551.141	4535.8
556.756	4474.8
562.365	4468.8
567.968	4445.8
573.565	4433.8
579.155	4379.8
584.74	4366.8
590.319	4342.8
595.892	4361.8
601.459	4344.8
607.02	4309.8
612.575	4310.8
618.124	4268.8
623.667	4213.8
629.204	4178.8
634.735	4134.8
640.261	4135.8
645.781	4119.8
651.294	4092.8
656.802	4085.8
662.304	4073.8
667.8	4080.8
673.29	4059.8
678.775	4042.8
684.254	4042.8
689.726	4011.8
695.193	4012.8
700.655	3983.8
706.11	3967.8
711.56	3923.8
717.004	3921.8
722.442	3905.8
727.874	3852.8
733.301	3861.8
738.722	3850.8
744.137	3872.8
749.547	3820.8
754.951	3806.8
760.349	3814.8
765.741	3844.8
771.128	3847.8
776.509	3839.8
781.885	3901.8
787.254	3878.8
792.618	3914.8
797.977	3879.8
803.33	3848.8
808.677	3795.8
814.019	3790.8
819.355	3753.8
824.686	3743.8
830.011	3730.8
835.33	3716.8
840.644	3716.8
845.952	3704.8
851.255	3682.8
856.552	3668.8
861.844	3688.8
867.13	3651.8
872.41	3631.8
877.686	3572.8
882.955	3584.8
888.219	3548.8
893.478	3518.8
898.731	3445.8
903.979	3420.8
909.221	3373.8
914.458	3365.8
919.69	3386.8
924.916	3384.8
930.136	3371.8
935.351	3357.8
940.561	3375.8
945.766	3369.8
950.965	3396.8
956.158	3315.8
961.347	3299.8
966.529	3260.8
971.707	3245.8
976.879	3161.8
982.046	3145.8
987.208	3109.8
992.364	3128.8
997.515	3143.8
1002.66	3162.8
1007.801	3208.8
1012.936	3216.8
1018.066	3225.8
1023.19	3213.8
1028.309	3222.8
1033.423	3216.8
1038.532	3224.8
1043.636	3186.8
1048.734	3137.8
1053.827	3098.8
1058.915	3062.8
1063.998	3022.8
1069.075	3039.8
1074.147	3045.8
1079.214	3054.8
1084.276	3091.8
1089.333	3085.8
1094.385	3081.8
1099.431	3072.8
1104.472	3073.8
1109.509	3057.8
1114.54	3023.8
1119.565	2999.8
1124.586	2944.8
1129.602	2883.8
1134.613	2878.8
1139.618	2851.8
1144.619	2873.8
1149.614	2838.8
1154.604	2881.8
1159.589	2878.8
1164.57	2877.8
1169.545	2870.8
1174.515	2888.8
1179.48	2862.8
1184.44	2853.8
1189.395	2821.8
1194.345	2794.8
1199.29	2781.8
1204.23	2779.8
1209.165	2796.8
1214.095	2787.8
1219.021	2809.8
1223.941	2852.8
1228.856	2836.8
1233.766	2853.8
1238.672	2860.8
1243.572	2853.8
1248.467	2835.8
1253.358	2808.8
1258.244	2746.8
1263.124	2714.8
1268	2663.8
1272.871	2651.8
1277.737	2597.8
1282.599	2602.8
1287.455	2583.8
1292.306	2612.8
1297.153	2598.8
1301.995	2649.8
1306.832	2662.8
1311.664	2654.8
1316.491	2647.8
1321.314	2672.8
1326.132	2658.8
1330.945	2615.8
1335.753	2574.8
1340.556	2534.8
1345.354	2505.8
1350.148	2471.8
1354.937	2424.8
1359.722	2367.8
1364.501	2334.8
1369.276	2307.8
1374.046	2286.8
1378.811	2233.8
1383.572	2225.8
1388.327	2243.8
1393.079	2207.8
1397.825	2224.8
1402.567	2234.8
1407.304	2213.8
1412.036	2228.8
1416.764	2223.8
1421.487	2232.8
1426.205	2252.8
1430.919	2238.8
1435.628	2231.8
1440.333	2276.8
1445.032	2272.8
1449.727	2312.8
1454.418	2321.8
1459.104	2314.8
1463.785	2297.8
1468.462	2253.8
1473.134	2220.8
1477.802	2171.8
1482.465	2114.8
1487.123	2076.8
1491.777	2062.8
1496.426	2014.8
1501.071	2010.8
1505.711	1993.8
1510.347	1986.8
1514.978	2009.8
1519.604	1984.8
1524.226	1983.8
1528.844	1968.8
1533.457	1939.8
1538.065	1954.8
1542.669	1944.8
1547.269	1946.8
1551.864	1951.8
1556.454	1962.8
1561.041	1986.8
1565.622	1983.8
1570.199	1979.8
1574.772	2016.8
1579.34	2056.8
1583.904	2069.8
1588.464	2093.8
1593.019	2105.8
1597.569	2102.8
1602.115	2103.8
1606.657	2073.8
1611.195	2084.8
1615.728	2065.8
1620.256	2054.8
1624.78	2082.8
1629.3	2060.8
1633.816	2068.8
1638.327	2092.8
1642.834	2100.8
1647.336	2108.8
1651.834	2118.8
1656.328	2094.8
1660.817	2103.8
1665.302	2081.8
1669.783	2046.8
1674.259	2010.8
1678.732	1937.8
1683.199	1903.8
1687.663	1852.8
1692.122	1763.8
1696.577	1718.8
1701.028	1630.8
1705.474	1579.8
1709.917	1510.8
1714.355	1492.8
1718.788	1488.8
1723.218	1483.8
1727.643	1475.8
1732.064	1470.8
1736.481	1463.8
1740.893	1442.8
1745.301	1403.8
1749.705	1363.8
1754.105	1347.8
1758.501	1328.8
1762.893	1311.8
1767.28	1305.8
1771.663	1281.8
1776.042	1270.8
1780.417	1259.8
1784.787	1238.8
1789.154	1238.8
1793.516	1216.8
1797.874	1194.8
1802.228	1186.8
1806.578	1182.8
1810.924	1161.8
1815.266	1154.8
1819.603	1157.8
1823.937	1150.8
1828.266	1155.8
1832.591	1136.8
1836.913	1153.8
1841.23	1162.8
1845.543	1148.8
1849.852	1134.8
1854.156	1137.8
1858.457	1140.8
1862.754	1143.8
1867.047	1146.8
1871.335	1145.8
1875.62	1151.8
1879.9	1127.8
1884.177	1136.8
1888.449	1110.8
1892.718	1108.8
1896.982	1087.8
1901.243	1081.8
1905.499	1070.8
1909.752	1048.8
1914	1038.8
1918.245	1040.8
1922.485	1005.8
1926.722	1002.8
1930.954	1014.8
1935.183	1004.8
1939.408	998.8
1943.628	999.8
1947.845	975.8
1952.058	969.8
1956.267	958.8
1960.472	947.8
1964.673	945.8
1968.87	934.8
1973.063	920.8
1977.252	915.8
1981.438	921.8
1985.619	928.8
1989.797	929.8
1993.971	924.8
1998.14	933.8
2002.306	938.8
2006.469	946.8
2010.627	943.8
2014.781	938.8
2018.932	933.8
2023.078	937.8
2027.221	908.8
2031.36	909.8
2035.495	904.8
2039.627	888.8
2043.754	891.8
2047.878	875.8
2051.998	874.8
2056.114	856.8
2060.226	860.8
2064.334	849.8
2068.439	857.8
2072.54	854.8
2076.637	846.8
2080.73	842.8
2084.82	834.8
2088.906	833.8
2092.988	823.8
2097.066	818.8
2101.14	812.8
2105.211	798.8
2109.278	784.8
2113.342	770.8
2117.401	779.8
2121.457	766.8
2125.509	772.8
2129.558	747.8
2133.602	752.8
2137.643	757.8
2141.681	756.8
2145.714	764.8
2149.744	746.8
2153.77	745.8
2157.793	748.8
2161.812	728.8
2165.827	732.8
2169.838	725.8
2173.846	706.8
2177.851	702.8
2181.851	690.8
2185.848	681.8
2189.841	669.8
2193.831	675.8
2197.817	660.8
2201.799	666.8
2205.778	666.8
2209.753	660.8
2213.725	648.8
2217.693	665.8
2221.657	667.8
2225.618	659.8
2229.575	669.8
2233.529	649.8
2237.479	641.8
2241.425	643.8
2245.368	619.8
2249.307	619.8
2253.243	600.8
2257.175	595.8
2261.104	584.8
2265.029	574.8
2268.95	583.8
2272.868	571.8
2276.783	566.8
2280.694	551.8
2284.601	547.8
2288.505	549.8
2292.405	541.8
2296.302	536.8
2300.195	536.8
2304.085	521.8
2307.971	504.8
2311.854	501.8
2315.734	475.8
2319.609	493.8
2323.482	492.8
2327.351	483.8
2331.216	496.8
2335.078	502.8
2338.937	483.8
2342.792	464.8
2346.643	453.8
2350.492	456.8
2354.336	459.8
2358.178	467.8
2362.015	466.8
2365.85	460.8
2369.681	474.8
2373.508	458.8
2377.333	460.8
2381.153	460.8
2384.971	471.8
2388.785	461.8
2392.595	446.8
2396.402	445.8
2400.206	443.8
2404.007	442.8
2407.804	439.8
2411.597	440.8
2415.388	422.8
2419.174	435.8
2422.958	427.8
2426.738	436.8
2430.515	429.8
2434.289	432.8
2438.059	416.8
2441.825	404.8
2445.589	411.8
2449.349	401.8
2453.106	404.8
2456.859	393.8
2460.61	388.8
2464.356	380.8
2468.1	373.8
2471.84	379.8
2475.577	374.8
2479.311	368.8
2483.041	364.8
2486.768	365.8
2490.492	366.8
2494.213	365.8
2497.93	366.8
2501.644	358.8
2505.355	354.8
2509.062	348.8
2512.766	349.8
2516.467	346.8
2520.165	335.8
2523.859	331.8
2527.551	322.8
2531.239	320.8
2534.923	316.8
2538.605	309.8
2542.283	320.8
2545.958	310.8
2549.63	302.8
2553.299	304.8
2556.964	303.8
2560.626	308.8
2564.285	289.8
2567.941	280.8
2571.594	288.8
2575.243	280.8
2578.89	286.8
2582.533	274.8
2586.173	264.8
2589.809	274.8
2593.443	260.8
2597.073	268.8
2600.701	252.8
2604.325	245.8
2607.946	258.8
2611.564	253.8
2615.178	254.8
2618.79	252.8
2622.398	250.8
2626.004	257.8
2629.606	237.8
2633.205	236.8
2636.801	228.8
2640.394	239.8
2643.983	232.8
2647.57	243.8
2651.153	235.8
2654.734	230.8
2658.311	217.8
2661.885	222.8
2665.456	220.8
2669.025	223.8
2672.589	213.8
2676.151	210.8
2679.71	213.8
2683.266	209.8
2686.819	196.8
2690.368	205.8
2693.915	188.8
2697.458	191.8
2700.999	197.8
2704.536	195.8
2708.071	186.8
2711.602	181.8
2715.13	170.8
2718.656	165.8
2722.178	169.8
2725.697	168.8
2729.214	166.8
2732.727	167.8
2736.237	171.8
2739.744	166.8
2743.249	156.8
2746.75	155.8
2750.248	152.8
2753.743	149.8
2757.236	152.8
2760.725	146.8
2764.211	143.8
2767.695	138.8
2771.175	136.8
2774.652	122.8
2778.127	137.8
2781.598	135.8
2785.067	141.8
2788.532	132.8
2791.995	132.8
2795.455	140.8
2798.911	138.8
2802.365	137.8
2805.816	135.8
2809.264	138.8
2812.709	141.8
2816.151	141.8
2819.59	144.8
2823.026	132.8
2826.46	123.8
2829.89	137.8
2833.318	128.8
2836.742	146.8
2840.164	133.8
2843.583	140.8
2846.999	142.8
2850.412	139.8
2853.822	142.8
2857.229	143.8
2860.634	146.8
2864.035	162.8
2867.434	157.8
2870.83	171.8
2874.223	173.8
2877.613	170.8
2881	181.8
2884.385	191.8
2887.766	180.8
2891.145	189.8
2894.521	181.8
2897.894	199.8
2901.264	197.8
2904.631	195.8
2907.996	194.8
2911.358	198.8
2914.717	210.8
2918.073	209.8
2921.426	209.8
2924.777	217.8
2928.124	220.8
2931.469	215.8
2934.811	236.8
2938.15	237.8
2941.487	244.8
2944.821	247.8
2948.152	247.8
2951.48	248.8
2954.805	247.8
2958.128	244.8
2961.447	232.8
2964.765	241.8
2968.079	235.8
2971.39	233.8
2974.699	241.8
2978.005	239.8
2981.308	244.8
2984.609	240.8
2987.907	235.8
2991.202	247.8
2994.494	255.8
2997.784	249.8
3001.07	262.8
3004.355	270.8
3007.636	270.8
3010.915	263.8
3014.191	266.8
3017.464	266.8
3020.734	270.8
3024.002	282.8
3027.267	294.8
3030.53	300.8
3033.789	306.8
3037.046	314.8
3040.301	311.8
3043.552	327.8
3046.801	331.8
3050.048	349.8
3053.291	349.8
3056.532	372.8
3059.771	379.8
3063.006	383.8
3066.239	408.8
3069.469	425.8
3072.697	424.8
3075.922	440.8
3079.144	454.8
3082.364	460.8
3085.581	475.8
3088.795	485.8
3092.007	485.8
3095.216	500.8
3098.423	515.8
3101.627	525.8
3104.828	536.8
3108.026	550.8
3111.222	561.8
3114.416	573.8
3117.607	591.8
3120.795	590.8
3123.98	608.8
3127.163	629.8
3130.344	638.8
3133.521	651.8
3136.696	672.8
3139.869	675.8
3143.039	678.8
3146.206	690.8
3149.371	701.8
3152.533	715.8
3155.693	720.8
3158.85	731.8
3162.005	741.8
3165.157	742.8
3168.306	745.8
3171.453	756.8
3174.597	753.8
3177.739	752.8
3180.878	749.8
3184.014	766.8
3187.149	776.8
3190.28	761.8
3193.409	768.8
3196.536	776.8
3199.659	779.8
3202.781	774.8
3205.9	784.8
3209.016	790.8
3212.13	790.8
3215.241	769.8
3218.35	768.8
3221.456	752.8
3224.56	747.8
3227.661	729.8
3230.76	736.8
3233.856	729.8
3236.95	698.8
3240.041	694.8
3243.13	691.8
3246.216	682.8
3249.3	673.8
3252.382	682.8
3255.46	658.8
3258.537	652.8
3261.611	655.8
3264.682	638.8
3267.751	656.8
3270.818	635.8
3273.882	634.8
3276.943	630.8
3280.002	615.8
3283.059	623.8
3286.113	611.8
3289.165	605.8
3292.214	613.8
3295.261	590.8
3298.306	581.8
3301.348	587.8
3304.387	584.8
3307.425	581.8
3310.459	561.8
3313.492	554.8
3316.521	553.8
3319.549	545.8
3322.574	532.8
3325.597	544.8
3328.617	544.8
3331.635	531.8
3334.65	538.8
3337.663	531.8
3340.674	536.8
3343.682	520.8
3346.688	527.8
3349.691	523.8
3352.692	515.8
3355.691	525.8
3358.687	511.8
3361.681	523.8
3364.673	499.8
3367.662	498.8
3370.649	485.8
3373.633	483.8
3376.615	469.8
3379.595	466.8
3382.572	453.8
3385.547	450.8
3388.52	444.8
3391.49	427.8
3394.458	426.8
3397.424	422.8
3400.387	405.8
3403.348	408.8
3406.307	401.8
3409.263	407.8
3412.217	400.8
3415.168	394.8
3418.118	389.8
3421.065	375.8
3424.009	365.8
3426.951	367.8
3429.891	358.8
3432.829	341.8
3435.764	337.8
3438.697	332.8
3441.628	327.8
3444.557	309.8
3447.483	300.8
3450.407	281.8
3453.328	268.8
3456.247	253.8
3459.164	254.8
3462.079	237.8
3464.991	238.8
3467.902	224.8
3470.809	227.8
3473.715	204.8
3476.618	194.8
3479.519	188.8
3482.418	180.8
3485.315	173.8
3488.209	157.8
3491.101	161.8
3493.99	159.8
3496.878	144.8
3499.763	133.8
3502.646	129.8
3505.527	111.8
3508.405	120.8
3511.281	108.8
3514.155	101.8
3517.027	93.8
3519.897	76.8
3522.764	73.8
3525.629	61.8
3528.492	56.8
3531.352	49.8
3534.211	41.8
3537.067	32.8
3539.921	33.8
3542.773	23.8
3545.622	12.8
3548.469	6.8
3551.315	13.8
3554.157	-4.2
3556.998	-11.2
3559.837	-8.2
3562.673	-11.2
3565.507	-17.2
3568.339	-27.2
3571.169	-35.2
3573.996	-35.2
3576.822	-32.2
3579.645	-36.2
3582.466	-37.2
3585.285	-48.2
3588.101	-43.2
3590.916	-54.2
3593.728	-67.2
3596.538	-68.2
3599.346	-67.2
3602.152	-61.2
3604.956	-59.2
3607.757	-60.2
3610.556	-77.2
3613.354	-70.2
3616.149	-90.2
3618.942	-86.2
3621.732	-85.2
3624.521	-85.2
3627.307	-85.2
3630.092	-85.2
3632.874	-92.2
3635.654	-98.2
3638.432	-99.2
3641.208	-99.2
3643.982	-100.2
3646.753	-104.2
3649.523	-102.2
3652.29	-107.2
3655.055	-101.2
3657.818	-107.2
3660.579	-108.2
3663.338	-117.2
3666.095	-115.2
3668.849	-117.2
3671.602	-120.2
3674.352	-117.2
3677.101	-125.2
3679.847	-123.2
3682.591	-123.2
3685.333	-126.2
3688.073	-124.2
3690.811	-125.2
3693.547	-131.2
3696.281	-133.2
3699.013	-134.2
3701.742	-135.2
3704.47	-138.2
3707.195	-131.2
3709.919	-137.2
3712.64	-132.2
3715.359	-138.2
3718.076	-137.2
3720.792	-138.2
3723.505	-145.2
3726.216	-137.2
3728.925	-140.2
3731.632	-135.2
3734.336	-146.2
3737.039	-143.2
3739.74	-146.2
3742.439	-152.2
3745.136	-139.2
3747.83	-148.2
3750.523	-147.2
3753.213	-151.2
3755.902	-138.2
3758.589	-150.2
3761.273	-139.2
3763.956	-139.2
3766.636	-150.2
3769.315	-143.2
3771.991	-146.2
3774.665	-149.2
3777.338	-141.2
3780.008	-140.2
3782.677	-146.2
3785.343	-142.2
3788.007	-151.2
3790.67	-151.2
3793.33	-143.2
3795.989	-147.2
3798.645	-144.2
3801.299	-146.2
3803.952	-150.2
3806.602	-150.2
3809.251	-159.2
3811.897	-157.2
3814.542	-152.2
3817.184	-146.2
3819.825	-149.2
3822.463	-150.2
3825.1	-151.2
3827.735	-155.2
3830.367	-157.2
3832.998	-156.2
3835.627	-148.2
3838.253	-147.2
3840.878	-148.2
3843.501	-145.2
3846.122	-154.2
3848.741	-155.2
3851.358	-151.2
3853.973	-157.2
3856.586	-150.2
3859.197	-156.2
3861.806	-153.2
3864.414	-158.2
3867.019	-152.2
3869.622	-152.2
3872.224	-136.2
3874.823	-127.2
3877.421	-117.2
3880.016	-93.2
3882.61	-73.2
3885.202	-74.2
3887.792	-96.2
3890.38	-116.2
3892.966	-145.2
3895.55	-147.2
3898.132	-147.2
3900.713	-152.2
3903.291	-157.2
3905.868	-153.2
3908.442	-149.2
3911.015	-155.2
3913.586	-159.2
3916.155	-152.2
3918.722	-152.2
3921.287	-150.2
3923.85	-155.2
3926.411	-156.2
3928.971	-156.2
3931.528	-159.2
3934.084	-148.2
3936.638	-149.2
3939.19	-156.2
3941.74	-155.2
3944.288	-154.2
3946.834	-152.2
3949.378	-155.2
3951.921	-151.2
3954.462	-162.2
3957	-151.2
3959.537	-149.2
3962.072	-155.2
3964.606	-151.2
3967.137	-151.2
3969.667	-154.2
3972.194	-157.2
3974.72	-152.2
3977.244	-151.2
3979.766	-158.2
3982.286	-152.2
3984.805	-154.2
3987.321	-151.2
3989.836	-147.2
3992.349	-158.2
3994.86	-151.2
3997.369	-155.2
3999.877	-154.2
4002.382	-148.2
4004.886	-156.2
4007.388	-151.2
4009.888	-149.2
4012.386	-153.2
4014.883	-151.2
4017.377	-150.2
4019.87	-153.2
4022.361	-152.2
4024.85	-153.2
4027.338	-157.2
4029.823	-145.2
4032.307	-145.2
4034.789	-149.2
4037.269	-153.2
4039.747	-150.2
4042.224	-151.2
4044.699	-153.2
4047.172	-150.2
4049.643	-145.2
4052.112	-152.2
4054.58	-151.2
4057.046	-151.2
4059.51	-160.2
4061.972	-152.2
4064.432	-149.2
4066.891	-151.2
4069.348	-151.2
4071.803	-154.2
4074.256	-156.2
4076.708	-149.2
4079.158	-154.2
4081.606	-150.2
4084.052	-152.2
4086.497	-157.2
4088.939	-141.2
4091.38	-152.2
4093.819	-149.2
4096.257	-159.2
4098.693	-157.2
4101.127	-155.2
4103.559	-153.2
4105.989	-1.2
4108.418	-4.2
4110.845	-9.2
4113.27	-9.2
4115.694	-7.2
4118.115	-6.2
4120.535	-155.2
4122.954	-151.2
4125.37	-155.2
4127.785	-157.2
4130.198	-150.2
4132.609	-153.2
4135.019	-156.2
4137.427	-163.2
4139.833	-158.2
4142.237	-162.2
