Data from 2018-2-8_conc=5_n=1_RamanShift_02.txt Node
Date: Mon Mar 12 15:50:58 IST 2018
User: aro
Spectrometer: QEPB0276
Trigger mode: 0
Integration Time (sec): 3.000000E1
Scans to average: 1
Electric dark correction enabled: true
Nonlinearity correction enabled: false
Boxcar width: 0
XAxis mode: Raman Shifts
Number of Pixels in Spectrum: 1044
>>>>>Begin Spectral Data<<<<<
160.701	16.9
166.742	49.9
172.777	126.9
178.805	379.9
184.826	1010.9
190.841	2142.9
196.849	3513.9
202.85	4600.9
208.845	5012.9
214.833	5006.9
220.815	4931.9
226.789	4875.9
232.758	4904.9
238.719	4907.9
244.674	4893.9
250.623	4833.9
256.565	4780.9
262.5	4703.9
268.429	4633.9
274.351	4564.9
280.267	4563.9
286.176	4532.9
292.079	4521.9
297.975	4519.9
303.865	4475.9
309.748	4496.9
315.625	4467.9
321.495	4452.9
327.359	4457.9
333.217	4433.9
339.068	4464.9
344.912	4491.9
350.751	4476.9
356.583	4462.9
362.408	4458.9
368.227	4476.9
374.04	4499.9
379.847	4536.9
385.647	4549.9
391.44	4552.9
397.228	4586.9
403.009	4645.9
408.784	4679.9
414.553	4681.9
420.315	4681.9
426.071	4686.9
431.821	4686.9
437.565	4671.9
443.302	4668.9
449.033	4614.9
454.758	4626.9
460.477	4619.9
466.189	4566.9
471.896	4563.9
477.596	4542.9
483.29	4498.9
488.978	4492.9
494.66	4493.9
500.335	4391.9
506.005	4273.9
511.668	4156.9
517.325	4021.9
522.977	3898.9
528.622	3816.9
534.261	3775.9
539.894	3714.9
545.521	3667.9
551.141	3662.9
556.756	3630.9
562.365	3600.9
567.968	3578.9
573.565	3557.9
579.155	3546.9
584.74	3543.9
590.319	3490.9
595.892	3529.9
601.459	3498.9
607.02	3487.9
612.575	3445.9
618.124	3430.9
623.667	3393.9
629.204	3358.9
634.735	3336.9
640.261	3320.9
645.781	3306.9
651.294	3272.9
656.802	3290.9
662.304	3263.9
667.8	3250.9
673.29	3241.9
678.775	3232.9
684.254	3253.9
689.726	3241.9
695.193	3211.9
700.655	3193.9
706.11	3170.9
711.56	3162.9
717.004	3136.9
722.442	3118.9
727.874	3113.9
733.301	3100.9
738.722	3077.9
744.137	3063.9
749.547	3074.9
754.951	3068.9
760.349	3090.9
765.741	3078.9
771.128	3094.9
776.509	3117.9
781.885	3118.9
787.254	3157.9
792.618	3165.9
797.977	3135.9
803.33	3129.9
808.677	3077.9
814.019	3074.9
819.355	3048.9
824.686	3003.9
830.011	3003.9
835.33	2995.9
840.644	2994.9
845.952	2983.9
851.255	2985.9
856.552	2972.9
861.844	2929.9
867.13	2906.9
872.41	2897.9
877.686	2889.9
882.955	2876.9
888.219	2834.9
893.478	2805.9
898.731	2752.9
903.979	2735.9
909.221	2694.9
914.458	2688.9
919.69	2674.9
924.916	2717.9
930.136	2694.9
935.351	2710.9
940.561	2707.9
945.766	2688.9
950.965	2684.9
956.158	2669.9
961.347	2641.9
966.529	2591.9
971.707	2569.9
976.879	2533.9
982.046	2523.9
987.208	2492.9
992.364	2486.9
997.515	2504.9
1002.66	2538.9
1007.801	2543.9
1012.936	2582.9
1018.066	2591.9
1023.19	2556.9
1028.309	2586.9
1033.423	2581.9
1038.532	2564.9
1043.636	2550.9
1048.734	2520.9
1053.827	2486.9
1058.915	2487.9
1063.998	2458.9
1069.075	2440.9
1074.147	2438.9
1079.214	2446.9
1084.276	2452.9
1089.333	2490.9
1094.385	2485.9
1099.431	2469.9
1104.472	2476.9
1109.509	2442.9
1114.54	2410.9
1119.565	2416.9
1124.586	2352.9
1129.602	2336.9
1134.613	2329.9
1139.618	2268.9
1144.619	2285.9
1149.614	2284.9
1154.604	2296.9
1159.589	2321.9
1164.57	2323.9
1169.545	2307.9
1174.515	2328.9
1179.48	2277.9
1184.44	2294.9
1189.395	2275.9
1194.345	2250.9
1199.29	2208.9
1204.23	2229.9
1209.165	2236.9
1214.095	2251.9
1219.021	2270.9
1223.941	2263.9
1228.856	2280.9
1233.766	2269.9
1238.672	2292.9
1243.572	2289.9
1248.467	2270.9
1253.358	2243.9
1258.244	2217.9
1263.124	2173.9
1268	2139.9
1272.871	2112.9
1277.737	2091.9
1282.599	2098.9
1287.455	2089.9
1292.306	2081.9
1297.153	2087.9
1301.995	2110.9
1306.832	2109.9
1311.664	2133.9
1316.491	2126.9
1321.314	2138.9
1326.132	2117.9
1330.945	2116.9
1335.753	2069.9
1340.556	2022.9
1345.354	2008.9
1350.148	1970.9
1354.937	1954.9
1359.722	1923.9
1364.501	1900.9
1369.276	1869.9
1374.046	1855.9
1378.811	1812.9
1383.572	1826.9
1388.327	1805.9
1393.079	1796.9
1397.825	1791.9
1402.567	1797.9
1407.304	1799.9
1412.036	1803.9
1416.764	1794.9
1421.487	1810.9
1426.205	1804.9
1430.919	1794.9
1435.628	1818.9
1440.333	1829.9
1445.032	1842.9
1449.727	1857.9
1454.418	1870.9
1459.104	1876.9
1463.785	1849.9
1468.462	1799.9
1473.134	1780.9
1477.802	1750.9
1482.465	1719.9
1487.123	1686.9
1491.777	1674.9
1496.426	1663.9
1501.071	1641.9
1505.711	1627.9
1510.347	1639.9
1514.978	1624.9
1519.604	1652.9
1524.226	1636.9
1528.844	1616.9
1533.457	1614.9
1538.065	1601.9
1542.669	1567.9
1547.269	1606.9
1551.864	1597.9
1556.454	1609.9
1561.041	1628.9
1565.622	1632.9
1570.199	1633.9
1574.772	1648.9
1579.34	1676.9
1583.904	1684.9
1588.464	1688.9
1593.019	1695.9
1597.569	1706.9
1602.115	1712.9
1606.657	1686.9
1611.195	1700.9
1615.728	1685.9
1620.256	1693.9
1624.78	1675.9
1629.3	1680.9
1633.816	1695.9
1638.327	1706.9
1642.834	1699.9
1647.336	1734.9
1651.834	1712.9
1656.328	1712.9
1660.817	1706.9
1665.302	1707.9
1669.783	1674.9
1674.259	1644.9
1678.732	1599.9
1683.199	1566.9
1687.663	1506.9
1692.122	1475.9
1696.577	1405.9
1701.028	1368.9
1705.474	1305.9
1709.917	1272.9
1714.355	1257.9
1718.788	1222.9
1723.218	1222.9
1727.643	1230.9
1732.064	1211.9
1736.481	1223.9
1740.893	1190.9
1745.301	1173.9
1749.705	1142.9
1754.105	1125.9
1758.501	1103.9
1762.893	1087.9
1767.28	1069.9
1771.663	1070.9
1776.042	1063.9
1780.417	1051.9
1784.787	1042.9
1789.154	1042.9
1793.516	1022.9
1797.874	1003.9
1802.228	999.9
1806.578	1001.9
1810.924	988.9
1815.266	961.9
1819.603	957.9
1823.937	963.9
1828.266	973.9
1832.591	955.9
1836.913	950.9
1841.23	969.9
1845.543	946.9
1849.852	952.9
1854.156	943.9
1858.457	951.9
1862.754	953.9
1867.047	948.9
1871.335	962.9
1875.62	956.9
1879.9	940.9
1884.177	956.9
1888.449	940.9
1892.718	926.9
1896.982	922.9
1901.243	898.9
1905.499	903.9
1909.752	884.9
1914	866.9
1918.245	883.9
1922.485	856.9
1926.722	853.9
1930.954	851.9
1935.183	829.9
1939.408	832.9
1943.628	834.9
1947.845	837.9
1952.058	824.9
1956.267	803.9
1960.472	792.9
1964.673	807.9
1968.87	791.9
1973.063	778.9
1977.252	775.9
1981.438	784.9
1985.619	775.9
1989.797	768.9
1993.971	775.9
1998.14	782.9
2002.306	778.9
2006.469	786.9
2010.627	775.9
2014.781	773.9
2018.932	790.9
2023.078	769.9
2027.221	775.9
2031.36	766.9
2035.495	763.9
2039.627	739.9
2043.754	727.9
2047.878	735.9
2051.998	741.9
2056.114	731.9
2060.226	720.9
2064.334	722.9
2068.439	723.9
2072.54	711.9
2076.637	727.9
2080.73	698.9
2084.82	697.9
2088.906	696.9
2092.988	693.9
2097.066	681.9
2101.14	669.9
2105.211	662.9
2109.278	664.9
2113.342	653.9
2117.401	651.9
2121.457	646.9
2125.509	643.9
2129.558	637.9
2133.602	645.9
2137.643	637.9
2141.681	629.9
2145.714	631.9
2149.744	626.9
2153.77	625.9
2157.793	610.9
2161.812	626.9
2165.827	604.9
2169.838	603.9
2173.846	588.9
2177.851	575.9
2181.851	573.9
2185.848	572.9
2189.841	567.9
2193.831	567.9
2197.817	551.9
2201.799	563.9
2205.778	540.9
2209.753	547.9
2213.725	539.9
2217.693	548.9
2221.657	556.9
2225.618	537.9
2229.575	543.9
2233.529	529.9
2237.479	533.9
2241.425	537.9
2245.368	511.9
2249.307	506.9
2253.243	490.9
2257.175	492.9
2261.104	476.9
2265.029	464.9
2268.95	480.9
2272.868	468.9
2276.783	459.9
2280.694	451.9
2284.601	440.9
2288.505	450.9
2292.405	436.9
2296.302	441.9
2300.195	429.9
2304.085	418.9
2307.971	409.9
2311.854	401.9
2315.734	386.9
2319.609	399.9
2323.482	384.9
2327.351	390.9
2331.216	409.9
2335.078	404.9
2338.937	390.9
2342.792	382.9
2346.643	372.9
2350.492	378.9
2354.336	374.9
2358.178	372.9
2362.015	369.9
2365.85	374.9
2369.681	371.9
2373.508	385.9
2377.333	373.9
2381.153	361.9
2384.971	368.9
2388.785	372.9
2392.595	364.9
2396.402	358.9
2400.206	359.9
2404.007	352.9
2407.804	356.9
2411.597	352.9
2415.388	349.9
2419.174	350.9
2422.958	339.9
2426.738	349.9
2430.515	342.9
2434.289	336.9
2438.059	336.9
2441.825	335.9
2445.589	325.9
2449.349	323.9
2453.106	315.9
2456.859	315.9
2460.61	313.9
2464.356	305.9
2468.1	306.9
2471.84	295.9
2475.577	302.9
2479.311	290.9
2483.041	290.9
2486.768	297.9
2490.492	296.9
2494.213	297.9
2497.93	287.9
2501.644	276.9
2505.355	269.9
2509.062	268.9
2512.766	281.9
2516.467	274.9
2520.165	262.9
2523.859	268.9
2527.551	267.9
2531.239	248.9
2534.923	256.9
2538.605	248.9
2542.283	245.9
2545.958	244.9
2549.63	245.9
2553.299	245.9
2556.964	246.9
2560.626	245.9
2564.285	229.9
2567.941	223.9
2571.594	231.9
2575.243	232.9
2578.89	226.9
2582.533	222.9
2586.173	221.9
2589.809	204.9
2593.443	212.9
2597.073	203.9
2600.701	197.9
2604.325	199.9
2607.946	203.9
2611.564	201.9
2615.178	203.9
2618.79	197.9
2622.398	200.9
2626.004	193.9
2629.606	189.9
2633.205	184.9
2636.801	185.9
2640.394	185.9
2643.983	186.9
2647.57	185.9
2651.153	180.9
2654.734	173.9
2658.311	175.9
2661.885	172.9
2665.456	171.9
2669.025	175.9
2672.589	171.9
2676.151	168.9
2679.71	172.9
2683.266	149.9
2686.819	157.9
2690.368	160.9
2693.915	150.9
2697.458	148.9
2700.999	144.9
2704.536	141.9
2708.071	137.9
2711.602	136.9
2715.13	136.9
2718.656	129.9
2722.178	131.9
2725.697	130.9
2729.214	128.9
2732.727	131.9
2736.237	131.9
2739.744	125.9
2743.249	133.9
2746.75	127.9
2750.248	118.9
2753.743	118.9
2757.236	120.9
2760.725	116.9
2764.211	109.9
2767.695	108.9
2771.175	102.9
2774.652	102.9
2778.127	105.9
2781.598	104.9
2785.067	106.9
2788.532	104.9
2791.995	108.9
2795.455	105.9
2798.911	96.9
2802.365	109.9
2805.816	112.9
2809.264	103.9
2812.709	115.9
2816.151	106.9
2819.59	106.9
2823.026	103.9
2826.46	101.9
2829.89	109.9
2833.318	107.9
2836.742	110.9
2840.164	111.9
2843.583	107.9
2846.999	111.9
2850.412	110.9
2853.822	109.9
2857.229	116.9
2860.634	124.9
2864.035	121.9
2867.434	125.9
2870.83	134.9
2874.223	145.9
2877.613	135.9
2881	149.9
2884.385	151.9
2887.766	152.9
2891.145	145.9
2894.521	149.9
2897.894	155.9
2901.264	146.9
2904.631	157.9
2907.996	148.9
2911.358	153.9
2914.717	156.9
2918.073	161.9
2921.426	172.9
2924.777	170.9
2928.124	169.9
2931.469	172.9
2934.811	179.9
2938.15	192.9
2941.487	189.9
2944.821	186.9
2948.152	197.9
2951.48	200.9
2954.805	199.9
2958.128	183.9
2961.447	185.9
2964.765	184.9
2968.079	190.9
2971.39	193.9
2974.699	202.9
2978.005	190.9
2981.308	201.9
2984.609	197.9
2987.907	195.9
2991.202	204.9
2994.494	193.9
2997.784	202.9
3001.07	218.9
3004.355	216.9
3007.636	217.9
3010.915	211.9
3014.191	222.9
3017.464	225.9
3020.734	226.9
3024.002	225.9
3027.267	230.9
3030.53	235.9
3033.789	247.9
3037.046	253.9
3040.301	245.9
3043.552	268.9
3046.801	281.9
3050.048	286.9
3053.291	290.9
3056.532	291.9
3059.771	312.9
3063.006	321.9
3066.239	330.9
3069.469	352.9
3072.697	353.9
3075.922	356.9
3079.144	371.9
3082.364	385.9
3085.581	383.9
3088.795	392.9
3092.007	397.9
3095.216	425.9
3098.423	430.9
3101.627	425.9
3104.828	445.9
3108.026	447.9
3111.222	463.9
3114.416	472.9
3117.607	489.9
3120.795	489.9
3123.98	496.9
3127.163	508.9
3130.344	534.9
3133.521	535.9
3136.696	549.9
3139.869	555.9
3143.039	557.9
3146.206	582.9
3149.371	582.9
3152.533	598.9
3155.693	598.9
3158.85	606.9
3162.005	607.9
3165.157	621.9
3168.306	621.9
3171.453	608.9
3174.597	624.9
3177.739	618.9
3180.878	629.9
3184.014	627.9
3187.149	628.9
3190.28	625.9
3193.409	638.9
3196.536	647.9
3199.659	644.9
3202.781	637.9
3205.9	649.9
3209.016	656.9
3212.13	643.9
3215.241	649.9
3218.35	641.9
3221.456	633.9
3224.56	636.9
3227.661	618.9
3230.76	599.9
3233.856	604.9
3236.95	591.9
3240.041	592.9
3243.13	579.9
3246.216	560.9
3249.3	547.9
3252.382	551.9
3255.46	545.9
3258.537	534.9
3261.611	541.9
3264.682	535.9
3267.751	531.9
3270.818	521.9
3273.882	505.9
3276.943	522.9
3280.002	520.9
3283.059	511.9
3286.113	507.9
3289.165	507.9
3292.214	500.9
3295.261	493.9
3298.306	477.9
3301.348	487.9
3304.387	471.9
3307.425	469.9
3310.459	466.9
3313.492	468.9
3316.521	452.9
3319.549	448.9
3322.574	437.9
3325.597	434.9
3328.617	446.9
3331.635	437.9
3334.65	438.9
3337.663	426.9
3340.674	436.9
3343.682	429.9
3346.688	425.9
3349.691	437.9
3352.692	422.9
3355.691	430.9
3358.687	417.9
3361.681	425.9
3364.673	409.9
3367.662	403.9
3370.649	396.9
3373.633	394.9
3376.615	375.9
3379.595	372.9
3382.572	376.9
3385.547	363.9
3388.52	362.9
3391.49	352.9
3394.458	338.9
3397.424	331.9
3400.387	333.9
3403.348	330.9
3406.307	328.9
3409.263	316.9
3412.217	312.9
3415.168	311.9
3418.118	325.9
3421.065	311.9
3424.009	304.9
3426.951	294.9
3429.891	284.9
3432.829	263.9
3435.764	260.9
3438.697	256.9
3441.628	257.9
3444.557	258.9
3447.483	238.9
3450.407	219.9
3453.328	219.9
3456.247	212.9
3459.164	199.9
3462.079	198.9
3464.991	190.9
3467.902	178.9
3470.809	180.9
3473.715	156.9
3476.618	150.9
3479.519	152.9
3482.418	147.9
3485.315	140.9
3488.209	126.9
3491.101	127.9
3493.99	129.9
3496.878	112.9
3499.763	104.9
3502.646	93.9
3505.527	95.9
3508.405	89.9
3511.281	83.9
3514.155	72.9
3517.027	68.9
3519.897	68.9
3522.764	49.9
3525.629	37.9
3528.492	36.9
3531.352	42.9
3534.211	24.9
3537.067	20.9
3539.921	21.9
3542.773	8.9
3545.622	-3.1
3548.469	-1.1
3551.315	0.9
3554.157	-12.1
3556.998	-11.1
3559.837	-11.1
3562.673	-14.1
3565.507	-24.1
3568.339	-32.1
3571.169	-41.1
3573.996	-29.1
3576.822	-33.1
3579.645	-35.1
3582.466	-34.1
3585.285	-44.1
3588.101	-41.1
3590.916	-52.1
3593.728	-58.1
3596.538	-58.1
3599.346	-61.1
3602.152	-55.1
3604.956	-61.1
3607.757	-62.1
3610.556	-67.1
3613.354	-72.1
3616.149	-78.1
3618.942	-79.1
3621.732	-74.1
3624.521	-77.1
3627.307	-79.1
3630.092	-74.1
3632.874	-75.1
3635.654	-87.1
3638.432	-82.1
3641.208	-88.1
3643.982	-88.1
3646.753	-95.1
3649.523	-97.1
3652.29	-84.1
3655.055	-88.1
3657.818	-93.1
3660.579	-100.1
3663.338	-99.1
3666.095	-98.1
3668.849	-107.1
3671.602	-104.1
3674.352	-104.1
3677.101	-104.1
3679.847	-108.1
3682.591	-118.1
3685.333	-108.1
3688.073	-110.1
3690.811	-114.1
3693.547	-119.1
3696.281	-117.1
3699.013	-115.1
3701.742	-124.1
3704.47	-119.1
3707.195	-119.1
3709.919	-123.1
3712.64	-123.1
3715.359	-124.1
3718.076	-115.1
3720.792	-124.1
3723.505	-128.1
3726.216	-123.1
3728.925	-129.1
3731.632	-125.1
3734.336	-132.1
3737.039	-123.1
3739.74	-133.1
3742.439	-133.1
3745.136	-123.1
3747.83	-136.1
3750.523	-130.1
3753.213	-127.1
3755.902	-123.1
3758.589	-133.1
3761.273	-125.1
3763.956	-124.1
3766.636	-130.1
3769.315	-124.1
3771.991	-135.1
3774.665	-136.1
3777.338	-126.1
3780.008	-129.1
3782.677	-134.1
3785.343	-128.1
3788.007	-132.1
3790.67	-133.1
3793.33	-132.1
3795.989	-134.1
3798.645	-132.1
3801.299	-130.1
3803.952	-138.1
3806.602	-130.1
3809.251	-139.1
3811.897	-139.1
3814.542	-135.1
3817.184	-132.1
3819.825	-133.1
3822.463	-131.1
3825.1	-130.1
3827.735	-134.1
3830.367	-129.1
3832.998	-136.1
3835.627	-132.1
3838.253	-131.1
3840.878	-131.1
3843.501	-127.1
3846.122	-133.1
3848.741	-142.1
3851.358	-127.1
3853.973	-140.1
3856.586	-131.1
3859.197	-142.1
3861.806	-135.1
3864.414	-138.1
3867.019	-132.1
3869.622	-132.1
3872.224	-120.1
3874.823	-111.1
3877.421	-100.1
3880.016	-76.1
3882.61	-45.1
3885.202	-48.1
3887.792	-67.1
3890.38	-97.1
3892.966	-118.1
3895.55	-122.1
3898.132	-133.1
3900.713	-131.1
3903.291	-139.1
3905.868	-139.1
3908.442	-131.1
3911.015	-137.1
3913.586	-141.1
3916.155	-139.1
3918.722	-138.1
3921.287	-135.1
3923.85	-134.1
3926.411	-140.1
3928.971	-137.1
3931.528	-141.1
3934.084	-134.1
3936.638	-129.1
3939.19	-135.1
3941.74	-142.1
3944.288	-139.1
3946.834	-137.1
3949.378	-136.1
3951.921	-140.1
3954.462	-138.1
3957	-131.1
3959.537	-135.1
3962.072	-141.1
3964.606	-137.1
3967.137	-137.1
3969.667	-138.1
3972.194	-139.1
3974.72	-135.1
3977.244	-136.1
3979.766	-139.1
3982.286	-133.1
3984.805	-138.1
3987.321	-141.1
3989.836	-131.1
3992.349	-136.1
3994.86	-134.1
3997.369	-142.1
3999.877	-135.1
4002.382	-127.1
4004.886	-139.1
4007.388	-139.1
4009.888	-133.1
4012.386	-137.1
4014.883	-135.1
4017.377	-137.1
4019.87	-138.1
4022.361	-137.1
4024.85	-138.1
4027.338	-139.1
4029.823	-133.1
4032.307	-132.1
4034.789	-138.1
4037.269	-137.1
4039.747	-133.1
4042.224	-138.1
4044.699	-135.1
4047.172	-131.1
4049.643	-130.1
4052.112	-129.1
4054.58	-133.1
4057.046	-135.1
4059.51	-136.1
4061.972	-133.1
4064.432	-139.1
4066.891	-132.1
4069.348	-128.1
4071.803	-136.1
4074.256	-132.1
4076.708	-131.1
4079.158	-133.1
4081.606	-130.1
4084.052	-141.1
4086.497	-134.1
4088.939	-129.1
4091.38	-136.1
4093.819	-134.1
4096.257	-144.1
4098.693	-143.1
4101.127	-140.1
4103.559	-135.1
4105.989	27.9
4108.418	15.9
4110.845	11.9
4113.27	0.9
4115.694	5.9
4118.115	-3.1
4120.535	-136.1
4122.954	-135.1
4125.37	-136.1
4127.785	-135.1
4130.198	-133.1
4132.609	-136.1
4135.019	-144.1
4137.427	-145.1
4139.833	-142.1
4142.237	-142.1
