Data from 2018-2-8_conc=5_n=8_RamanShift_02.txt Node
Date: Mon Mar 12 16:14:28 IST 2018
User: aro
Spectrometer: QEPB0276
Trigger mode: 0
Integration Time (sec): 3.000000E1
Scans to average: 1
Electric dark correction enabled: true
Nonlinearity correction enabled: false
Boxcar width: 0
XAxis mode: Raman Shifts
Number of Pixels in Spectrum: 1044
>>>>>Begin Spectral Data<<<<<
160.701	14.9
166.742	32.9
172.777	103.9
178.805	322.9
184.826	845.9
190.841	1802.9
196.849	3029.9
202.85	3956.9
208.845	4264.9
214.833	4323.9
220.815	4243.9
226.789	4198.9
232.758	4221.9
238.719	4266.9
244.674	4201.9
250.623	4198.9
256.565	4120.9
262.5	4056.9
268.429	3986.9
274.351	3995.9
280.267	3945.9
286.176	3945.9
292.079	3934.9
297.975	3924.9
303.865	3914.9
309.748	3893.9
315.625	3893.9
321.495	3878.9
327.359	3905.9
333.217	3896.9
339.068	3888.9
344.912	3911.9
350.751	3914.9
356.583	3899.9
362.408	3916.9
368.227	3979.9
374.04	3924.9
379.847	3947.9
385.647	3988.9
391.44	4014.9
397.228	4005.9
403.009	4037.9
408.784	4058.9
414.553	4067.9
420.315	4053.9
426.071	4074.9
431.821	4098.9
437.565	4087.9
443.302	4062.9
449.033	4052.9
454.758	4015.9
460.477	3995.9
466.189	4038.9
471.896	3951.9
477.596	3930.9
483.29	3942.9
488.978	3905.9
494.66	3928.9
500.335	3836.9
506.005	3719.9
511.668	3584.9
517.325	3482.9
522.977	3387.9
528.622	3321.9
534.261	3245.9
539.894	3213.9
545.521	3155.9
551.141	3137.9
556.756	3149.9
562.365	3090.9
567.968	3084.9
573.565	3056.9
579.155	3020.9
584.74	3039.9
590.319	3026.9
595.892	3013.9
601.459	3006.9
607.02	3007.9
612.575	2980.9
618.124	2946.9
623.667	2924.9
629.204	2885.9
634.735	2862.9
640.261	2840.9
645.781	2822.9
651.294	2815.9
656.802	2807.9
662.304	2814.9
667.8	2810.9
673.29	2777.9
678.775	2773.9
684.254	2771.9
689.726	2736.9
695.193	2748.9
700.655	2723.9
706.11	2717.9
711.56	2668.9
717.004	2697.9
722.442	2685.9
727.874	2680.9
733.301	2649.9
738.722	2651.9
744.137	2644.9
749.547	2621.9
754.951	2628.9
760.349	2626.9
765.741	2621.9
771.128	2639.9
776.509	2664.9
781.885	2696.9
787.254	2688.9
792.618	2690.9
797.977	2661.9
803.33	2666.9
808.677	2657.9
814.019	2639.9
819.355	2617.9
824.686	2603.9
830.011	2575.9
835.33	2563.9
840.644	2556.9
845.952	2564.9
851.255	2551.9
856.552	2525.9
861.844	2524.9
867.13	2487.9
872.41	2503.9
877.686	2468.9
882.955	2450.9
888.219	2435.9
893.478	2409.9
898.731	2373.9
903.979	2350.9
909.221	2314.9
914.458	2288.9
919.69	2294.9
924.916	2281.9
930.136	2304.9
935.351	2322.9
940.561	2328.9
945.766	2314.9
950.965	2326.9
956.158	2270.9
961.347	2267.9
966.529	2222.9
971.707	2195.9
976.879	2161.9
982.046	2141.9
987.208	2141.9
992.364	2152.9
997.515	2162.9
1002.66	2169.9
1007.801	2209.9
1012.936	2186.9
1018.066	2215.9
1023.19	2211.9
1028.309	2225.9
1033.423	2220.9
1038.532	2206.9
1043.636	2179.9
1048.734	2162.9
1053.827	2142.9
1058.915	2117.9
1063.998	2102.9
1069.075	2099.9
1074.147	2103.9
1079.214	2096.9
1084.276	2101.9
1089.333	2119.9
1094.385	2128.9
1099.431	2132.9
1104.472	2134.9
1109.509	2109.9
1114.54	2075.9
1119.565	2060.9
1124.586	2030.9
1129.602	2011.9
1134.613	1977.9
1139.618	1963.9
1144.619	1965.9
1149.614	1973.9
1154.604	1970.9
1159.589	1985.9
1164.57	1991.9
1169.545	1975.9
1174.515	1998.9
1179.48	1980.9
1184.44	1956.9
1189.395	1935.9
1194.345	1934.9
1199.29	1891.9
1204.23	1931.9
1209.165	1943.9
1214.095	1919.9
1219.021	1945.9
1223.941	1954.9
1228.856	1975.9
1233.766	1961.9
1238.672	1983.9
1243.572	1954.9
1248.467	1957.9
1253.358	1930.9
1258.244	1896.9
1263.124	1864.9
1268	1849.9
1272.871	1818.9
1277.737	1798.9
1282.599	1781.9
1287.455	1784.9
1292.306	1803.9
1297.153	1806.9
1301.995	1822.9
1306.832	1824.9
1311.664	1866.9
1316.491	1843.9
1321.314	1819.9
1326.132	1833.9
1330.945	1810.9
1335.753	1779.9
1340.556	1746.9
1345.354	1712.9
1350.148	1696.9
1354.937	1668.9
1359.722	1644.9
1364.501	1627.9
1369.276	1600.9
1374.046	1567.9
1378.811	1564.9
1383.572	1545.9
1388.327	1541.9
1393.079	1539.9
1397.825	1545.9
1402.567	1525.9
1407.304	1528.9
1412.036	1538.9
1416.764	1559.9
1421.487	1556.9
1426.205	1564.9
1430.919	1550.9
1435.628	1557.9
1440.333	1584.9
1445.032	1593.9
1449.727	1609.9
1454.418	1608.9
1459.104	1598.9
1463.785	1603.9
1468.462	1571.9
1473.134	1527.9
1477.802	1503.9
1482.465	1456.9
1487.123	1449.9
1491.777	1432.9
1496.426	1426.9
1501.071	1399.9
1505.711	1387.9
1510.347	1391.9
1514.978	1399.9
1519.604	1389.9
1524.226	1391.9
1528.844	1379.9
1533.457	1377.9
1538.065	1356.9
1542.669	1363.9
1547.269	1357.9
1551.864	1355.9
1556.454	1378.9
1561.041	1374.9
1565.622	1392.9
1570.199	1390.9
1574.772	1401.9
1579.34	1413.9
1583.904	1433.9
1588.464	1436.9
1593.019	1447.9
1597.569	1461.9
1602.115	1453.9
1606.657	1439.9
1611.195	1430.9
1615.728	1429.9
1620.256	1427.9
1624.78	1439.9
1629.3	1445.9
1633.816	1442.9
1638.327	1468.9
1642.834	1453.9
1647.336	1470.9
1651.834	1469.9
1656.328	1457.9
1660.817	1467.9
1665.302	1461.9
1669.783	1414.9
1674.259	1390.9
1678.732	1371.9
1683.199	1333.9
1687.663	1297.9
1692.122	1260.9
1696.577	1204.9
1701.028	1153.9
1705.474	1128.9
1709.917	1089.9
1714.355	1064.9
1718.788	1036.9
1723.218	1051.9
1727.643	1056.9
1732.064	1047.9
1736.481	1030.9
1740.893	1007.9
1745.301	987.9
1749.705	979.9
1754.105	948.9
1758.501	944.9
1762.893	924.9
1767.28	923.9
1771.663	902.9
1776.042	889.9
1780.417	896.9
1784.787	888.9
1789.154	867.9
1793.516	879.9
1797.874	847.9
1802.228	838.9
1806.578	842.9
1810.924	819.9
1815.266	811.9
1819.603	812.9
1823.937	816.9
1828.266	813.9
1832.591	804.9
1836.913	807.9
1841.23	814.9
1845.543	822.9
1849.852	818.9
1854.156	807.9
1858.457	828.9
1862.754	813.9
1867.047	807.9
1871.335	810.9
1875.62	832.9
1879.9	830.9
1884.177	812.9
1888.449	803.9
1892.718	789.9
1896.982	782.9
1901.243	780.9
1905.499	760.9
1909.752	764.9
1914	750.9
1918.245	745.9
1922.485	734.9
1926.722	718.9
1930.954	717.9
1935.183	719.9
1939.408	720.9
1943.628	713.9
1947.845	706.9
1952.058	705.9
1956.267	698.9
1960.472	688.9
1964.673	687.9
1968.87	675.9
1973.063	671.9
1977.252	660.9
1981.438	651.9
1985.619	655.9
1989.797	650.9
1993.971	654.9
1998.14	664.9
2002.306	670.9
2006.469	667.9
2010.627	662.9
2014.781	683.9
2018.932	660.9
2023.078	669.9
2027.221	648.9
2031.36	654.9
2035.495	644.9
2039.627	630.9
2043.754	618.9
2047.878	627.9
2051.998	620.9
2056.114	610.9
2060.226	618.9
2064.334	620.9
2068.439	619.9
2072.54	609.9
2076.637	601.9
2080.73	606.9
2084.82	586.9
2088.906	596.9
2092.988	582.9
2097.066	586.9
2101.14	588.9
2105.211	563.9
2109.278	567.9
2113.342	561.9
2117.401	538.9
2121.457	548.9
2125.509	537.9
2129.558	530.9
2133.602	546.9
2137.643	546.9
2141.681	538.9
2145.714	535.9
2149.744	533.9
2153.77	540.9
2157.793	533.9
2161.812	530.9
2165.827	523.9
2169.838	522.9
2173.846	511.9
2177.851	489.9
2181.851	483.9
2185.848	479.9
2189.841	490.9
2193.831	487.9
2197.817	480.9
2201.799	460.9
2205.778	466.9
2209.753	468.9
2213.725	461.9
2217.693	472.9
2221.657	466.9
2225.618	469.9
2229.575	464.9
2233.529	455.9
2237.479	457.9
2241.425	443.9
2245.368	439.9
2249.307	433.9
2253.243	428.9
2257.175	417.9
2261.104	424.9
2265.029	407.9
2268.95	413.9
2272.868	403.9
2276.783	403.9
2280.694	391.9
2284.601	380.9
2288.505	379.9
2292.405	368.9
2296.302	371.9
2300.195	377.9
2304.085	364.9
2307.971	350.9
2311.854	353.9
2315.734	335.9
2319.609	337.9
2323.482	343.9
2327.351	337.9
2331.216	352.9
2335.078	363.9
2338.937	355.9
2342.792	327.9
2346.643	327.9
2350.492	333.9
2354.336	326.9
2358.178	326.9
2362.015	318.9
2365.85	334.9
2369.681	324.9
2373.508	332.9
2377.333	331.9
2381.153	334.9
2384.971	334.9
2388.785	322.9
2392.595	324.9
2396.402	331.9
2400.206	324.9
2404.007	313.9
2407.804	316.9
2411.597	314.9
2415.388	306.9
2419.174	315.9
2422.958	303.9
2426.738	313.9
2430.515	303.9
2434.289	306.9
2438.059	301.9
2441.825	285.9
2445.589	297.9
2449.349	290.9
2453.106	283.9
2456.859	281.9
2460.61	282.9
2464.356	274.9
2468.1	274.9
2471.84	273.9
2475.577	269.9
2479.311	264.9
2483.041	255.9
2486.768	254.9
2490.492	254.9
2494.213	264.9
2497.93	264.9
2501.644	252.9
2505.355	254.9
2509.062	250.9
2512.766	256.9
2516.467	237.9
2520.165	241.9
2523.859	242.9
2527.551	238.9
2531.239	235.9
2534.923	229.9
2538.605	227.9
2542.283	219.9
2545.958	229.9
2549.63	229.9
2553.299	216.9
2556.964	230.9
2560.626	216.9
2564.285	218.9
2567.941	212.9
2571.594	209.9
2575.243	204.9
2578.89	203.9
2582.533	203.9
2586.173	192.9
2589.809	186.9
2593.443	194.9
2597.073	192.9
2600.701	183.9
2604.325	181.9
2607.946	182.9
2611.564	187.9
2615.178	186.9
2618.79	176.9
2622.398	182.9
2626.004	174.9
2629.606	175.9
2633.205	174.9
2636.801	167.9
2640.394	168.9
2643.983	175.9
2647.57	176.9
2651.153	164.9
2654.734	164.9
2658.311	145.9
2661.885	151.9
2665.456	158.9
2669.025	166.9
2672.589	157.9
2676.151	154.9
2679.71	155.9
2683.266	144.9
2686.819	137.9
2690.368	140.9
2693.915	138.9
2697.458	134.9
2700.999	141.9
2704.536	143.9
2708.071	134.9
2711.602	123.9
2715.13	130.9
2718.656	118.9
2722.178	124.9
2725.697	123.9
2729.214	117.9
2732.727	130.9
2736.237	120.9
2739.744	106.9
2743.249	108.9
2746.75	114.9
2750.248	110.9
2753.743	107.9
2757.236	103.9
2760.725	105.9
2764.211	95.9
2767.695	93.9
2771.175	90.9
2774.652	89.9
2778.127	96.9
2781.598	91.9
2785.067	104.9
2788.532	98.9
2791.995	95.9
2795.455	98.9
2798.911	92.9
2802.365	99.9
2805.816	98.9
2809.264	94.9
2812.709	109.9
2816.151	99.9
2819.59	104.9
2823.026	94.9
2826.46	96.9
2829.89	92.9
2833.318	102.9
2836.742	104.9
2840.164	104.9
2843.583	95.9
2846.999	105.9
2850.412	99.9
2853.822	103.9
2857.229	100.9
2860.634	106.9
2864.035	109.9
2867.434	109.9
2870.83	120.9
2874.223	119.9
2877.613	120.9
2881	130.9
2884.385	134.9
2887.766	116.9
2891.145	127.9
2894.521	128.9
2897.894	136.9
2901.264	136.9
2904.631	136.9
2907.996	126.9
2911.358	134.9
2914.717	139.9
2918.073	146.9
2921.426	145.9
2924.777	147.9
2928.124	149.9
2931.469	146.9
2934.811	158.9
2938.15	152.9
2941.487	165.9
2944.821	162.9
2948.152	163.9
2951.48	167.9
2954.805	168.9
2958.128	167.9
2961.447	152.9
2964.765	161.9
2968.079	161.9
2971.39	167.9
2974.699	173.9
2978.005	156.9
2981.308	162.9
2984.609	173.9
2987.907	159.9
2991.202	163.9
2994.494	172.9
2997.784	169.9
3001.07	182.9
3004.355	183.9
3007.636	178.9
3010.915	180.9
3014.191	179.9
3017.464	184.9
3020.734	183.9
3024.002	179.9
3027.267	200.9
3030.53	192.9
3033.789	205.9
3037.046	206.9
3040.301	199.9
3043.552	216.9
3046.801	229.9
3050.048	230.9
3053.291	236.9
3056.532	245.9
3059.771	249.9
3063.006	255.9
3066.239	272.9
3069.469	284.9
3072.697	278.9
3075.922	302.9
3079.144	307.9
3082.364	313.9
3085.581	330.9
3088.795	325.9
3092.007	327.9
3095.216	331.9
3098.423	343.9
3101.627	360.9
3104.828	374.9
3108.026	364.9
3111.222	376.9
3114.416	381.9
3117.607	393.9
3120.795	398.9
3123.98	407.9
3127.163	428.9
3130.344	442.9
3133.521	433.9
3136.696	460.9
3139.869	461.9
3143.039	461.9
3146.206	471.9
3149.371	475.9
3152.533	479.9
3155.693	486.9
3158.85	488.9
3162.005	499.9
3165.157	500.9
3168.306	501.9
3171.453	501.9
3174.597	512.9
3177.739	510.9
3180.878	504.9
3184.014	516.9
3187.149	520.9
3190.28	518.9
3193.409	516.9
3196.536	521.9
3199.659	528.9
3202.781	528.9
3205.9	522.9
3209.016	533.9
3212.13	522.9
3215.241	531.9
3218.35	508.9
3221.456	514.9
3224.56	511.9
3227.661	496.9
3230.76	497.9
3233.856	486.9
3236.95	477.9
3240.041	472.9
3243.13	465.9
3246.216	465.9
3249.3	442.9
3252.382	451.9
3255.46	452.9
3258.537	437.9
3261.611	430.9
3264.682	425.9
3267.751	429.9
3270.818	422.9
3273.882	420.9
3276.943	413.9
3280.002	422.9
3283.059	407.9
3286.113	406.9
3289.165	411.9
3292.214	406.9
3295.261	394.9
3298.306	389.9
3301.348	381.9
3304.387	380.9
3307.425	374.9
3310.459	379.9
3313.492	368.9
3316.521	363.9
3319.549	366.9
3322.574	366.9
3325.597	349.9
3328.617	360.9
3331.635	357.9
3334.65	354.9
3337.663	343.9
3340.674	356.9
3343.682	338.9
3346.688	349.9
3349.691	340.9
3352.692	332.9
3355.691	347.9
3358.687	329.9
3361.681	340.9
3364.673	335.9
3367.662	334.9
3370.649	316.9
3373.633	311.9
3376.615	310.9
3379.595	298.9
3382.572	306.9
3385.547	299.9
3388.52	286.9
3391.49	290.9
3394.458	280.9
3397.424	271.9
3400.387	265.9
3403.348	269.9
3406.307	268.9
3409.263	265.9
3412.217	263.9
3415.168	256.9
3418.118	254.9
3421.065	244.9
3424.009	248.9
3426.951	242.9
3429.891	231.9
3432.829	221.9
3435.764	228.9
3438.697	214.9
3441.628	211.9
3444.557	204.9
3447.483	204.9
3450.407	188.9
3453.328	172.9
3456.247	178.9
3459.164	164.9
3462.079	156.9
3464.991	149.9
3467.902	147.9
3470.809	151.9
3473.715	125.9
3476.618	122.9
3479.519	116.9
3482.418	114.9
3485.315	110.9
3488.209	95.9
3491.101	101.9
3493.99	102.9
3496.878	82.9
3499.763	84.9
3502.646	78.9
3505.527	59.9
3508.405	71.9
3511.281	63.9
3514.155	64.9
3517.027	54.9
3519.897	41.9
3522.764	36.9
3525.629	32.9
3528.492	31.9
3531.352	22.9
3534.211	15.9
3537.067	20.9
3539.921	11.9
3542.773	12.9
3545.622	-1.1
3548.469	3.9
3551.315	-5.1
3554.157	-14.1
3556.998	-10.1
3559.837	-19.1
3562.673	-17.1
3565.507	-20.1
3568.339	-27.1
3571.169	-36.1
3573.996	-36.1
3576.822	-28.1
3579.645	-32.1
3582.466	-27.1
3585.285	-36.1
3588.101	-33.1
3590.916	-43.1
3593.728	-58.1
3596.538	-51.1
3599.346	-53.1
3602.152	-53.1
3604.956	-56.1
3607.757	-50.1
3610.556	-57.1
3613.354	-56.1
3616.149	-68.1
3618.942	-73.1
3621.732	-64.1
3624.521	-67.1
3627.307	-70.1
3630.092	-64.1
3632.874	-69.1
3635.654	-73.1
3638.432	-76.1
3641.208	-77.1
3643.982	-81.1
3646.753	-83.1
3649.523	-79.1
3652.29	-81.1
3655.055	-79.1
3657.818	-82.1
3660.579	-82.1
3663.338	-83.1
3666.095	-91.1
3668.849	-87.1
3671.602	-91.1
3674.352	-93.1
3677.101	-92.1
3679.847	-94.1
3682.591	-94.1
3685.333	-93.1
3688.073	-96.1
3690.811	-96.1
3693.547	-103.1
3696.281	-96.1
3699.013	-99.1
3701.742	-97.1
3704.47	-98.1
3707.195	-101.1
3709.919	-103.1
3712.64	-106.1
3715.359	-107.1
3718.076	-103.1
3720.792	-108.1
3723.505	-108.1
3726.216	-97.1
3728.925	-106.1
3731.632	-109.1
3734.336	-111.1
3737.039	-106.1
3739.74	-107.1
3742.439	-113.1
3745.136	-101.1
3747.83	-108.1
3750.523	-110.1
3753.213	-114.1
3755.902	-111.1
3758.589	-117.1
3761.273	-109.1
3763.956	-102.1
3766.636	-112.1
3769.315	-106.1
3771.991	-110.1
3774.665	-117.1
3777.338	-104.1
3780.008	-113.1
3782.677	-110.1
3785.343	-110.1
3788.007	-109.1
3790.67	-110.1
3793.33	-108.1
3795.989	-110.1
3798.645	-109.1
3801.299	-112.1
3803.952	-112.1
3806.602	-106.1
3809.251	-114.1
3811.897	-113.1
3814.542	-118.1
3817.184	-108.1
3819.825	-114.1
3822.463	-113.1
3825.1	-113.1
3827.735	-107.1
3830.367	-113.1
3832.998	-112.1
3835.627	-117.1
3838.253	-109.1
3840.878	-113.1
3843.501	-111.1
3846.122	-114.1
3848.741	-114.1
3851.358	-109.1
3853.973	-119.1
3856.586	-111.1
3859.197	-120.1
3861.806	-110.1
3864.414	-115.1
3867.019	-108.1
3869.622	-115.1
3872.224	-101.1
3874.823	-92.1
3877.421	-86.1
3880.016	-61.1
3882.61	-55.1
3885.202	-52.1
3887.792	-68.1
3890.38	-81.1
3892.966	-107.1
3895.55	-107.1
3898.132	-113.1
3900.713	-113.1
3903.291	-112.1
3905.868	-121.1
3908.442	-110.1
3911.015	-113.1
3913.586	-113.1
3916.155	-117.1
3918.722	-120.1
3921.287	-120.1
3923.85	-115.1
3926.411	-117.1
3928.971	-111.1
3931.528	-116.1
3934.084	-114.1
3936.638	-110.1
3939.19	-113.1
3941.74	-121.1
3944.288	-119.1
3946.834	-113.1
3949.378	-116.1
3951.921	-114.1
3954.462	-119.1
3957	-114.1
3959.537	-111.1
3962.072	-119.1
3964.606	-110.1
3967.137	-115.1
3969.667	-112.1
3972.194	-122.1
3974.72	-110.1
3977.244	-114.1
3979.766	-116.1
3982.286	-112.1
3984.805	-114.1
3987.321	-111.1
3989.836	-109.1
3992.349	-119.1
3994.86	-113.1
3997.369	-121.1
3999.877	-113.1
4002.382	-107.1
4004.886	-120.1
4007.388	-114.1
4009.888	-109.1
4012.386	-116.1
4014.883	-113.1
4017.377	-115.1
4019.87	-112.1
4022.361	-116.1
4024.85	-116.1
4027.338	-116.1
4029.823	-108.1
4032.307	-111.1
4034.789	-111.1
4037.269	-114.1
4039.747	-108.1
4042.224	-110.1
4044.699	-118.1
4047.172	-107.1
4049.643	-111.1
4052.112	-107.1
4054.58	-114.1
4057.046	-116.1
4059.51	-116.1
4061.972	-115.1
4064.432	-116.1
4066.891	-116.1
4069.348	-112.1
4071.803	-117.1
4074.256	-113.1
4076.708	-112.1
4079.158	-111.1
4081.606	-111.1
4084.052	-120.1
4086.497	-113.1
4088.939	-108.1
4091.38	-114.1
4093.819	-115.1
4096.257	-117.1
4098.693	-116.1
4101.127	-120.1
4103.559	-115.1
4105.989	-0.1
4108.418	-4.1
4110.845	7.9
4113.27	4.9
4115.694	-1.1
4118.115	-10.1
4120.535	-112.1
4122.954	-118.1
4125.37	-114.1
4127.785	-120.1
4130.198	-116.1
4132.609	-109.1
4135.019	-117.1
4137.427	-122.1
4139.833	-117.1
4142.237	-118.1
