Data from 2018-2-8_conc=6_n=6_RamanShift_01.txt Node
Date: Mon Mar 12 16:38:58 IST 2018
User: aro
Spectrometer: QEPB0276
Trigger mode: 0
Integration Time (sec): 3.000000E1
Scans to average: 1
Electric dark correction enabled: true
Nonlinearity correction enabled: false
Boxcar width: 0
XAxis mode: Raman Shifts
Number of Pixels in Spectrum: 1044
>>>>>Begin Spectral Data<<<<<
160.701	17.8
166.742	60.8
172.777	123.8
178.805	376.8
184.826	1001.8
190.841	2162.8
196.849	3574.8
202.85	4657.8
208.845	5069.8
214.833	5093.8
220.815	4996.8
226.789	4977.8
232.758	4991.8
238.719	4966.8
244.674	4948.8
250.623	4895.8
256.565	4839.8
262.5	4754.8
268.429	4678.8
274.351	4663.8
280.267	4605.8
286.176	4589.8
292.079	4586.8
297.975	4547.8
303.865	4552.8
309.748	4528.8
315.625	4513.8
321.495	4542.8
327.359	4517.8
333.217	4530.8
339.068	4522.8
344.912	4537.8
350.751	4528.8
356.583	4542.8
362.408	4540.8
368.227	4555.8
374.04	4562.8
379.847	4572.8
385.647	4633.8
391.44	4619.8
397.228	4661.8
403.009	4673.8
408.784	4708.8
414.553	4729.8
420.315	4758.8
426.071	4734.8
431.821	4721.8
437.565	4715.8
443.302	4712.8
449.033	4730.8
454.758	4682.8
460.477	4679.8
466.189	4635.8
471.896	4602.8
477.596	4604.8
483.29	4548.8
488.978	4555.8
494.66	4530.8
500.335	4460.8
506.005	4354.8
511.668	4183.8
517.325	4065.8
522.977	3923.8
528.622	3875.8
534.261	3810.8
539.894	3750.8
545.521	3713.8
551.141	3691.8
556.756	3666.8
562.365	3624.8
567.968	3598.8
573.565	3568.8
579.155	3570.8
584.74	3554.8
590.319	3562.8
595.892	3543.8
601.459	3525.8
607.02	3518.8
612.575	3495.8
618.124	3480.8
623.667	3410.8
629.204	3419.8
634.735	3345.8
640.261	3310.8
645.781	3333.8
651.294	3333.8
656.802	3309.8
662.304	3306.8
667.8	3300.8
673.29	3285.8
678.775	3263.8
684.254	3274.8
689.726	3265.8
695.193	3262.8
700.655	3226.8
706.11	3176.8
711.56	3167.8
717.004	3154.8
722.442	3153.8
727.874	3134.8
733.301	3136.8
738.722	3113.8
744.137	3086.8
749.547	3096.8
754.951	3099.8
760.349	3126.8
765.741	3112.8
771.128	3109.8
776.509	3146.8
781.885	3172.8
787.254	3161.8
792.618	3160.8
797.977	3152.8
803.33	3123.8
808.677	3087.8
814.019	3106.8
819.355	3072.8
824.686	3041.8
830.011	2991.8
835.33	3029.8
840.644	3034.8
845.952	3021.8
851.255	3014.8
856.552	2985.8
861.844	2973.8
867.13	2936.8
872.41	2920.8
877.686	2907.8
882.955	2866.8
888.219	2854.8
893.478	2810.8
898.731	2783.8
903.979	2744.8
909.221	2745.8
914.458	2727.8
919.69	2698.8
924.916	2715.8
930.136	2728.8
935.351	2726.8
940.561	2736.8
945.766	2747.8
950.965	2710.8
956.158	2681.8
961.347	2666.8
966.529	2610.8
971.707	2581.8
976.879	2567.8
982.046	2519.8
987.208	2500.8
992.364	2535.8
997.515	2532.8
1002.66	2580.8
1007.801	2574.8
1012.936	2592.8
1018.066	2601.8
1023.19	2603.8
1028.309	2604.8
1033.423	2600.8
1038.532	2604.8
1043.636	2570.8
1048.734	2534.8
1053.827	2503.8
1058.915	2480.8
1063.998	2467.8
1069.075	2449.8
1074.147	2461.8
1079.214	2483.8
1084.276	2466.8
1089.333	2479.8
1094.385	2500.8
1099.431	2501.8
1104.472	2472.8
1109.509	2482.8
1114.54	2441.8
1119.565	2393.8
1124.586	2389.8
1129.602	2356.8
1134.613	2331.8
1139.618	2314.8
1144.619	2311.8
1149.614	2307.8
1154.604	2327.8
1159.589	2339.8
1164.57	2313.8
1169.545	2338.8
1174.515	2339.8
1179.48	2316.8
1184.44	2304.8
1189.395	2273.8
1194.345	2281.8
1199.29	2254.8
1204.23	2246.8
1209.165	2266.8
1214.095	2273.8
1219.021	2262.8
1223.941	2309.8
1228.856	2313.8
1233.766	2296.8
1238.672	2301.8
1243.572	2301.8
1248.467	2284.8
1253.358	2267.8
1258.244	2239.8
1263.124	2201.8
1268	2135.8
1272.871	2137.8
1277.737	2119.8
1282.599	2105.8
1287.455	2116.8
1292.306	2102.8
1297.153	2114.8
1301.995	2147.8
1306.832	2139.8
1311.664	2159.8
1316.491	2143.8
1321.314	2151.8
1326.132	2141.8
1330.945	2121.8
1335.753	2088.8
1340.556	2045.8
1345.354	2041.8
1350.148	1999.8
1354.937	2000.8
1359.722	1962.8
1364.501	1925.8
1369.276	1880.8
1374.046	1850.8
1378.811	1840.8
1383.572	1827.8
1388.327	1826.8
1393.079	1820.8
1397.825	1826.8
1402.567	1816.8
1407.304	1798.8
1412.036	1819.8
1416.764	1830.8
1421.487	1834.8
1426.205	1831.8
1430.919	1795.8
1435.628	1836.8
1440.333	1857.8
1445.032	1879.8
1449.727	1880.8
1454.418	1877.8
1459.104	1869.8
1463.785	1857.8
1468.462	1821.8
1473.134	1803.8
1477.802	1768.8
1482.465	1738.8
1487.123	1692.8
1491.777	1674.8
1496.426	1657.8
1501.071	1635.8
1505.711	1646.8
1510.347	1654.8
1514.978	1648.8
1519.604	1631.8
1524.226	1648.8
1528.844	1624.8
1533.457	1621.8
1538.065	1613.8
1542.669	1611.8
1547.269	1598.8
1551.864	1610.8
1556.454	1639.8
1561.041	1642.8
1565.622	1639.8
1570.199	1629.8
1574.772	1655.8
1579.34	1688.8
1583.904	1703.8
1588.464	1712.8
1593.019	1726.8
1597.569	1704.8
1602.115	1706.8
1606.657	1703.8
1611.195	1706.8
1615.728	1716.8
1620.256	1701.8
1624.78	1683.8
1629.3	1701.8
1633.816	1705.8
1638.327	1745.8
1642.834	1729.8
1647.336	1720.8
1651.834	1728.8
1656.328	1726.8
1660.817	1742.8
1665.302	1738.8
1669.783	1679.8
1674.259	1649.8
1678.732	1621.8
1683.199	1582.8
1687.663	1515.8
1692.122	1478.8
1696.577	1431.8
1701.028	1373.8
1705.474	1319.8
1709.917	1283.8
1714.355	1257.8
1718.788	1242.8
1723.218	1232.8
1727.643	1249.8
1732.064	1253.8
1736.481	1219.8
1740.893	1186.8
1745.301	1170.8
1749.705	1153.8
1754.105	1123.8
1758.501	1103.8
1762.893	1090.8
1767.28	1080.8
1771.663	1068.8
1776.042	1066.8
1780.417	1043.8
1784.787	1039.8
1789.154	1021.8
1793.516	1019.8
1797.874	998.8
1802.228	1008.8
1806.578	988.8
1810.924	983.8
1815.266	960.8
1819.603	971.8
1823.937	964.8
1828.266	972.8
1832.591	961.8
1836.913	962.8
1841.23	954.8
1845.543	977.8
1849.852	956.8
1854.156	947.8
1858.457	970.8
1862.754	954.8
1867.047	969.8
1871.335	955.8
1875.62	953.8
1879.9	953.8
1884.177	947.8
1888.449	947.8
1892.718	918.8
1896.982	914.8
1901.243	904.8
1905.499	900.8
1909.752	887.8
1914	871.8
1918.245	870.8
1922.485	841.8
1926.722	850.8
1930.954	847.8
1935.183	838.8
1939.408	847.8
1943.628	834.8
1947.845	830.8
1952.058	824.8
1956.267	808.8
1960.472	800.8
1964.673	793.8
1968.87	785.8
1973.063	781.8
1977.252	776.8
1981.438	794.8
1985.619	779.8
1989.797	773.8
1993.971	792.8
1998.14	781.8
2002.306	784.8
2006.469	786.8
2010.627	784.8
2014.781	787.8
2018.932	775.8
2023.078	767.8
2027.221	763.8
2031.36	764.8
2035.495	765.8
2039.627	753.8
2043.754	726.8
2047.878	726.8
2051.998	727.8
2056.114	720.8
2060.226	723.8
2064.334	719.8
2068.439	716.8
2072.54	711.8
2076.637	713.8
2080.73	707.8
2084.82	703.8
2088.906	708.8
2092.988	708.8
2097.066	692.8
2101.14	690.8
2105.211	671.8
2109.278	662.8
2113.342	646.8
2117.401	649.8
2121.457	645.8
2125.509	640.8
2129.558	639.8
2133.602	654.8
2137.643	640.8
2141.681	632.8
2145.714	637.8
2149.744	629.8
2153.77	627.8
2157.793	632.8
2161.812	627.8
2165.827	617.8
2169.838	593.8
2173.846	596.8
2177.851	587.8
2181.851	569.8
2185.848	574.8
2189.841	570.8
2193.831	564.8
2197.817	553.8
2201.799	558.8
2205.778	549.8
2209.753	545.8
2213.725	561.8
2217.693	550.8
2221.657	545.8
2225.618	553.8
2229.575	547.8
2233.529	538.8
2237.479	532.8
2241.425	525.8
2245.368	510.8
2249.307	512.8
2253.243	504.8
2257.175	489.8
2261.104	505.8
2265.029	482.8
2268.95	486.8
2272.868	468.8
2276.783	462.8
2280.694	455.8
2284.601	458.8
2288.505	446.8
2292.405	451.8
2296.302	438.8
2300.195	430.8
2304.085	427.8
2307.971	422.8
2311.854	407.8
2315.734	400.8
2319.609	388.8
2323.482	401.8
2327.351	401.8
2331.216	411.8
2335.078	412.8
2338.937	396.8
2342.792	378.8
2346.643	375.8
2350.492	366.8
2354.336	375.8
2358.178	371.8
2362.015	383.8
2365.85	383.8
2369.681	379.8
2373.508	375.8
2377.333	371.8
2381.153	375.8
2384.971	380.8
2388.785	373.8
2392.595	386.8
2396.402	362.8
2400.206	352.8
2404.007	355.8
2407.804	362.8
2411.597	359.8
2415.388	343.8
2419.174	347.8
2422.958	352.8
2426.738	337.8
2430.515	338.8
2434.289	341.8
2438.059	336.8
2441.825	338.8
2445.589	337.8
2449.349	324.8
2453.106	308.8
2456.859	315.8
2460.61	313.8
2464.356	319.8
2468.1	308.8
2471.84	308.8
2475.577	300.8
2479.311	290.8
2483.041	295.8
2486.768	292.8
2490.492	294.8
2494.213	294.8
2497.93	299.8
2501.644	293.8
2505.355	285.8
2509.062	279.8
2512.766	283.8
2516.467	272.8
2520.165	278.8
2523.859	276.8
2527.551	262.8
2531.239	251.8
2534.923	259.8
2538.605	264.8
2542.283	257.8
2545.958	256.8
2549.63	245.8
2553.299	250.8
2556.964	246.8
2560.626	237.8
2564.285	229.8
2567.941	236.8
2571.594	230.8
2575.243	233.8
2578.89	222.8
2582.533	223.8
2586.173	216.8
2589.809	214.8
2593.443	213.8
2597.073	206.8
2600.701	205.8
2604.325	205.8
2607.946	215.8
2611.564	207.8
2615.178	201.8
2618.79	195.8
2622.398	207.8
2626.004	199.8
2629.606	198.8
2633.205	191.8
2636.801	196.8
2640.394	190.8
2643.983	183.8
2647.57	184.8
2651.153	186.8
2654.734	188.8
2658.311	171.8
2661.885	168.8
2665.456	179.8
2669.025	175.8
2672.589	173.8
2676.151	175.8
2679.71	168.8
2683.266	155.8
2686.819	167.8
2690.368	161.8
2693.915	154.8
2697.458	152.8
2700.999	147.8
2704.536	152.8
2708.071	143.8
2711.602	148.8
2715.13	146.8
2718.656	135.8
2722.178	136.8
2725.697	140.8
2729.214	133.8
2732.727	138.8
2736.237	134.8
2739.744	131.8
2743.249	131.8
2746.75	130.8
2750.248	131.8
2753.743	128.8
2757.236	121.8
2760.725	109.8
2764.211	115.8
2767.695	100.8
2771.175	108.8
2774.652	106.8
2778.127	113.8
2781.598	111.8
2785.067	109.8
2788.532	100.8
2791.995	103.8
2795.455	108.8
2798.911	104.8
2802.365	117.8
2805.816	116.8
2809.264	109.8
2812.709	114.8
2816.151	103.8
2819.59	107.8
2823.026	102.8
2826.46	106.8
2829.89	112.8
2833.318	103.8
2836.742	116.8
2840.164	107.8
2843.583	113.8
2846.999	112.8
2850.412	111.8
2853.822	111.8
2857.229	111.8
2860.634	121.8
2864.035	122.8
2867.434	126.8
2870.83	131.8
2874.223	145.8
2877.613	143.8
2881	154.8
2884.385	149.8
2887.766	140.8
2891.145	138.8
2894.521	147.8
2897.894	153.8
2901.264	149.8
2904.631	144.8
2907.996	168.8
2911.358	147.8
2914.717	158.8
2918.073	164.8
2921.426	170.8
2924.777	175.8
2928.124	182.8
2931.469	175.8
2934.811	189.8
2938.15	191.8
2941.487	194.8
2944.821	181.8
2948.152	196.8
2951.48	201.8
2954.805	204.8
2958.128	195.8
2961.447	185.8
2964.765	198.8
2968.079	187.8
2971.39	190.8
2974.699	200.8
2978.005	190.8
2981.308	209.8
2984.609	201.8
2987.907	199.8
2991.202	205.8
2994.494	202.8
2997.784	209.8
3001.07	217.8
3004.355	229.8
3007.636	221.8
3010.915	214.8
3014.191	226.8
3017.464	233.8
3020.734	230.8
3024.002	228.8
3027.267	246.8
3030.53	239.8
3033.789	252.8
3037.046	255.8
3040.301	259.8
3043.552	273.8
3046.801	273.8
3050.048	283.8
3053.291	291.8
3056.532	298.8
3059.771	322.8
3063.006	318.8
3066.239	331.8
3069.469	349.8
3072.697	362.8
3075.922	368.8
3079.144	364.8
3082.364	390.8
3085.581	394.8
3088.795	399.8
3092.007	412.8
3095.216	414.8
3098.423	418.8
3101.627	445.8
3104.828	446.8
3108.026	442.8
3111.222	461.8
3114.416	470.8
3117.607	483.8
3120.795	504.8
3123.98	504.8
3127.163	519.8
3130.344	540.8
3133.521	549.8
3136.696	556.8
3139.869	545.8
3143.039	567.8
3146.206	587.8
3149.371	594.8
3152.533	599.8
3155.693	609.8
3158.85	615.8
3162.005	606.8
3165.157	610.8
3168.306	613.8
3171.453	618.8
3174.597	623.8
3177.739	631.8
3180.878	631.8
3184.014	640.8
3187.149	636.8
3190.28	632.8
3193.409	640.8
3196.536	650.8
3199.659	658.8
3202.781	656.8
3205.9	656.8
3209.016	658.8
3212.13	660.8
3215.241	643.8
3218.35	645.8
3221.456	641.8
3224.56	630.8
3227.661	616.8
3230.76	608.8
3233.856	603.8
3236.95	594.8
3240.041	591.8
3243.13	575.8
3246.216	569.8
3249.3	557.8
3252.382	553.8
3255.46	550.8
3258.537	549.8
3261.611	551.8
3264.682	527.8
3267.751	533.8
3270.818	534.8
3273.882	526.8
3276.943	521.8
3280.002	523.8
3283.059	521.8
3286.113	510.8
3289.165	509.8
3292.214	504.8
3295.261	486.8
3298.306	494.8
3301.348	491.8
3304.387	479.8
3307.425	479.8
3310.459	475.8
3313.492	469.8
3316.521	452.8
3319.549	443.8
3322.574	455.8
3325.597	442.8
3328.617	445.8
3331.635	442.8
3334.65	440.8
3337.663	437.8
3340.674	443.8
3343.682	438.8
3346.688	435.8
3349.691	437.8
3352.692	433.8
3355.691	437.8
3358.687	418.8
3361.681	430.8
3364.673	408.8
3367.662	402.8
3370.649	407.8
3373.633	395.8
3376.615	379.8
3379.595	374.8
3382.572	385.8
3385.547	369.8
3388.52	375.8
3391.49	366.8
3394.458	348.8
3397.424	343.8
3400.387	345.8
3403.348	336.8
3406.307	327.8
3409.263	326.8
3412.217	324.8
3415.168	327.8
3418.118	321.8
3421.065	302.8
3424.009	311.8
3426.951	303.8
3429.891	291.8
3432.829	282.8
3435.764	278.8
3438.697	274.8
3441.628	258.8
3444.557	260.8
3447.483	243.8
3450.407	237.8
3453.328	224.8
3456.247	218.8
3459.164	201.8
3462.079	200.8
3464.991	203.8
3467.902	186.8
3470.809	186.8
3473.715	164.8
3476.618	154.8
3479.519	155.8
3482.418	141.8
3485.315	136.8
3488.209	127.8
3491.101	129.8
3493.99	133.8
3496.878	110.8
3499.763	105.8
3502.646	93.8
3505.527	88.8
3508.405	89.8
3511.281	79.8
3514.155	79.8
3517.027	71.8
3519.897	67.8
3522.764	50.8
3525.629	36.8
3528.492	33.8
3531.352	29.8
3534.211	27.8
3537.067	17.8
3539.921	16.8
3542.773	8.8
3545.622	-1.2
3548.469	-2.2
3551.315	-0.2
3554.157	-5.2
3556.998	-11.2
3559.837	-17.2
3562.673	-22.2
3565.507	-16.2
3568.339	-38.2
3571.169	-40.2
3573.996	-36.2
3576.822	-37.2
3579.645	-37.2
3582.466	-34.2
3585.285	-48.2
3588.101	-40.2
3590.916	-59.2
3593.728	-59.2
3596.538	-58.2
3599.346	-59.2
3602.152	-61.2
3604.956	-68.2
3607.757	-66.2
3610.556	-74.2
3613.354	-66.2
3616.149	-75.2
3618.942	-80.2
3621.732	-74.2
3624.521	-82.2
3627.307	-80.2
3630.092	-82.2
3632.874	-81.2
3635.654	-91.2
3638.432	-85.2
3641.208	-89.2
3643.982	-92.2
3646.753	-95.2
3649.523	-98.2
3652.29	-93.2
3655.055	-96.2
3657.818	-100.2
3660.579	-104.2
3663.338	-103.2
3666.095	-104.2
3668.849	-107.2
3671.602	-110.2
3674.352	-111.2
3677.101	-109.2
3679.847	-113.2
3682.591	-113.2
3685.333	-108.2
3688.073	-115.2
3690.811	-116.2
3693.547	-124.2
3696.281	-124.2
3699.013	-122.2
3701.742	-119.2
3704.47	-120.2
3707.195	-117.2
3709.919	-121.2
3712.64	-123.2
3715.359	-131.2
3718.076	-126.2
3720.792	-126.2
3723.505	-129.2
3726.216	-123.2
3728.925	-125.2
3731.632	-127.2
3734.336	-135.2
3737.039	-131.2
3739.74	-135.2
3742.439	-134.2
3745.136	-124.2
3747.83	-137.2
3750.523	-131.2
3753.213	-129.2
3755.902	-129.2
3758.589	-137.2
3761.273	-126.2
3763.956	-128.2
3766.636	-135.2
3769.315	-124.2
3771.991	-123.2
3774.665	-136.2
3777.338	-132.2
3780.008	-131.2
3782.677	-132.2
3785.343	-130.2
3788.007	-132.2
3790.67	-136.2
3793.33	-131.2
3795.989	-134.2
3798.645	-133.2
3801.299	-134.2
3803.952	-135.2
3806.602	-130.2
3809.251	-144.2
3811.897	-140.2
3814.542	-143.2
3817.184	-132.2
3819.825	-136.2
3822.463	-132.2
3825.1	-134.2
3827.735	-136.2
3830.367	-135.2
3832.998	-143.2
3835.627	-140.2
3838.253	-131.2
3840.878	-135.2
3843.501	-132.2
3846.122	-135.2
3848.741	-139.2
3851.358	-135.2
3853.973	-139.2
3856.586	-136.2
3859.197	-141.2
3861.806	-132.2
3864.414	-137.2
3867.019	-132.2
3869.622	-130.2
3872.224	-127.2
3874.823	-115.2
3877.421	-100.2
3880.016	-75.2
3882.61	-52.2
3885.202	-50.2
3887.792	-71.2
3890.38	-94.2
3892.966	-125.2
3895.55	-130.2
3898.132	-137.2
3900.713	-130.2
3903.291	-138.2
3905.868	-139.2
3908.442	-134.2
3911.015	-138.2
3913.586	-143.2
3916.155	-135.2
3918.722	-136.2
3921.287	-138.2
3923.85	-141.2
3926.411	-142.2
3928.971	-142.2
3931.528	-144.2
3934.084	-138.2
3936.638	-133.2
3939.19	-140.2
3941.74	-139.2
3944.288	-132.2
3946.834	-136.2
3949.378	-141.2
3951.921	-138.2
3954.462	-145.2
3957	-138.2
3959.537	-131.2
3962.072	-139.2
3964.606	-132.2
3967.137	-139.2
3969.667	-138.2
3972.194	-144.2
3974.72	-143.2
3977.244	-139.2
3979.766	-133.2
3982.286	-132.2
3984.805	-137.2
3987.321	-136.2
3989.836	-127.2
3992.349	-138.2
3994.86	-139.2
3997.369	-144.2
3999.877	-135.2
4002.382	-133.2
4004.886	-135.2
4007.388	-137.2
4009.888	-133.2
4012.386	-139.2
4014.883	-142.2
4017.377	-138.2
4019.87	-135.2
4022.361	-139.2
4024.85	-137.2
4027.338	-137.2
4029.823	-135.2
4032.307	-135.2
4034.789	-141.2
4037.269	-140.2
4039.747	-133.2
4042.224	-134.2
4044.699	-138.2
4047.172	-135.2
4049.643	-135.2
4052.112	-135.2
4054.58	-139.2
4057.046	-133.2
4059.51	-137.2
4061.972	-132.2
4064.432	-139.2
4066.891	-134.2
4069.348	-131.2
4071.803	-140.2
4074.256	-136.2
4076.708	-134.2
4079.158	-139.2
4081.606	-126.2
4084.052	-138.2
4086.497	-135.2
4088.939	-129.2
4091.38	-132.2
4093.819	-138.2
4096.257	-143.2
4098.693	-142.2
4101.127	-141.2
4103.559	-140.2
4105.989	14.8
4108.418	9.8
4110.845	12.8
4113.27	5.8
4115.694	-6.2
4118.115	0.8
4120.535	-141.2
4122.954	-140.2
4125.37	-133.2
4127.785	-136.2
4130.198	-132.2
4132.609	-135.2
4135.019	-142.2
4137.427	-147.2
4139.833	-146.2
4142.237	-143.2
