Data from 2018-2-8_conc=3_n=2_RamanShift_05.txt Node
Date: Mon Mar 12 14:33:58 IST 2018
User: aro
Spectrometer: QEPB0276
Trigger mode: 0
Integration Time (sec): 3.000000E1
Scans to average: 1
Electric dark correction enabled: true
Nonlinearity correction enabled: false
Boxcar width: 0
XAxis mode: Raman Shifts
Number of Pixels in Spectrum: 1044
>>>>>Begin Spectral Data<<<<<
160.701	10.4
166.742	42.4
172.777	129.4
178.805	403.4
184.826	1100.4
190.841	2379.4
196.849	4004.4
202.85	5245.4
208.845	5726.4
214.833	5753.4
220.815	5682.4
226.789	5634.4
232.758	5594.4
238.719	5570.4
244.674	5560.4
250.623	5472.4
256.565	5402.4
262.5	5263.4
268.429	5202.4
274.351	5152.4
280.267	5102.4
286.176	5067.4
292.079	5021.4
297.975	5006.4
303.865	5005.4
309.748	4967.4
315.625	4937.4
321.495	4928.4
327.359	4913.4
333.217	4905.4
339.068	4911.4
344.912	4920.4
350.751	4926.4
356.583	4947.4
362.408	4918.4
368.227	4929.4
374.04	4948.4
379.847	4969.4
385.647	4973.4
391.44	4981.4
397.228	5029.4
403.009	5072.4
408.784	5070.4
414.553	5087.4
420.315	5082.4
426.071	5116.4
431.821	5117.4
437.565	5078.4
443.302	5094.4
449.033	5073.4
454.758	5078.4
460.477	5014.4
466.189	5004.4
471.896	4977.4
477.596	4956.4
483.29	4950.4
488.978	4902.4
494.66	4904.4
500.335	4829.4
506.005	4719.4
511.668	4587.4
517.325	4453.4
522.977	4355.4
528.622	4302.4
534.261	4228.4
539.894	4198.4
545.521	4168.4
551.141	4142.4
556.756	4087.4
562.365	4061.4
567.968	4060.4
573.565	4036.4
579.155	4001.4
584.74	3979.4
590.319	3988.4
595.892	3968.4
601.459	3959.4
607.02	3957.4
612.575	3920.4
618.124	3864.4
623.667	3832.4
629.204	3803.4
634.735	3768.4
640.261	3738.4
645.781	3733.4
651.294	3750.4
656.802	3704.4
662.304	3694.4
667.8	3689.4
673.29	3714.4
678.775	3681.4
684.254	3703.4
689.726	3665.4
695.193	3627.4
700.655	3623.4
706.11	3591.4
711.56	3583.4
717.004	3582.4
722.442	3548.4
727.874	3522.4
733.301	3493.4
738.722	3497.4
744.137	3484.4
749.547	3485.4
754.951	3467.4
760.349	3499.4
765.741	3506.4
771.128	3486.4
776.509	3546.4
781.885	3523.4
787.254	3548.4
792.618	3547.4
797.977	3533.4
803.33	3502.4
808.677	3460.4
814.019	3460.4
819.355	3397.4
824.686	3423.4
830.011	3372.4
835.33	3364.4
840.644	3359.4
845.952	3367.4
851.255	3385.4
856.552	3358.4
861.844	3336.4
867.13	3334.4
872.41	3314.4
877.686	3277.4
882.955	3261.4
888.219	3242.4
893.478	3206.4
898.731	3154.4
903.979	3108.4
909.221	3090.4
914.458	3038.4
919.69	3077.4
924.916	3078.4
930.136	3081.4
935.351	3094.4
940.561	3096.4
945.766	3066.4
950.965	3075.4
956.158	3040.4
961.347	3027.4
966.529	2976.4
971.707	2935.4
976.879	2901.4
982.046	2860.4
987.208	2843.4
992.364	2852.4
997.515	2855.4
1002.66	2881.4
1007.801	2941.4
1012.936	2922.4
1018.066	2947.4
1023.19	2946.4
1028.309	2933.4
1033.423	2949.4
1038.532	2932.4
1043.636	2901.4
1048.734	2895.4
1053.827	2857.4
1058.915	2813.4
1063.998	2809.4
1069.075	2788.4
1074.147	2766.4
1079.214	2781.4
1084.276	2802.4
1089.333	2806.4
1094.385	2826.4
1099.431	2843.4
1104.472	2816.4
1109.509	2793.4
1114.54	2763.4
1119.565	2737.4
1124.586	2708.4
1129.602	2662.4
1134.613	2645.4
1139.618	2638.4
1144.619	2632.4
1149.614	2636.4
1154.604	2647.4
1159.589	2631.4
1164.57	2636.4
1169.545	2631.4
1174.515	2646.4
1179.48	2650.4
1184.44	2611.4
1189.395	2603.4
1194.345	2570.4
1199.29	2570.4
1204.23	2560.4
1209.165	2562.4
1214.095	2587.4
1219.021	2612.4
1223.941	2652.4
1228.856	2754.4
1233.766	2642.4
1238.672	2636.4
1243.572	2632.4
1248.467	2616.4
1253.358	2575.4
1258.244	2542.4
1263.124	2513.4
1268	2453.4
1272.871	2433.4
1277.737	2417.4
1282.599	2399.4
1287.455	2404.4
1292.306	2414.4
1297.153	2410.4
1301.995	2453.4
1306.832	2446.4
1311.664	2468.4
1316.491	2470.4
1321.314	2460.4
1326.132	2456.4
1330.945	2425.4
1335.753	2391.4
1340.556	2361.4
1345.354	2311.4
1350.148	2267.4
1354.937	2255.4
1359.722	2200.4
1364.501	2177.4
1369.276	2121.4
1374.046	2069.4
1378.811	2063.4
1383.572	2038.4
1388.327	2047.4
1393.079	2067.4
1397.825	2050.4
1402.567	2048.4
1407.304	2049.4
1412.036	2069.4
1416.764	2055.4
1421.487	2087.4
1426.205	2082.4
1430.919	2067.4
1435.628	2092.4
1440.333	2108.4
1445.032	2115.4
1449.727	2144.4
1454.418	2151.4
1459.104	2141.4
1463.785	2105.4
1468.462	2089.4
1473.134	2043.4
1477.802	2004.4
1482.465	1954.4
1487.123	1942.4
1491.777	1898.4
1496.426	1875.4
1501.071	1841.4
1505.711	1851.4
1510.347	1843.4
1514.978	1837.4
1519.604	1851.4
1524.226	1821.4
1528.844	1823.4
1533.457	1805.4
1538.065	1806.4
1542.669	1802.4
1547.269	1805.4
1551.864	1803.4
1556.454	1818.4
1561.041	1834.4
1565.622	1851.4
1570.199	1844.4
1574.772	1857.4
1579.34	1906.4
1583.904	1924.4
1588.464	1935.4
1593.019	1942.4
1597.569	1948.4
1602.115	1950.4
1606.657	1948.4
1611.195	1943.4
1615.728	1942.4
1620.256	1929.4
1624.78	1939.4
1629.3	1935.4
1633.816	1929.4
1638.327	1968.4
1642.834	1954.4
1647.336	1968.4
1651.834	1978.4
1656.328	1980.4
1660.817	1940.4
1665.302	1966.4
1669.783	1890.4
1674.259	1849.4
1678.732	1844.4
1683.199	1773.4
1687.663	1711.4
1692.122	1652.4
1696.577	1603.4
1701.028	1519.4
1705.474	1471.4
1709.917	1410.4
1714.355	1389.4
1718.788	1370.4
1723.218	1361.4
1727.643	1375.4
1732.064	1362.4
1736.481	1350.4
1740.893	1346.4
1745.301	1308.4
1749.705	1275.4
1754.105	1251.4
1758.501	1234.4
1762.893	1205.4
1767.28	1202.4
1771.663	1200.4
1776.042	1163.4
1780.417	1157.4
1784.787	1170.4
1789.154	1141.4
1793.516	1131.4
1797.874	1128.4
1802.228	1100.4
1806.578	1082.4
1810.924	1070.4
1815.266	1054.4
1819.603	1064.4
1823.937	1056.4
1828.266	1062.4
1832.591	1054.4
1836.913	1059.4
1841.23	1056.4
1845.543	1056.4
1849.852	1046.4
1854.156	1070.4
1858.457	1049.4
1862.754	1064.4
1867.047	1057.4
1871.335	1042.4
1875.62	1069.4
1879.9	1063.4
1884.177	1066.4
1888.449	1043.4
1892.718	1026.4
1896.982	1012.4
1901.243	999.4
1905.499	991.4
1909.752	975.4
1914	959.4
1918.245	972.4
1922.485	937.4
1926.722	936.4
1930.954	939.4
1935.183	934.4
1939.408	919.4
1943.628	907.4
1947.845	911.4
1952.058	898.4
1956.267	897.4
1960.472	889.4
1964.673	860.4
1968.87	853.4
1973.063	865.4
1977.252	860.4
1981.438	847.4
1985.619	860.4
1989.797	856.4
1993.971	866.4
1998.14	870.4
2002.306	851.4
2006.469	871.4
2010.627	867.4
2014.781	877.4
2018.932	864.4
2023.078	876.4
2027.221	857.4
2031.36	859.4
2035.495	845.4
2039.627	826.4
2043.754	816.4
2047.878	818.4
2051.998	814.4
2056.114	810.4
2060.226	805.4
2064.334	804.4
2068.439	792.4
2072.54	786.4
2076.637	799.4
2080.73	785.4
2084.82	786.4
2088.906	776.4
2092.988	784.4
2097.066	768.4
2101.14	753.4
2105.211	736.4
2109.278	741.4
2113.342	734.4
2117.401	722.4
2121.457	710.4
2125.509	719.4
2129.558	702.4
2133.602	710.4
2137.643	702.4
2141.681	705.4
2145.714	703.4
2149.744	711.4
2153.77	704.4
2157.793	697.4
2161.812	703.4
2165.827	680.4
2169.838	690.4
2173.846	669.4
2177.851	664.4
2181.851	655.4
2185.848	652.4
2189.841	645.4
2193.831	634.4
2197.817	639.4
2201.799	631.4
2205.778	635.4
2209.753	627.4
2213.725	618.4
2217.693	616.4
2221.657	603.4
2225.618	616.4
2229.575	615.4
2233.529	617.4
2237.479	594.4
2241.425	603.4
2245.368	585.4
2249.307	586.4
2253.243	586.4
2257.175	580.4
2261.104	560.4
2265.029	553.4
2268.95	538.4
2272.868	548.4
2276.783	527.4
2280.694	526.4
2284.601	525.4
2288.505	516.4
2292.405	504.4
2296.302	517.4
2300.195	516.4
2304.085	472.4
2307.971	496.4
2311.854	476.4
2315.734	468.4
2319.609	447.4
2323.482	461.4
2327.351	452.4
2331.216	472.4
2335.078	484.4
2338.937	464.4
2342.792	444.4
2346.643	438.4
2350.492	434.4
2354.336	447.4
2358.178	450.4
2362.015	448.4
2365.85	447.4
2369.681	447.4
2373.508	455.4
2377.333	451.4
2381.153	447.4
2384.971	456.4
2388.785	446.4
2392.595	444.4
2396.402	435.4
2400.206	436.4
2404.007	426.4
2407.804	440.4
2411.597	428.4
2415.388	434.4
2419.174	423.4
2422.958	422.4
2426.738	423.4
2430.515	419.4
2434.289	415.4
2438.059	415.4
2441.825	406.4
2445.589	413.4
2449.349	392.4
2453.106	398.4
2456.859	404.4
2460.61	394.4
2464.356	387.4
2468.1	382.4
2471.84	376.4
2475.577	374.4
2479.311	360.4
2483.041	365.4
2486.768	365.4
2490.492	362.4
2494.213	366.4
2497.93	359.4
2501.644	360.4
2505.355	353.4
2509.062	332.4
2512.766	339.4
2516.467	339.4
2520.165	330.4
2523.859	329.4
2527.551	330.4
2531.239	315.4
2534.923	311.4
2538.605	304.4
2542.283	305.4
2545.958	299.4
2549.63	306.4
2553.299	294.4
2556.964	304.4
2560.626	297.4
2564.285	287.4
2567.941	288.4
2571.594	285.4
2575.243	273.4
2578.89	276.4
2582.533	266.4
2586.173	273.4
2589.809	271.4
2593.443	261.4
2597.073	259.4
2600.701	263.4
2604.325	244.4
2607.946	248.4
2611.564	257.4
2615.178	260.4
2618.79	261.4
2622.398	255.4
2626.004	247.4
2629.606	237.4
2633.205	238.4
2636.801	239.4
2640.394	244.4
2643.983	233.4
2647.57	229.4
2651.153	237.4
2654.734	228.4
2658.311	222.4
2661.885	230.4
2665.456	220.4
2669.025	220.4
2672.589	214.4
2676.151	226.4
2679.71	225.4
2683.266	210.4
2686.819	208.4
2690.368	202.4
2693.915	195.4
2697.458	195.4
2700.999	193.4
2704.536	197.4
2708.071	189.4
2711.602	190.4
2715.13	192.4
2718.656	180.4
2722.178	178.4
2725.697	170.4
2729.214	173.4
2732.727	172.4
2736.237	165.4
2739.744	170.4
2743.249	153.4
2746.75	161.4
2750.248	155.4
2753.743	144.4
2757.236	149.4
2760.725	150.4
2764.211	147.4
2767.695	141.4
2771.175	130.4
2774.652	141.4
2778.127	134.4
2781.598	129.4
2785.067	142.4
2788.532	137.4
2791.995	137.4
2795.455	144.4
2798.911	136.4
2802.365	135.4
2805.816	148.4
2809.264	137.4
2812.709	149.4
2816.151	148.4
2819.59	145.4
2823.026	150.4
2826.46	141.4
2829.89	142.4
2833.318	140.4
2836.742	147.4
2840.164	146.4
2843.583	142.4
2846.999	151.4
2850.412	154.4
2853.822	151.4
2857.229	147.4
2860.634	157.4
2864.035	153.4
2867.434	156.4
2870.83	168.4
2874.223	186.4
2877.613	183.4
2881	197.4
2884.385	199.4
2887.766	180.4
2891.145	185.4
2894.521	181.4
2897.894	188.4
2901.264	197.4
2904.631	196.4
2907.996	201.4
2911.358	200.4
2914.717	207.4
2918.073	203.4
2921.426	217.4
2924.777	211.4
2928.124	230.4
2931.469	224.4
2934.811	233.4
2938.15	236.4
2941.487	240.4
2944.821	243.4
2948.152	247.4
2951.48	238.4
2954.805	252.4
2958.128	244.4
2961.447	237.4
2964.765	237.4
2968.079	235.4
2971.39	242.4
2974.699	243.4
2978.005	237.4
2981.308	250.4
2984.609	248.4
2987.907	248.4
2991.202	248.4
2994.494	250.4
2997.784	254.4
3001.07	265.4
3004.355	267.4
3007.636	274.4
3010.915	264.4
3014.191	274.4
3017.464	286.4
3020.734	276.4
3024.002	271.4
3027.267	289.4
3030.53	285.4
3033.789	300.4
3037.046	306.4
3040.301	316.4
3043.552	330.4
3046.801	334.4
3050.048	343.4
3053.291	348.4
3056.532	369.4
3059.771	382.4
3063.006	385.4
3066.239	409.4
3069.469	423.4
3072.697	414.4
3075.922	438.4
3079.144	441.4
3082.364	454.4
3085.581	465.4
3088.795	468.4
3092.007	486.4
3095.216	496.4
3098.423	512.4
3101.627	516.4
3104.828	532.4
3108.026	538.4
3111.222	554.4
3114.416	557.4
3117.607	576.4
3120.795	587.4
3123.98	586.4
3127.163	606.4
3130.344	627.4
3133.521	640.4
3136.696	647.4
3139.869	666.4
3143.039	686.4
3146.206	686.4
3149.371	695.4
3152.533	691.4
3155.693	709.4
3158.85	717.4
3162.005	716.4
3165.157	714.4
3168.306	724.4
3171.453	740.4
3174.597	741.4
3177.739	745.4
3180.878	737.4
3184.014	738.4
3187.149	739.4
3190.28	752.4
3193.409	754.4
3196.536	755.4
3199.659	766.4
3202.781	766.4
3205.9	768.4
3209.016	763.4
3212.13	759.4
3215.241	755.4
3218.35	739.4
3221.456	738.4
3224.56	724.4
3227.661	733.4
3230.76	699.4
3233.856	705.4
3236.95	698.4
3240.041	695.4
3243.13	692.4
3246.216	675.4
3249.3	660.4
3252.382	651.4
3255.46	649.4
3258.537	639.4
3261.611	636.4
3264.682	627.4
3267.751	627.4
3270.818	624.4
3273.882	625.4
3276.943	608.4
3280.002	614.4
3283.059	615.4
3286.113	595.4
3289.165	600.4
3292.214	600.4
3295.261	578.4
3298.306	584.4
3301.348	562.4
3304.387	556.4
3307.425	552.4
3310.459	552.4
3313.492	536.4
3316.521	548.4
3319.549	543.4
3322.574	533.4
3325.597	530.4
3328.617	536.4
3331.635	517.4
3334.65	526.4
3337.663	511.4
3340.674	523.4
3343.682	520.4
3346.688	515.4
3349.691	519.4
3352.692	514.4
3355.691	517.4
3358.687	507.4
3361.681	516.4
3364.673	505.4
3367.662	475.4
3370.649	494.4
3373.633	460.4
3376.615	460.4
3379.595	447.4
3382.572	458.4
3385.547	444.4
3388.52	451.4
3391.49	436.4
3394.458	429.4
3397.424	425.4
3400.387	402.4
3403.348	408.4
3406.307	396.4
3409.263	395.4
3412.217	387.4
3415.168	392.4
3418.118	397.4
3421.065	368.4
3424.009	368.4
3426.951	372.4
3429.891	352.4
3432.829	338.4
3435.764	343.4
3438.697	317.4
3441.628	316.4
3444.557	317.4
3447.483	300.4
3450.407	280.4
3453.328	286.4
3456.247	270.4
3459.164	254.4
3462.079	245.4
3464.991	230.4
3467.902	216.4
3470.809	224.4
3473.715	211.4
3476.618	207.4
3479.519	202.4
3482.418	181.4
3485.315	174.4
3488.209	159.4
3491.101	155.4
3493.99	163.4
3496.878	148.4
3499.763	142.4
3502.646	130.4
3505.527	127.4
3508.405	117.4
3511.281	105.4
3514.155	105.4
3517.027	100.4
3519.897	88.4
3522.764	83.4
3525.629	76.4
3528.492	58.4
3531.352	59.4
3534.211	44.4
3537.067	40.4
3539.921	34.4
3542.773	30.4
3545.622	17.4
3548.469	21.4
3551.315	11.4
3554.157	4.4
3556.998	-8.6
3559.837	-1.6
3562.673	-6.6
3565.507	-8.6
3568.339	-16.6
3571.169	-27.6
3573.996	-18.6
3576.822	-23.6
3579.645	-30.6
3582.466	-31.6
3585.285	-37.6
3588.101	-30.6
3590.916	-44.6
3593.728	-54.6
3596.538	-42.6
3599.346	-56.6
3602.152	-55.6
3604.956	-60.6
3607.757	-55.6
3610.556	-61.6
3613.354	-57.6
3616.149	-75.6
3618.942	-72.6
3621.732	-72.6
3624.521	-76.6
3627.307	-80.6
3630.092	-82.6
3632.874	-77.6
3635.654	-86.6
3638.432	-76.6
3641.208	-82.6
3643.982	-93.6
3646.753	-90.6
3649.523	-96.6
3652.29	-90.6
3655.055	-97.6
3657.818	-93.6
3660.579	-95.6
3663.338	-94.6
3666.095	-102.6
3668.849	-103.6
3671.602	-106.6
3674.352	-103.6
3677.101	-108.6
3679.847	-110.6
3682.591	-112.6
3685.333	-110.6
3688.073	-112.6
3690.811	-114.6
3693.547	-121.6
3696.281	-115.6
3699.013	-123.6
3701.742	-120.6
3704.47	-124.6
3707.195	-113.6
3709.919	-118.6
3712.64	-118.6
3715.359	-127.6
3718.076	-120.6
3720.792	-126.6
3723.505	-128.6
3726.216	-123.6
3728.925	-129.6
3731.632	-121.6
3734.336	-132.6
3737.039	-126.6
3739.74	-130.6
3742.439	-137.6
3745.136	-124.6
3747.83	-136.6
3750.523	-129.6
3753.213	-140.6
3755.902	-125.6
3758.589	-136.6
3761.273	-128.6
3763.956	-128.6
3766.636	-133.6
3769.315	-126.6
3771.991	-132.6
3774.665	-140.6
3777.338	-125.6
3780.008	-128.6
3782.677	-135.6
3785.343	-131.6
3788.007	-131.6
3790.67	-132.6
3793.33	-135.6
3795.989	-134.6
3798.645	-131.6
3801.299	-134.6
3803.952	-136.6
3806.602	-131.6
3809.251	-140.6
3811.897	-140.6
3814.542	-138.6
3817.184	-132.6
3819.825	-135.6
3822.463	-137.6
3825.1	-132.6
3827.735	-132.6
3830.367	-136.6
3832.998	-136.6
3835.627	-142.6
3838.253	-135.6
3840.878	-134.6
3843.501	-128.6
3846.122	-133.6
3848.741	-139.6
3851.358	-133.6
3853.973	-145.6
3856.586	-134.6
3859.197	-140.6
3861.806	-138.6
3864.414	-134.6
3867.019	-134.6
3869.622	-135.6
3872.224	-125.6
3874.823	-126.6
3877.421	-108.6
3880.016	-91.6
3882.61	-64.6
3885.202	-72.6
3887.792	-84.6
3890.38	-107.6
3892.966	-126.6
3895.55	-135.6
3898.132	-134.6
3900.713	-136.6
3903.291	-135.6
3905.868	-142.6
3908.442	-135.6
3911.015	-137.6
3913.586	-135.6
3916.155	-143.6
3918.722	-139.6
3921.287	-142.6
3923.85	-135.6
3926.411	-144.6
3928.971	-133.6
3931.528	-140.6
3934.084	-135.6
3936.638	-128.6
3939.19	-144.6
3941.74	-142.6
3944.288	-138.6
3946.834	-139.6
3949.378	-139.6
3951.921	-138.6
3954.462	-148.6
3957	-138.6
3959.537	-134.6
3962.072	-145.6
3964.606	-136.6
3967.137	-139.6
3969.667	-142.6
3972.194	-142.6
3974.72	-140.6
3977.244	-140.6
3979.766	-140.6
3982.286	-137.6
3984.805	-138.6
3987.321	-137.6
3989.836	-132.6
3992.349	-135.6
3994.86	-139.6
3997.369	-140.6
3999.877	-140.6
4002.382	-134.6
4004.886	-138.6
4007.388	-139.6
4009.888	-133.6
4012.386	-140.6
4014.883	-136.6
4017.377	-135.6
4019.87	-136.6
4022.361	-139.6
4024.85	-140.6
4027.338	-139.6
4029.823	-137.6
4032.307	-131.6
4034.789	-139.6
4037.269	-140.6
4039.747	-134.6
4042.224	-132.6
4044.699	-140.6
4047.172	-135.6
4049.643	-135.6
4052.112	-138.6
4054.58	-135.6
4057.046	-139.6
4059.51	-138.6
4061.972	-136.6
4064.432	-139.6
4066.891	-140.6
4069.348	-133.6
4071.803	-139.6
4074.256	-140.6
4076.708	-135.6
4079.158	-137.6
4081.606	-133.6
4084.052	-140.6
4086.497	-138.6
4088.939	-132.6
4091.38	-138.6
4093.819	-139.6
4096.257	-147.6
4098.693	-145.6
4101.127	-146.6
4103.559	-138.6
4105.989	-4.6
4108.418	-17.6
4110.845	-11.6
4113.27	-10.6
4115.694	-14.6
4118.115	-15.6
4120.535	-139.6
4122.954	-142.6
4125.37	-136.6
4127.785	-139.6
4130.198	-138.6
4132.609	-137.6
4135.019	-146.6
4137.427	-148.6
4139.833	-144.6
4142.237	-145.6
