Data from 2018-2-8_conc=2_n=7_RamanShift_02.txt Node
Date: Mon Mar 12 14:16:28 IST 2018
User: aro
Spectrometer: QEPB0276
Trigger mode: 0
Integration Time (sec): 3.000000E1
Scans to average: 1
Electric dark correction enabled: true
Nonlinearity correction enabled: false
Boxcar width: 0
XAxis mode: Raman Shifts
Number of Pixels in Spectrum: 1044
>>>>>Begin Spectral Data<<<<<
160.701	14.6
166.742	50.6
172.777	133.6
178.805	419.6
184.826	1099.6
190.841	2418.6
196.849	3985.6
202.85	5245.6
208.845	5718.6
214.833	5736.6
220.815	5652.6
226.789	5631.6
232.758	5621.6
238.719	5580.6
244.674	5549.6
250.623	5448.6
256.565	5440.6
262.5	5326.6
268.429	5290.6
274.351	5218.6
280.267	5163.6
286.176	5179.6
292.079	5133.6
297.975	5102.6
303.865	5056.6
309.748	5057.6
315.625	5047.6
321.495	5025.6
327.359	5019.6
333.217	5004.6
339.068	5025.6
344.912	5040.6
350.751	5043.6
356.583	5062.6
362.408	5065.6
368.227	5073.6
374.04	5087.6
379.847	5096.6
385.647	5095.6
391.44	5146.6
397.228	5147.6
403.009	5184.6
408.784	5226.6
414.553	5245.6
420.315	5274.6
426.071	5255.6
431.821	5258.6
437.565	5218.6
443.302	5237.6
449.033	5206.6
454.758	5183.6
460.477	5155.6
466.189	5169.6
471.896	5104.6
477.596	5095.6
483.29	5026.6
488.978	5059.6
494.66	5012.6
500.335	4959.6
506.005	4841.6
511.668	4712.6
517.325	4562.6
522.977	4483.6
528.622	4386.6
534.261	4320.6
539.894	4277.6
545.521	4254.6
551.141	4218.6
556.756	4188.6
562.365	4156.6
567.968	4117.6
573.565	4076.6
579.155	4092.6
584.74	4077.6
590.319	4010.6
595.892	4044.6
601.459	4038.6
607.02	4023.6
612.575	4021.6
618.124	3952.6
623.667	3915.6
629.204	3892.6
634.735	3852.6
640.261	3831.6
645.781	3802.6
651.294	3794.6
656.802	3769.6
662.304	3777.6
667.8	3793.6
673.29	3756.6
678.775	3748.6
684.254	3745.6
689.726	3724.6
695.193	3704.6
700.655	3719.6
706.11	3647.6
711.56	3676.6
717.004	3621.6
722.442	3588.6
727.874	3583.6
733.301	3555.6
738.722	3552.6
744.137	3548.6
749.547	3550.6
754.951	3548.6
760.349	3550.6
765.741	3538.6
771.128	3593.6
776.509	3590.6
781.885	3605.6
787.254	3585.6
792.618	3604.6
797.977	3577.6
803.33	3581.6
808.677	3550.6
814.019	3530.6
819.355	3496.6
824.686	3453.6
830.011	3441.6
835.33	3442.6
840.644	3454.6
845.952	3436.6
851.255	3413.6
856.552	3415.6
861.844	3391.6
867.13	3396.6
872.41	3377.6
877.686	3343.6
882.955	3288.6
888.219	3279.6
893.478	3249.6
898.731	3191.6
903.979	3141.6
909.221	3133.6
914.458	3118.6
919.69	3101.6
924.916	3108.6
930.136	3152.6
935.351	3122.6
940.561	3150.6
945.766	3123.6
950.965	3129.6
956.158	3077.6
961.347	3042.6
966.529	3009.6
971.707	2986.6
976.879	2927.6
982.046	2883.6
987.208	2878.6
992.364	2892.6
997.515	2900.6
1002.66	2924.6
1007.801	2960.6
1012.936	2973.6
1018.066	2988.6
1023.19	2982.6
1028.309	2981.6
1033.423	2981.6
1038.532	2965.6
1043.636	2952.6
1048.734	2904.6
1053.827	2872.6
1058.915	2844.6
1063.998	2808.6
1069.075	2788.6
1074.147	2806.6
1079.214	2812.6
1084.276	2848.6
1089.333	2861.6
1094.385	2850.6
1099.431	2860.6
1104.472	2847.6
1109.509	2840.6
1114.54	2789.6
1119.565	2761.6
1124.586	2701.6
1129.602	2690.6
1134.613	2666.6
1139.618	2666.6
1144.619	2654.6
1149.614	2644.6
1154.604	2651.6
1159.589	2667.6
1164.57	2648.6
1169.545	2645.6
1174.515	2673.6
1179.48	2658.6
1184.44	2623.6
1189.395	2595.6
1194.345	2580.6
1199.29	2560.6
1204.23	2576.6
1209.165	2579.6
1214.095	2579.6
1219.021	2614.6
1223.941	2606.6
1228.856	2639.6
1233.766	2614.6
1238.672	2633.6
1243.572	2619.6
1248.467	2611.6
1253.358	2586.6
1258.244	2550.6
1263.124	2496.6
1268	2458.6
1272.871	2434.6
1277.737	2410.6
1282.599	2389.6
1287.455	2393.6
1292.306	2400.6
1297.153	2405.6
1301.995	2437.6
1306.832	2451.6
1311.664	2463.6
1316.491	2461.6
1321.314	2439.6
1326.132	2446.6
1330.945	2420.6
1335.753	2368.6
1340.556	2307.6
1345.354	2279.6
1350.148	2262.6
1354.937	2236.6
1359.722	2187.6
1364.501	2144.6
1369.276	2120.6
1374.046	2081.6
1378.811	2075.6
1383.572	2058.6
1388.327	2029.6
1393.079	2048.6
1397.825	2066.6
1402.567	2042.6
1407.304	2037.6
1412.036	2049.6
1416.764	2061.6
1421.487	2056.6
1426.205	2069.6
1430.919	2066.6
1435.628	2077.6
1440.333	2092.6
1445.032	2098.6
1449.727	2141.6
1454.418	2125.6
1459.104	2133.6
1463.785	2117.6
1468.462	2069.6
1473.134	2029.6
1477.802	2000.6
1482.465	1953.6
1487.123	1902.6
1491.777	1871.6
1496.426	1838.6
1501.071	1830.6
1505.711	1818.6
1510.347	1800.6
1514.978	1819.6
1519.604	1821.6
1524.226	1835.6
1528.844	1793.6
1533.457	1787.6
1538.065	1783.6
1542.669	1781.6
1547.269	1779.6
1551.864	1791.6
1556.454	1785.6
1561.041	1813.6
1565.622	1822.6
1570.199	1834.6
1574.772	1851.6
1579.34	1856.6
1583.904	1914.6
1588.464	1909.6
1593.019	1924.6
1597.569	1928.6
1602.115	1919.6
1606.657	1919.6
1611.195	1910.6
1615.728	1912.6
1620.256	1907.6
1624.78	1896.6
1629.3	1892.6
1633.816	1911.6
1638.327	1921.6
1642.834	1922.6
1647.336	1917.6
1651.834	1934.6
1656.328	1934.6
1660.817	1914.6
1665.302	1908.6
1669.783	1861.6
1674.259	1804.6
1678.732	1776.6
1683.199	1720.6
1687.663	1658.6
1692.122	1624.6
1696.577	1552.6
1701.028	1477.6
1705.474	1440.6
1709.917	1396.6
1714.355	1359.6
1718.788	1345.6
1723.218	1340.6
1727.643	1357.6
1732.064	1338.6
1736.481	1335.6
1740.893	1302.6
1745.301	1276.6
1749.705	1257.6
1754.105	1229.6
1758.501	1196.6
1762.893	1187.6
1767.28	1175.6
1771.663	1169.6
1776.042	1150.6
1780.417	1132.6
1784.787	1144.6
1789.154	1114.6
1793.516	1105.6
1797.874	1074.6
1802.228	1073.6
1806.578	1065.6
1810.924	1059.6
1815.266	1019.6
1819.603	1024.6
1823.937	1036.6
1828.266	1019.6
1832.591	1019.6
1836.913	1027.6
1841.23	1036.6
1845.543	1037.6
1849.852	1039.6
1854.156	1022.6
1858.457	1038.6
1862.754	1045.6
1867.047	1024.6
1871.335	1045.6
1875.62	1033.6
1879.9	1033.6
1884.177	1024.6
1888.449	995.6
1892.718	995.6
1896.982	977.6
1901.243	977.6
1905.499	958.6
1909.752	934.6
1914	924.6
1918.245	931.6
1922.485	906.6
1926.722	908.6
1930.954	901.6
1935.183	882.6
1939.408	885.6
1943.628	885.6
1947.845	878.6
1952.058	856.6
1956.267	852.6
1960.472	857.6
1964.673	847.6
1968.87	843.6
1973.063	833.6
1977.252	811.6
1981.438	838.6
1985.619	829.6
1989.797	838.6
1993.971	823.6
1998.14	833.6
2002.306	822.6
2006.469	846.6
2010.627	849.6
2014.781	846.6
2018.932	830.6
2023.078	838.6
2027.221	827.6
2031.36	808.6
2035.495	810.6
2039.627	789.6
2043.754	791.6
2047.878	787.6
2051.998	779.6
2056.114	770.6
2060.226	757.6
2064.334	773.6
2068.439	759.6
2072.54	753.6
2076.637	764.6
2080.73	767.6
2084.82	752.6
2088.906	746.6
2092.988	737.6
2097.066	729.6
2101.14	718.6
2105.211	712.6
2109.278	697.6
2113.342	696.6
2117.401	685.6
2121.457	687.6
2125.509	672.6
2129.558	674.6
2133.602	674.6
2137.643	687.6
2141.681	681.6
2145.714	676.6
2149.744	682.6
2153.77	676.6
2157.793	666.6
2161.812	662.6
2165.827	650.6
2169.838	641.6
2173.846	639.6
2177.851	619.6
2181.851	607.6
2185.848	617.6
2189.841	615.6
2193.831	610.6
2197.817	590.6
2201.799	597.6
2205.778	609.6
2209.753	590.6
2213.725	584.6
2217.693	595.6
2221.657	586.6
2225.618	583.6
2229.575	591.6
2233.529	568.6
2237.479	581.6
2241.425	568.6
2245.368	555.6
2249.307	556.6
2253.243	549.6
2257.175	534.6
2261.104	526.6
2265.029	522.6
2268.95	523.6
2272.868	512.6
2276.783	501.6
2280.694	492.6
2284.601	480.6
2288.505	498.6
2292.405	480.6
2296.302	473.6
2300.195	461.6
2304.085	455.6
2307.971	458.6
2311.854	448.6
2315.734	433.6
2319.609	427.6
2323.482	436.6
2327.351	435.6
2331.216	441.6
2335.078	450.6
2338.937	426.6
2342.792	426.6
2346.643	415.6
2350.492	419.6
2354.336	422.6
2358.178	420.6
2362.015	419.6
2365.85	420.6
2369.681	407.6
2373.508	422.6
2377.333	429.6
2381.153	408.6
2384.971	430.6
2388.785	416.6
2392.595	413.6
2396.402	408.6
2400.206	405.6
2404.007	405.6
2407.804	404.6
2411.597	389.6
2415.388	394.6
2419.174	401.6
2422.958	388.6
2426.738	384.6
2430.515	382.6
2434.289	377.6
2438.059	369.6
2441.825	374.6
2445.589	371.6
2449.349	359.6
2453.106	366.6
2456.859	353.6
2460.61	356.6
2464.356	347.6
2468.1	347.6
2471.84	338.6
2475.577	336.6
2479.311	337.6
2483.041	327.6
2486.768	332.6
2490.492	325.6
2494.213	323.6
2497.93	326.6
2501.644	327.6
2505.355	303.6
2509.062	311.6
2512.766	305.6
2516.467	297.6
2520.165	309.6
2523.859	299.6
2527.551	288.6
2531.239	287.6
2534.923	284.6
2538.605	283.6
2542.283	275.6
2545.958	276.6
2549.63	269.6
2553.299	273.6
2556.964	271.6
2560.626	261.6
2564.285	253.6
2567.941	257.6
2571.594	247.6
2575.243	251.6
2578.89	241.6
2582.533	241.6
2586.173	241.6
2589.809	231.6
2593.443	233.6
2597.073	231.6
2600.701	234.6
2604.325	226.6
2607.946	225.6
2611.564	232.6
2615.178	228.6
2618.79	229.6
2622.398	224.6
2626.004	220.6
2629.606	215.6
2633.205	206.6
2636.801	207.6
2640.394	208.6
2643.983	215.6
2647.57	200.6
2651.153	198.6
2654.734	200.6
2658.311	201.6
2661.885	194.6
2665.456	198.6
2669.025	192.6
2672.589	190.6
2676.151	185.6
2679.71	191.6
2683.266	176.6
2686.819	179.6
2690.368	174.6
2693.915	164.6
2697.458	162.6
2700.999	172.6
2704.536	171.6
2708.071	163.6
2711.602	159.6
2715.13	155.6
2718.656	143.6
2722.178	148.6
2725.697	138.6
2729.214	140.6
2732.727	147.6
2736.237	137.6
2739.744	139.6
2743.249	138.6
2746.75	127.6
2750.248	128.6
2753.743	126.6
2757.236	128.6
2760.725	126.6
2764.211	113.6
2767.695	115.6
2771.175	106.6
2774.652	110.6
2778.127	120.6
2781.598	113.6
2785.067	119.6
2788.532	113.6
2791.995	116.6
2795.455	118.6
2798.911	112.6
2802.365	116.6
2805.816	118.6
2809.264	108.6
2812.709	120.6
2816.151	119.6
2819.59	122.6
2823.026	115.6
2826.46	117.6
2829.89	117.6
2833.318	115.6
2836.742	117.6
2840.164	113.6
2843.583	121.6
2846.999	112.6
2850.412	128.6
2853.822	123.6
2857.229	122.6
2860.634	126.6
2864.035	135.6
2867.434	138.6
2870.83	137.6
2874.223	151.6
2877.613	158.6
2881	168.6
2884.385	165.6
2887.766	163.6
2891.145	160.6
2894.521	161.6
2897.894	164.6
2901.264	166.6
2904.631	175.6
2907.996	176.6
2911.358	176.6
2914.717	178.6
2918.073	183.6
2921.426	190.6
2924.777	191.6
2928.124	207.6
2931.469	194.6
2934.811	207.6
2938.15	214.6
2941.487	212.6
2944.821	215.6
2948.152	221.6
2951.48	213.6
2954.805	220.6
2958.128	216.6
2961.447	210.6
2964.765	206.6
2968.079	210.6
2971.39	215.6
2974.699	213.6
2978.005	211.6
2981.308	224.6
2984.609	225.6
2987.907	218.6
2991.202	223.6
2994.494	224.6
2997.784	223.6
3001.07	235.6
3004.355	231.6
3007.636	233.6
3010.915	230.6
3014.191	237.6
3017.464	246.6
3020.734	245.6
3024.002	239.6
3027.267	264.6
3030.53	268.6
3033.789	276.6
3037.046	278.6
3040.301	286.6
3043.552	296.6
3046.801	302.6
3050.048	303.6
3053.291	326.6
3056.532	335.6
3059.771	352.6
3063.006	342.6
3066.239	364.6
3069.469	378.6
3072.697	387.6
3075.922	399.6
3079.144	415.6
3082.364	422.6
3085.581	434.6
3088.795	433.6
3092.007	433.6
3095.216	437.6
3098.423	463.6
3101.627	477.6
3104.828	490.6
3108.026	489.6
3111.222	508.6
3114.416	521.6
3117.607	526.6
3120.795	541.6
3123.98	545.6
3127.163	558.6
3130.344	588.6
3133.521	579.6
3136.696	603.6
3139.869	615.6
3143.039	625.6
3146.206	621.6
3149.371	651.6
3152.533	653.6
3155.693	652.6
3158.85	666.6
3162.005	675.6
3165.157	669.6
3168.306	660.6
3171.453	672.6
3174.597	696.6
3177.739	692.6
3180.878	694.6
3184.014	712.6
3187.149	690.6
3190.28	697.6
3193.409	704.6
3196.536	712.6
3199.659	713.6
3202.781	727.6
3205.9	712.6
3209.016	725.6
3212.13	717.6
3215.241	694.6
3218.35	702.6
3221.456	693.6
3224.56	685.6
3227.661	680.6
3230.76	662.6
3233.856	660.6
3236.95	639.6
3240.041	647.6
3243.13	617.6
3246.216	621.6
3249.3	598.6
3252.382	604.6
3255.46	588.6
3258.537	594.6
3261.611	593.6
3264.682	580.6
3267.751	580.6
3270.818	573.6
3273.882	578.6
3276.943	574.6
3280.002	574.6
3283.059	569.6
3286.113	567.6
3289.165	551.6
3292.214	545.6
3295.261	530.6
3298.306	526.6
3301.348	519.6
3304.387	525.6
3307.425	522.6
3310.459	503.6
3313.492	511.6
3316.521	502.6
3319.549	501.6
3322.574	483.6
3325.597	488.6
3328.617	496.6
3331.635	488.6
3334.65	479.6
3337.663	470.6
3340.674	486.6
3343.682	484.6
3346.688	467.6
3349.691	484.6
3352.692	473.6
3355.691	471.6
3358.687	462.6
3361.681	459.6
3364.673	465.6
3367.662	449.6
3370.649	434.6
3373.633	425.6
3376.615	422.6
3379.595	425.6
3382.572	417.6
3385.547	419.6
3388.52	402.6
3391.49	385.6
3394.458	397.6
3397.424	384.6
3400.387	381.6
3403.348	374.6
3406.307	369.6
3409.263	366.6
3412.217	356.6
3415.168	353.6
3418.118	348.6
3421.065	341.6
3424.009	329.6
3426.951	338.6
3429.891	321.6
3432.829	310.6
3435.764	303.6
3438.697	304.6
3441.628	284.6
3444.557	289.6
3447.483	274.6
3450.407	266.6
3453.328	255.6
3456.247	238.6
3459.164	228.6
3462.079	212.6
3464.991	214.6
3467.902	212.6
3470.809	197.6
3473.715	189.6
3476.618	177.6
3479.519	171.6
3482.418	161.6
3485.315	146.6
3488.209	134.6
3491.101	134.6
3493.99	148.6
3496.878	131.6
3499.763	121.6
3502.646	114.6
3505.527	101.6
3508.405	98.6
3511.281	86.6
3514.155	83.6
3517.027	70.6
3519.897	64.6
3522.764	56.6
3525.629	50.6
3528.492	40.6
3531.352	31.6
3534.211	27.6
3537.067	23.6
3539.921	25.6
3542.773	15.6
3545.622	6.6
3548.469	1.6
3551.315	-11.4
3554.157	-10.4
3556.998	-12.4
3559.837	-18.4
3562.673	-23.4
3565.507	-23.4
3568.339	-30.4
3571.169	-38.4
3573.996	-38.4
3576.822	-38.4
3579.645	-41.4
3582.466	-40.4
3585.285	-50.4
3588.101	-31.4
3590.916	-57.4
3593.728	-67.4
3596.538	-70.4
3599.346	-66.4
3602.152	-66.4
3604.956	-69.4
3607.757	-66.4
3610.556	-73.4
3613.354	-79.4
3616.149	-87.4
3618.942	-85.4
3621.732	-87.4
3624.521	-87.4
3627.307	-83.4
3630.092	-84.4
3632.874	-87.4
3635.654	-101.4
3638.432	-92.4
3641.208	-95.4
3643.982	-105.4
3646.753	-102.4
3649.523	-99.4
3652.29	-100.4
3655.055	-101.4
3657.818	-105.4
3660.579	-112.4
3663.338	-106.4
3666.095	-112.4
3668.849	-116.4
3671.602	-114.4
3674.352	-117.4
3677.101	-117.4
3679.847	-122.4
3682.591	-128.4
3685.333	-117.4
3688.073	-123.4
3690.811	-123.4
3693.547	-127.4
3696.281	-127.4
3699.013	-124.4
3701.742	-128.4
3704.47	-129.4
3707.195	-125.4
3709.919	-129.4
3712.64	-127.4
3715.359	-140.4
3718.076	-134.4
3720.792	-136.4
3723.505	-136.4
3726.216	-134.4
3728.925	-132.4
3731.632	-135.4
3734.336	-142.4
3737.039	-135.4
3739.74	-139.4
3742.439	-144.4
3745.136	-135.4
3747.83	-144.4
3750.523	-138.4
3753.213	-135.4
3755.902	-140.4
3758.589	-146.4
3761.273	-139.4
3763.956	-138.4
3766.636	-144.4
3769.315	-136.4
3771.991	-133.4
3774.665	-144.4
3777.338	-136.4
3780.008	-139.4
3782.677	-142.4
3785.343	-142.4
3788.007	-145.4
3790.67	-149.4
3793.33	-139.4
3795.989	-140.4
3798.645	-137.4
3801.299	-144.4
3803.952	-146.4
3806.602	-138.4
3809.251	-148.4
3811.897	-151.4
3814.542	-148.4
3817.184	-140.4
3819.825	-141.4
3822.463	-145.4
3825.1	-144.4
3827.735	-148.4
3830.367	-152.4
3832.998	-146.4
3835.627	-138.4
3838.253	-136.4
3840.878	-140.4
3843.501	-142.4
3846.122	-150.4
3848.741	-150.4
3851.358	-144.4
3853.973	-145.4
3856.586	-137.4
3859.197	-148.4
3861.806	-143.4
3864.414	-146.4
3867.019	-141.4
3869.622	-150.4
3872.224	-133.4
3874.823	-121.4
3877.421	-107.4
3880.016	-88.4
3882.61	-60.4
3885.202	-52.4
3887.792	-78.4
3890.38	-106.4
3892.966	-133.4
3895.55	-135.4
3898.132	-139.4
3900.713	-140.4
3903.291	-147.4
3905.868	-149.4
3908.442	-145.4
3911.015	-150.4
3913.586	-150.4
3916.155	-146.4
3918.722	-146.4
3921.287	-145.4
3923.85	-148.4
3926.411	-150.4
3928.971	-146.4
3931.528	-154.4
3934.084	-148.4
3936.638	-142.4
3939.19	-149.4
3941.74	-153.4
3944.288	-147.4
3946.834	-147.4
3949.378	-147.4
3951.921	-152.4
3954.462	-155.4
3957	-150.4
3959.537	-142.4
3962.072	-146.4
3964.606	-142.4
3967.137	-149.4
3969.667	-149.4
3972.194	-150.4
3974.72	-148.4
3977.244	-147.4
3979.766	-146.4
3982.286	-146.4
3984.805	-146.4
3987.321	-147.4
3989.836	-141.4
3992.349	-146.4
3994.86	-149.4
3997.369	-142.4
3999.877	-145.4
4002.382	-136.4
4004.886	-149.4
4007.388	-148.4
4009.888	-139.4
4012.386	-149.4
4014.883	-141.4
4017.377	-145.4
4019.87	-145.4
4022.361	-146.4
4024.85	-146.4
4027.338	-144.4
4029.823	-144.4
4032.307	-142.4
4034.789	-147.4
4037.269	-149.4
4039.747	-145.4
4042.224	-148.4
4044.699	-150.4
4047.172	-142.4
4049.643	-141.4
4052.112	-145.4
4054.58	-149.4
4057.046	-148.4
4059.51	-151.4
4061.972	-150.4
4064.432	-146.4
4066.891	-141.4
4069.348	-144.4
4071.803	-146.4
4074.256	-149.4
4076.708	-142.4
4079.158	-147.4
4081.606	-139.4
4084.052	-145.4
4086.497	-146.4
4088.939	-137.4
4091.38	-146.4
4093.819	-144.4
4096.257	-153.4
4098.693	-152.4
4101.127	-153.4
4103.559	-150.4
4105.989	8.6
4108.418	2.6
4110.845	4.6
4113.27	-0.4
4115.694	-8.4
4118.115	-3.4
4120.535	-144.4
4122.954	-151.4
4125.37	-146.4
4127.785	-147.4
4130.198	-142.4
4132.609	-143.4
4135.019	-150.4
4137.427	-154.4
4139.833	-156.4
4142.237	-157.4
