Data from 2018-2-8_conc=6_n=4_RamanShift_03.txt Node
Date: Mon Mar 12 16:33:58 IST 2018
User: aro
Spectrometer: QEPB0276
Trigger mode: 0
Integration Time (sec): 3.000000E1
Scans to average: 1
Electric dark correction enabled: true
Nonlinearity correction enabled: false
Boxcar width: 0
XAxis mode: Raman Shifts
Number of Pixels in Spectrum: 1044
>>>>>Begin Spectral Data<<<<<
160.701	12.9
166.742	43.9
172.777	125.9
178.805	398.9
184.826	1071.9
190.841	2344.9
196.849	3845.9
202.85	5087.9
208.845	5509.9
214.833	5525.9
220.815	5413.9
226.789	5439.9
232.758	5426.9
238.719	5412.9
244.674	5371.9
250.623	5369.9
256.565	5267.9
262.5	5166.9
268.429	5126.9
274.351	5067.9
280.267	5020.9
286.176	4996.9
292.079	5010.9
297.975	4942.9
303.865	4930.9
309.748	4907.9
315.625	4920.9
321.495	4886.9
327.359	4882.9
333.217	4889.9
339.068	4888.9
344.912	4938.9
350.751	4894.9
356.583	4935.9
362.408	4911.9
368.227	4971.9
374.04	4986.9
379.847	4962.9
385.647	5016.9
391.44	5020.9
397.228	5016.9
403.009	5077.9
408.784	5122.9
414.553	5118.9
420.315	5106.9
426.071	5092.9
431.821	5110.9
437.565	5105.9
443.302	5111.9
449.033	5072.9
454.758	5057.9
460.477	5034.9
466.189	5006.9
471.896	4956.9
477.596	4967.9
483.29	4943.9
488.978	4928.9
494.66	4916.9
500.335	4838.9
506.005	4739.9
511.668	4577.9
517.325	4465.9
522.977	4343.9
528.622	4256.9
534.261	4195.9
539.894	4142.9
545.521	4127.9
551.141	4088.9
556.756	4066.9
562.365	4048.9
567.968	4028.9
573.565	3990.9
579.155	3965.9
584.74	3996.9
590.319	3964.9
595.892	3946.9
601.459	3922.9
607.02	3924.9
612.575	3894.9
618.124	3849.9
623.667	3813.9
629.204	3790.9
634.735	3759.9
640.261	3722.9
645.781	3726.9
651.294	3700.9
656.802	3694.9
662.304	3665.9
667.8	3692.9
673.29	3667.9
678.775	3660.9
684.254	3656.9
689.726	3624.9
695.193	3618.9
700.655	3589.9
706.11	3571.9
711.56	3570.9
717.004	3520.9
722.442	3507.9
727.874	3478.9
733.301	3494.9
738.722	3479.9
744.137	3459.9
749.547	3478.9
754.951	3475.9
760.349	3454.9
765.741	3466.9
771.128	3477.9
776.509	3491.9
781.885	3530.9
787.254	3519.9
792.618	3523.9
797.977	3499.9
803.33	3475.9
808.677	3470.9
814.019	3446.9
819.355	3421.9
824.686	3382.9
830.011	3352.9
835.33	3370.9
840.644	3363.9
845.952	3345.9
851.255	3347.9
856.552	3313.9
861.844	3295.9
867.13	3302.9
872.41	3284.9
877.686	3276.9
882.955	3230.9
888.219	3196.9
893.478	3176.9
898.731	3158.9
903.979	3102.9
909.221	3049.9
914.458	3046.9
919.69	3046.9
924.916	3050.9
930.136	3057.9
935.351	3051.9
940.561	3043.9
945.766	3034.9
950.965	3056.9
956.158	3007.9
961.347	2973.9
966.529	2953.9
971.707	2883.9
976.879	2853.9
982.046	2833.9
987.208	2804.9
992.364	2833.9
997.515	2830.9
1002.66	2860.9
1007.801	2870.9
1012.936	2891.9
1018.066	2895.9
1023.19	2928.9
1028.309	2934.9
1033.423	2929.9
1038.532	2910.9
1043.636	2876.9
1048.734	2860.9
1053.827	2824.9
1058.915	2787.9
1063.998	2795.9
1069.075	2752.9
1074.147	2734.9
1079.214	2771.9
1084.276	2753.9
1089.333	2784.9
1094.385	2798.9
1099.431	2806.9
1104.472	2805.9
1109.509	2762.9
1114.54	2742.9
1119.565	2715.9
1124.586	2665.9
1129.602	2617.9
1134.613	2627.9
1139.618	2593.9
1144.619	2593.9
1149.614	2590.9
1154.604	2608.9
1159.589	2620.9
1164.57	2609.9
1169.545	2604.9
1174.515	2610.9
1179.48	2566.9
1184.44	2590.9
1189.395	2574.9
1194.345	2555.9
1199.29	2530.9
1204.23	2522.9
1209.165	2522.9
1214.095	2541.9
1219.021	2554.9
1223.941	2557.9
1228.856	2585.9
1233.766	2574.9
1238.672	2583.9
1243.572	2595.9
1248.467	2565.9
1253.358	2512.9
1258.244	2507.9
1263.124	2463.9
1268	2399.9
1272.871	2391.9
1277.737	2390.9
1282.599	2359.9
1287.455	2330.9
1292.306	2355.9
1297.153	2374.9
1301.995	2380.9
1306.832	2389.9
1311.664	2428.9
1316.491	2421.9
1321.314	2421.9
1326.132	2385.9
1330.945	2361.9
1335.753	2326.9
1340.556	2289.9
1345.354	2256.9
1350.148	2220.9
1354.937	2192.9
1359.722	2161.9
1364.501	2125.9
1369.276	2072.9
1374.046	2075.9
1378.811	2039.9
1383.572	2044.9
1388.327	2036.9
1393.079	2020.9
1397.825	2019.9
1402.567	2020.9
1407.304	2027.9
1412.036	2027.9
1416.764	2005.9
1421.487	2049.9
1426.205	2036.9
1430.919	2029.9
1435.628	2042.9
1440.333	2053.9
1445.032	2078.9
1449.727	2101.9
1454.418	2099.9
1459.104	2099.9
1463.785	2088.9
1468.462	2043.9
1473.134	2004.9
1477.802	1970.9
1482.465	1916.9
1487.123	1889.9
1491.777	1849.9
1496.426	1844.9
1501.071	1836.9
1505.711	1829.9
1510.347	1837.9
1514.978	1831.9
1519.604	1839.9
1524.226	1818.9
1528.844	1800.9
1533.457	1786.9
1538.065	1788.9
1542.669	1775.9
1547.269	1789.9
1551.864	1776.9
1556.454	1808.9
1561.041	1825.9
1565.622	1830.9
1570.199	1822.9
1574.772	1858.9
1579.34	1861.9
1583.904	1881.9
1588.464	1906.9
1593.019	1883.9
1597.569	1908.9
1602.115	1906.9
1606.657	1907.9
1611.195	1884.9
1615.728	1875.9
1620.256	1876.9
1624.78	1886.9
1629.3	1892.9
1633.816	1904.9
1638.327	1903.9
1642.834	1908.9
1647.336	1930.9
1651.834	1931.9
1656.328	1945.9
1660.817	1910.9
1665.302	1905.9
1669.783	1848.9
1674.259	1832.9
1678.732	1780.9
1683.199	1714.9
1687.663	1685.9
1692.122	1620.9
1696.577	1575.9
1701.028	1491.9
1705.474	1453.9
1709.917	1387.9
1714.355	1390.9
1718.788	1365.9
1723.218	1376.9
1727.643	1373.9
1732.064	1369.9
1736.481	1340.9
1740.893	1316.9
1745.301	1302.9
1749.705	1273.9
1754.105	1253.9
1758.501	1241.9
1762.893	1207.9
1767.28	1196.9
1771.663	1200.9
1776.042	1163.9
1780.417	1159.9
1784.787	1137.9
1789.154	1141.9
1793.516	1144.9
1797.874	1135.9
1802.228	1099.9
1806.578	1104.9
1810.924	1069.9
1815.266	1049.9
1819.603	1071.9
1823.937	1067.9
1828.266	1066.9
1832.591	1064.9
1836.913	1056.9
1841.23	1059.9
1845.543	1054.9
1849.852	1058.9
1854.156	1051.9
1858.457	1069.9
1862.754	1066.9
1867.047	1058.9
1871.335	1056.9
1875.62	1057.9
1879.9	1050.9
1884.177	1041.9
1888.449	1043.9
1892.718	1016.9
1896.982	1028.9
1901.243	1006.9
1905.499	986.9
1909.752	963.9
1914	958.9
1918.245	954.9
1922.485	937.9
1926.722	930.9
1930.954	927.9
1935.183	928.9
1939.408	926.9
1943.628	917.9
1947.845	908.9
1952.058	909.9
1956.267	908.9
1960.472	887.9
1964.673	892.9
1968.87	866.9
1973.063	876.9
1977.252	847.9
1981.438	870.9
1985.619	849.9
1989.797	864.9
1993.971	858.9
1998.14	873.9
2002.306	873.9
2006.469	880.9
2010.627	868.9
2014.781	875.9
2018.932	860.9
2023.078	861.9
2027.221	855.9
2031.36	857.9
2035.495	834.9
2039.627	831.9
2043.754	800.9
2047.878	821.9
2051.998	813.9
2056.114	813.9
2060.226	808.9
2064.334	791.9
2068.439	792.9
2072.54	797.9
2076.637	801.9
2080.73	793.9
2084.82	779.9
2088.906	780.9
2092.988	767.9
2097.066	762.9
2101.14	753.9
2105.211	749.9
2109.278	724.9
2113.342	719.9
2117.401	707.9
2121.457	703.9
2125.509	707.9
2129.558	711.9
2133.602	705.9
2137.643	702.9
2141.681	703.9
2145.714	709.9
2149.744	708.9
2153.77	702.9
2157.793	693.9
2161.812	690.9
2165.827	676.9
2169.838	674.9
2173.846	665.9
2177.851	655.9
2181.851	637.9
2185.848	644.9
2189.841	636.9
2193.831	638.9
2197.817	617.9
2201.799	616.9
2205.778	629.9
2209.753	615.9
2213.725	621.9
2217.693	610.9
2221.657	615.9
2225.618	596.9
2229.575	602.9
2233.529	609.9
2237.479	605.9
2241.425	585.9
2245.368	575.9
2249.307	575.9
2253.243	567.9
2257.175	550.9
2261.104	545.9
2265.029	535.9
2268.95	539.9
2272.868	527.9
2276.783	513.9
2280.694	512.9
2284.601	511.9
2288.505	502.9
2292.405	501.9
2296.302	502.9
2300.195	489.9
2304.085	490.9
2307.971	461.9
2311.854	463.9
2315.734	451.9
2319.609	449.9
2323.482	455.9
2327.351	446.9
2331.216	452.9
2335.078	460.9
2338.937	457.9
2342.792	432.9
2346.643	430.9
2350.492	429.9
2354.336	434.9
2358.178	428.9
2362.015	425.9
2365.85	430.9
2369.681	431.9
2373.508	420.9
2377.333	432.9
2381.153	421.9
2384.971	439.9
2388.785	434.9
2392.595	422.9
2396.402	422.9
2400.206	419.9
2404.007	408.9
2407.804	422.9
2411.597	408.9
2415.388	402.9
2419.174	408.9
2422.958	383.9
2426.738	406.9
2430.515	389.9
2434.289	399.9
2438.059	397.9
2441.825	381.9
2445.589	390.9
2449.349	364.9
2453.106	371.9
2456.859	367.9
2460.61	368.9
2464.356	356.9
2468.1	351.9
2471.84	350.9
2475.577	351.9
2479.311	350.9
2483.041	343.9
2486.768	334.9
2490.492	346.9
2494.213	348.9
2497.93	347.9
2501.644	338.9
2505.355	340.9
2509.062	326.9
2512.766	335.9
2516.467	310.9
2520.165	314.9
2523.859	325.9
2527.551	318.9
2531.239	290.9
2534.923	298.9
2538.605	293.9
2542.283	290.9
2545.958	290.9
2549.63	290.9
2553.299	284.9
2556.964	293.9
2560.626	274.9
2564.285	271.9
2567.941	277.9
2571.594	276.9
2575.243	272.9
2578.89	263.9
2582.533	258.9
2586.173	259.9
2589.809	246.9
2593.443	257.9
2597.073	251.9
2600.701	242.9
2604.325	230.9
2607.946	241.9
2611.564	239.9
2615.178	235.9
2618.79	235.9
2622.398	237.9
2626.004	233.9
2629.606	232.9
2633.205	232.9
2636.801	216.9
2640.394	218.9
2643.983	231.9
2647.57	222.9
2651.153	216.9
2654.734	210.9
2658.311	211.9
2661.885	197.9
2665.456	208.9
2669.025	214.9
2672.589	208.9
2676.151	209.9
2679.71	205.9
2683.266	193.9
2686.819	185.9
2690.368	192.9
2693.915	184.9
2697.458	177.9
2700.999	182.9
2704.536	183.9
2708.071	169.9
2711.602	168.9
2715.13	175.9
2718.656	164.9
2722.178	157.9
2725.697	161.9
2729.214	162.9
2732.727	164.9
2736.237	158.9
2739.744	149.9
2743.249	146.9
2746.75	151.9
2750.248	141.9
2753.743	147.9
2757.236	135.9
2760.725	140.9
2764.211	136.9
2767.695	122.9
2771.175	125.9
2774.652	129.9
2778.127	128.9
2781.598	128.9
2785.067	126.9
2788.532	131.9
2791.995	140.9
2795.455	127.9
2798.911	122.9
2802.365	135.9
2805.816	138.9
2809.264	130.9
2812.709	137.9
2816.151	138.9
2819.59	137.9
2823.026	128.9
2826.46	124.9
2829.89	127.9
2833.318	134.9
2836.742	137.9
2840.164	136.9
2843.583	135.9
2846.999	139.9
2850.412	131.9
2853.822	132.9
2857.229	137.9
2860.634	143.9
2864.035	151.9
2867.434	154.9
2870.83	156.9
2874.223	167.9
2877.613	162.9
2881	178.9
2884.385	168.9
2887.766	165.9
2891.145	173.9
2894.521	174.9
2897.894	169.9
2901.264	177.9
2904.631	183.9
2907.996	177.9
2911.358	185.9
2914.717	193.9
2918.073	187.9
2921.426	196.9
2924.777	208.9
2928.124	205.9
2931.469	202.9
2934.811	209.9
2938.15	218.9
2941.487	219.9
2944.821	227.9
2948.152	224.9
2951.48	228.9
2954.805	230.9
2958.128	228.9
2961.447	206.9
2964.765	221.9
2968.079	210.9
2971.39	218.9
2974.699	222.9
2978.005	222.9
2981.308	223.9
2984.609	216.9
2987.907	225.9
2991.202	222.9
2994.494	224.9
2997.784	232.9
3001.07	232.9
3004.355	249.9
3007.636	248.9
3010.915	252.9
3014.191	250.9
3017.464	255.9
3020.734	253.9
3024.002	255.9
3027.267	272.9
3030.53	267.9
3033.789	284.9
3037.046	291.9
3040.301	276.9
3043.552	295.9
3046.801	313.9
3050.048	316.9
3053.291	323.9
3056.532	321.9
3059.771	351.9
3063.006	365.9
3066.239	368.9
3069.469	374.9
3072.697	387.9
3075.922	405.9
3079.144	415.9
3082.364	434.9
3085.581	432.9
3088.795	441.9
3092.007	441.9
3095.216	445.9
3098.423	466.9
3101.627	482.9
3104.828	496.9
3108.026	490.9
3111.222	511.9
3114.416	514.9
3117.607	532.9
3120.795	552.9
3123.98	548.9
3127.163	552.9
3130.344	580.9
3133.521	601.9
3136.696	612.9
3139.869	621.9
3143.039	615.9
3146.206	636.9
3149.371	648.9
3152.533	656.9
3155.693	653.9
3158.85	661.9
3162.005	660.9
3165.157	663.9
3168.306	665.9
3171.453	680.9
3174.597	692.9
3177.739	686.9
3180.878	690.9
3184.014	694.9
3187.149	699.9
3190.28	697.9
3193.409	693.9
3196.536	691.9
3199.659	702.9
3202.781	718.9
3205.9	713.9
3209.016	708.9
3212.13	710.9
3215.241	697.9
3218.35	696.9
3221.456	685.9
3224.56	684.9
3227.661	674.9
3230.76	687.9
3233.856	653.9
3236.95	643.9
3240.041	631.9
3243.13	621.9
3246.216	621.9
3249.3	610.9
3252.382	600.9
3255.46	594.9
3258.537	599.9
3261.611	594.9
3264.682	576.9
3267.751	589.9
3270.818	573.9
3273.882	573.9
3276.943	574.9
3280.002	565.9
3283.059	556.9
3286.113	564.9
3289.165	556.9
3292.214	545.9
3295.261	536.9
3298.306	522.9
3301.348	531.9
3304.387	515.9
3307.425	512.9
3310.459	514.9
3313.492	495.9
3316.521	492.9
3319.549	488.9
3322.574	496.9
3325.597	505.9
3328.617	489.9
3331.635	479.9
3334.65	478.9
3337.663	460.9
3340.674	483.9
3343.682	482.9
3346.688	479.9
3349.691	474.9
3352.692	457.9
3355.691	467.9
3358.687	457.9
3361.681	459.9
3364.673	460.9
3367.662	448.9
3370.649	427.9
3373.633	427.9
3376.615	414.9
3379.595	413.9
3382.572	415.9
3385.547	408.9
3388.52	404.9
3391.49	392.9
3394.458	389.9
3397.424	385.9
3400.387	370.9
3403.348	370.9
3406.307	362.9
3409.263	353.9
3412.217	356.9
3415.168	354.9
3418.118	355.9
3421.065	332.9
3424.009	344.9
3426.951	336.9
3429.891	329.9
3432.829	319.9
3435.764	304.9
3438.697	305.9
3441.628	288.9
3444.557	282.9
3447.483	271.9
3450.407	262.9
3453.328	245.9
3456.247	247.9
3459.164	238.9
3462.079	222.9
3464.991	213.9
3467.902	202.9
3470.809	198.9
3473.715	176.9
3476.618	175.9
3479.519	178.9
3482.418	173.9
3485.315	151.9
3488.209	141.9
3491.101	145.9
3493.99	146.9
3496.878	131.9
3499.763	116.9
3502.646	120.9
3505.527	106.9
3508.405	106.9
3511.281	90.9
3514.155	87.9
3517.027	78.9
3519.897	71.9
3522.764	62.9
3525.629	51.9
3528.492	52.9
3531.352	50.9
3534.211	26.9
3537.067	28.9
3539.921	27.9
3542.773	22.9
3545.622	12.9
3548.469	11.9
3551.315	11.9
3554.157	-5.1
3556.998	-11.1
3559.837	-6.1
3562.673	-13.1
3565.507	-13.1
3568.339	-20.1
3571.169	-25.1
3573.996	-21.1
3576.822	-32.1
3579.645	-28.1
3582.466	-37.1
3585.285	-46.1
3588.101	-33.1
3590.916	-46.1
3593.728	-51.1
3596.538	-55.1
3599.346	-62.1
3602.152	-57.1
3604.956	-55.1
3607.757	-60.1
3610.556	-61.1
3613.354	-61.1
3616.149	-77.1
3618.942	-76.1
3621.732	-78.1
3624.521	-80.1
3627.307	-75.1
3630.092	-75.1
3632.874	-74.1
3635.654	-86.1
3638.432	-77.1
3641.208	-85.1
3643.982	-91.1
3646.753	-93.1
3649.523	-92.1
3652.29	-82.1
3655.055	-96.1
3657.818	-90.1
3660.579	-96.1
3663.338	-101.1
3666.095	-105.1
3668.849	-102.1
3671.602	-100.1
3674.352	-105.1
3677.101	-109.1
3679.847	-112.1
3682.591	-116.1
3685.333	-110.1
3688.073	-113.1
3690.811	-104.1
3693.547	-122.1
3696.281	-111.1
3699.013	-114.1
3701.742	-122.1
3704.47	-118.1
3707.195	-112.1
3709.919	-116.1
3712.64	-117.1
3715.359	-123.1
3718.076	-120.1
3720.792	-125.1
3723.505	-126.1
3726.216	-122.1
3728.925	-123.1
3731.632	-124.1
3734.336	-131.1
3737.039	-128.1
3739.74	-125.1
3742.439	-133.1
3745.136	-125.1
3747.83	-134.1
3750.523	-129.1
3753.213	-128.1
3755.902	-125.1
3758.589	-135.1
3761.273	-121.1
3763.956	-126.1
3766.636	-138.1
3769.315	-124.1
3771.991	-127.1
3774.665	-136.1
3777.338	-121.1
3780.008	-130.1
3782.677	-130.1
3785.343	-126.1
3788.007	-129.1
3790.67	-137.1
3793.33	-130.1
3795.989	-131.1
3798.645	-122.1
3801.299	-128.1
3803.952	-132.1
3806.602	-128.1
3809.251	-135.1
3811.897	-140.1
3814.542	-137.1
3817.184	-127.1
3819.825	-135.1
3822.463	-130.1
3825.1	-134.1
3827.735	-133.1
3830.367	-134.1
3832.998	-137.1
3835.627	-137.1
3838.253	-131.1
3840.878	-132.1
3843.501	-126.1
3846.122	-136.1
3848.741	-138.1
3851.358	-134.1
3853.973	-142.1
3856.586	-132.1
3859.197	-146.1
3861.806	-134.1
3864.414	-137.1
3867.019	-126.1
3869.622	-130.1
3872.224	-130.1
3874.823	-119.1
3877.421	-112.1
3880.016	-88.1
3882.61	-63.1
3885.202	-64.1
3887.792	-84.1
3890.38	-104.1
3892.966	-122.1
3895.55	-133.1
3898.132	-129.1
3900.713	-136.1
3903.291	-140.1
3905.868	-130.1
3908.442	-128.1
3911.015	-142.1
3913.586	-141.1
3916.155	-141.1
3918.722	-140.1
3921.287	-131.1
3923.85	-133.1
3926.411	-141.1
3928.971	-134.1
3931.528	-142.1
3934.084	-140.1
3936.638	-130.1
3939.19	-146.1
3941.74	-142.1
3944.288	-132.1
3946.834	-132.1
3949.378	-138.1
3951.921	-139.1
3954.462	-145.1
3957	-140.1
3959.537	-131.1
3962.072	-139.1
3964.606	-131.1
3967.137	-139.1
3969.667	-137.1
3972.194	-143.1
3974.72	-139.1
3977.244	-141.1
3979.766	-140.1
3982.286	-136.1
3984.805	-137.1
3987.321	-133.1
3989.836	-129.1
3992.349	-136.1
3994.86	-137.1
3997.369	-142.1
3999.877	-134.1
4002.382	-129.1
4004.886	-133.1
4007.388	-135.1
4009.888	-133.1
4012.386	-141.1
4014.883	-141.1
4017.377	-137.1
4019.87	-134.1
4022.361	-133.1
4024.85	-138.1
4027.338	-135.1
4029.823	-129.1
4032.307	-134.1
4034.789	-139.1
4037.269	-135.1
4039.747	-132.1
4042.224	-131.1
4044.699	-133.1
4047.172	-132.1
4049.643	-126.1
4052.112	-138.1
4054.58	-137.1
4057.046	-133.1
4059.51	-140.1
4061.972	-131.1
4064.432	-134.1
4066.891	-133.1
4069.348	-134.1
4071.803	-141.1
4074.256	-137.1
4076.708	-130.1
4079.158	-135.1
4081.606	-129.1
4084.052	-133.1
4086.497	-131.1
4088.939	-131.1
4091.38	-132.1
4093.819	-138.1
4096.257	-144.1
4098.693	-139.1
4101.127	-143.1
4103.559	-139.1
4105.989	6.9
4108.418	-0.1
4110.845	2.9
4113.27	-0.1
4115.694	-11.1
4118.115	-7.1
4120.535	-134.1
4122.954	-140.1
4125.37	-138.1
4127.785	-137.1
4130.198	-132.1
4132.609	-132.1
4135.019	-145.1
4137.427	-146.1
4139.833	-144.1
4142.237	-146.1
