Data from 2018-2-8_conc=6_n=2_RamanShift_04.txt Node
Date: Mon Mar 12 16:28:28 IST 2018
User: aro
Spectrometer: QEPB0276
Trigger mode: 0
Integration Time (sec): 3.000000E1
Scans to average: 1
Electric dark correction enabled: true
Nonlinearity correction enabled: false
Boxcar width: 0
XAxis mode: Raman Shifts
Number of Pixels in Spectrum: 1044
>>>>>Begin Spectral Data<<<<<
160.701	11.4
166.742	39.4
172.777	120.4
178.805	367.4
184.826	1008.4
190.841	2160.4
196.849	3590.4
202.85	4735.4
208.845	5142.4
214.833	5149.4
220.815	5060.4
226.789	5073.4
232.758	5073.4
238.719	5017.4
244.674	5028.4
250.623	4984.4
256.565	4864.4
262.5	4817.4
268.429	4740.4
274.351	4688.4
280.267	4647.4
286.176	4649.4
292.079	4630.4
297.975	4604.4
303.865	4580.4
309.748	4569.4
315.625	4553.4
321.495	4574.4
327.359	4514.4
333.217	4559.4
339.068	4552.4
344.912	4569.4
350.751	4552.4
356.583	4578.4
362.408	4572.4
368.227	4587.4
374.04	4599.4
379.847	4581.4
385.647	4642.4
391.44	4649.4
397.228	4670.4
403.009	4716.4
408.784	4733.4
414.553	4717.4
420.315	4757.4
426.071	4780.4
431.821	4725.4
437.565	4717.4
443.302	4740.4
449.033	4724.4
454.758	4689.4
460.477	4666.4
466.189	4641.4
471.896	4631.4
477.596	4597.4
483.29	4579.4
488.978	4568.4
494.66	4544.4
500.335	4497.4
506.005	4367.4
511.668	4239.4
517.325	4123.4
522.977	4020.4
528.622	3943.4
534.261	3872.4
539.894	3829.4
545.521	3795.4
551.141	3777.4
556.756	3771.4
562.365	3749.4
567.968	3711.4
573.565	3668.4
579.155	3659.4
584.74	3639.4
590.319	3639.4
595.892	3631.4
601.459	3608.4
607.02	3612.4
612.575	3588.4
618.124	3545.4
623.667	3490.4
629.204	3502.4
634.735	3450.4
640.261	3440.4
645.781	3437.4
651.294	3411.4
656.802	3389.4
662.304	3369.4
667.8	3382.4
673.29	3361.4
678.775	3376.4
684.254	3358.4
689.726	3341.4
695.193	3338.4
700.655	3316.4
706.11	3309.4
711.56	3271.4
717.004	3252.4
722.442	3247.4
727.874	3211.4
733.301	3233.4
738.722	3180.4
744.137	3164.4
749.547	3197.4
754.951	3197.4
760.349	3181.4
765.741	3188.4
771.128	3186.4
776.509	3215.4
781.885	3234.4
787.254	3234.4
792.618	3242.4
797.977	3230.4
803.33	3187.4
808.677	3183.4
814.019	3166.4
819.355	3141.4
824.686	3134.4
830.011	3130.4
835.33	3099.4
840.644	3096.4
845.952	3088.4
851.255	3074.4
856.552	3074.4
861.844	3049.4
867.13	3022.4
872.41	3011.4
877.686	2990.4
882.955	2976.4
888.219	2937.4
893.478	2915.4
898.731	2867.4
903.979	2817.4
909.221	2812.4
914.458	2820.4
919.69	2795.4
924.916	2814.4
930.136	2791.4
935.351	2793.4
940.561	2809.4
945.766	2819.4
950.965	2793.4
956.158	2763.4
961.347	2754.4
966.529	2711.4
971.707	2673.4
976.879	2632.4
982.046	2622.4
987.208	2605.4
992.364	2591.4
997.515	2614.4
1002.66	2643.4
1007.801	2687.4
1012.936	2652.4
1018.066	2698.4
1023.19	2671.4
1028.309	2694.4
1033.423	2663.4
1038.532	2684.4
1043.636	2657.4
1048.734	2644.4
1053.827	2586.4
1058.915	2575.4
1063.998	2545.4
1069.075	2535.4
1074.147	2532.4
1079.214	2549.4
1084.276	2561.4
1089.333	2554.4
1094.385	2552.4
1099.431	2571.4
1104.472	2558.4
1109.509	2532.4
1114.54	2508.4
1119.565	2469.4
1124.586	2460.4
1129.602	2408.4
1134.613	2399.4
1139.618	2394.4
1144.619	2377.4
1149.614	2384.4
1154.604	2388.4
1159.589	2391.4
1164.57	2403.4
1169.545	2393.4
1174.515	2390.4
1179.48	2389.4
1184.44	2376.4
1189.395	2363.4
1194.345	2357.4
1199.29	2306.4
1204.23	2310.4
1209.165	2307.4
1214.095	2347.4
1219.021	2355.4
1223.941	2360.4
1228.856	2363.4
1233.766	2386.4
1238.672	2383.4
1243.572	2387.4
1248.467	2374.4
1253.358	2341.4
1258.244	2293.4
1263.124	2248.4
1268	2240.4
1272.871	2181.4
1277.737	2178.4
1282.599	2158.4
1287.455	2165.4
1292.306	2167.4
1297.153	2178.4
1301.995	2187.4
1306.832	2222.4
1311.664	2223.4
1316.491	2232.4
1321.314	2220.4
1326.132	2211.4
1330.945	2191.4
1335.753	2148.4
1340.556	2110.4
1345.354	2076.4
1350.148	2058.4
1354.937	2034.4
1359.722	1995.4
1364.501	1964.4
1369.276	1936.4
1374.046	1910.4
1378.811	1867.4
1383.572	1862.4
1388.327	1868.4
1393.079	1872.4
1397.825	1871.4
1402.567	1863.4
1407.304	1873.4
1412.036	1859.4
1416.764	1882.4
1421.487	1854.4
1426.205	1865.4
1430.919	1885.4
1435.628	1891.4
1440.333	1919.4
1445.032	1928.4
1449.727	1947.4
1454.418	1958.4
1459.104	1938.4
1463.785	1915.4
1468.462	1895.4
1473.134	1853.4
1477.802	1803.4
1482.465	1786.4
1487.123	1730.4
1491.777	1720.4
1496.426	1715.4
1501.071	1696.4
1505.711	1673.4
1510.347	1680.4
1514.978	1687.4
1519.604	1678.4
1524.226	1680.4
1528.844	1655.4
1533.457	1654.4
1538.065	1637.4
1542.669	1632.4
1547.269	1635.4
1551.864	1636.4
1556.454	1643.4
1561.041	1680.4
1565.622	1689.4
1570.199	1666.4
1574.772	1695.4
1579.34	1715.4
1583.904	1741.4
1588.464	1759.4
1593.019	1750.4
1597.569	1752.4
1602.115	1765.4
1606.657	1743.4
1611.195	1743.4
1615.728	1753.4
1620.256	1739.4
1624.78	1734.4
1629.3	1741.4
1633.816	1747.4
1638.327	1751.4
1642.834	1750.4
1647.336	1774.4
1651.834	1772.4
1656.328	1768.4
1660.817	1770.4
1665.302	1753.4
1669.783	1722.4
1674.259	1674.4
1678.732	1651.4
1683.199	1614.4
1687.663	1535.4
1692.122	1514.4
1696.577	1452.4
1701.028	1375.4
1705.474	1341.4
1709.917	1291.4
1714.355	1271.4
1718.788	1264.4
1723.218	1260.4
1727.643	1257.4
1732.064	1264.4
1736.481	1242.4
1740.893	1206.4
1745.301	1199.4
1749.705	1167.4
1754.105	1130.4
1758.501	1131.4
1762.893	1109.4
1767.28	1109.4
1771.663	1084.4
1776.042	1072.4
1780.417	1058.4
1784.787	1058.4
1789.154	1046.4
1793.516	1036.4
1797.874	1014.4
1802.228	1009.4
1806.578	999.4
1810.924	1001.4
1815.266	989.4
1819.603	972.4
1823.937	968.4
1828.266	984.4
1832.591	970.4
1836.913	974.4
1841.23	977.4
1845.543	968.4
1849.852	963.4
1854.156	974.4
1858.457	984.4
1862.754	980.4
1867.047	965.4
1871.335	976.4
1875.62	981.4
1879.9	977.4
1884.177	947.4
1888.449	953.4
1892.718	945.4
1896.982	928.4
1901.243	912.4
1905.499	913.4
1909.752	892.4
1914	887.4
1918.245	879.4
1922.485	857.4
1926.722	850.4
1930.954	851.4
1935.183	844.4
1939.408	836.4
1943.628	845.4
1947.845	821.4
1952.058	833.4
1956.267	820.4
1960.472	815.4
1964.673	805.4
1968.87	798.4
1973.063	775.4
1977.252	775.4
1981.438	799.4
1985.619	799.4
1989.797	788.4
1993.971	806.4
1998.14	800.4
2002.306	789.4
2006.469	803.4
2010.627	800.4
2014.781	798.4
2018.932	790.4
2023.078	787.4
2027.221	788.4
2031.36	781.4
2035.495	774.4
2039.627	762.4
2043.754	748.4
2047.878	744.4
2051.998	743.4
2056.114	723.4
2060.226	735.4
2064.334	725.4
2068.439	727.4
2072.54	720.4
2076.637	728.4
2080.73	731.4
2084.82	715.4
2088.906	711.4
2092.988	705.4
2097.066	697.4
2101.14	688.4
2105.211	683.4
2109.278	671.4
2113.342	668.4
2117.401	663.4
2121.457	638.4
2125.509	628.4
2129.558	636.4
2133.602	645.4
2137.643	634.4
2141.681	643.4
2145.714	644.4
2149.744	640.4
2153.77	649.4
2157.793	633.4
2161.812	637.4
2165.827	631.4
2169.838	608.4
2173.846	611.4
2177.851	597.4
2181.851	597.4
2185.848	583.4
2189.841	580.4
2193.831	571.4
2197.817	564.4
2201.799	563.4
2205.778	571.4
2209.753	565.4
2213.725	557.4
2217.693	557.4
2221.657	555.4
2225.618	561.4
2229.575	557.4
2233.529	558.4
2237.479	542.4
2241.425	546.4
2245.368	526.4
2249.307	521.4
2253.243	514.4
2257.175	508.4
2261.104	503.4
2265.029	497.4
2268.95	490.4
2272.868	475.4
2276.783	466.4
2280.694	472.4
2284.601	458.4
2288.505	465.4
2292.405	459.4
2296.302	450.4
2300.195	435.4
2304.085	444.4
2307.971	416.4
2311.854	423.4
2315.734	419.4
2319.609	410.4
2323.482	414.4
2327.351	416.4
2331.216	419.4
2335.078	435.4
2338.937	433.4
2342.792	403.4
2346.643	389.4
2350.492	388.4
2354.336	386.4
2358.178	411.4
2362.015	391.4
2365.85	396.4
2369.681	396.4
2373.508	404.4
2377.333	399.4
2381.153	391.4
2384.971	400.4
2388.785	391.4
2392.595	391.4
2396.402	385.4
2400.206	385.4
2404.007	382.4
2407.804	379.4
2411.597	378.4
2415.388	377.4
2419.174	372.4
2422.958	370.4
2426.738	365.4
2430.515	361.4
2434.289	364.4
2438.059	354.4
2441.825	341.4
2445.589	357.4
2449.349	345.4
2453.106	345.4
2456.859	340.4
2460.61	334.4
2464.356	330.4
2468.1	323.4
2471.84	325.4
2475.577	332.4
2479.311	321.4
2483.041	317.4
2486.768	324.4
2490.492	308.4
2494.213	322.4
2497.93	310.4
2501.644	302.4
2505.355	310.4
2509.062	294.4
2512.766	299.4
2516.467	293.4
2520.165	289.4
2523.859	301.4
2527.551	288.4
2531.239	277.4
2534.923	265.4
2538.605	269.4
2542.283	263.4
2545.958	270.4
2549.63	261.4
2553.299	270.4
2556.964	274.4
2560.626	256.4
2564.285	255.4
2567.941	251.4
2571.594	249.4
2575.243	250.4
2578.89	244.4
2582.533	234.4
2586.173	236.4
2589.809	232.4
2593.443	227.4
2597.073	224.4
2600.701	223.4
2604.325	222.4
2607.946	219.4
2611.564	225.4
2615.178	218.4
2618.79	223.4
2622.398	219.4
2626.004	217.4
2629.606	208.4
2633.205	203.4
2636.801	219.4
2640.394	202.4
2643.983	208.4
2647.57	201.4
2651.153	200.4
2654.734	196.4
2658.311	183.4
2661.885	187.4
2665.456	194.4
2669.025	193.4
2672.589	190.4
2676.151	183.4
2679.71	187.4
2683.266	174.4
2686.819	168.4
2690.368	181.4
2693.915	167.4
2697.458	168.4
2700.999	177.4
2704.536	165.4
2708.071	157.4
2711.602	157.4
2715.13	156.4
2718.656	155.4
2722.178	155.4
2725.697	138.4
2729.214	146.4
2732.727	145.4
2736.237	146.4
2739.744	139.4
2743.249	134.4
2746.75	142.4
2750.248	138.4
2753.743	134.4
2757.236	123.4
2760.725	132.4
2764.211	120.4
2767.695	118.4
2771.175	112.4
2774.652	107.4
2778.127	112.4
2781.598	118.4
2785.067	117.4
2788.532	113.4
2791.995	111.4
2795.455	116.4
2798.911	120.4
2802.365	118.4
2805.816	135.4
2809.264	116.4
2812.709	127.4
2816.151	119.4
2819.59	125.4
2823.026	124.4
2826.46	119.4
2829.89	127.4
2833.318	116.4
2836.742	127.4
2840.164	120.4
2843.583	124.4
2846.999	130.4
2850.412	132.4
2853.822	121.4
2857.229	116.4
2860.634	135.4
2864.035	140.4
2867.434	138.4
2870.83	148.4
2874.223	151.4
2877.613	159.4
2881	162.4
2884.385	165.4
2887.766	156.4
2891.145	157.4
2894.521	160.4
2897.894	166.4
2901.264	174.4
2904.631	163.4
2907.996	167.4
2911.358	164.4
2914.717	168.4
2918.073	184.4
2921.426	174.4
2924.777	182.4
2928.124	187.4
2931.469	183.4
2934.811	198.4
2938.15	199.4
2941.487	206.4
2944.821	213.4
2948.152	204.4
2951.48	213.4
2954.805	208.4
2958.128	205.4
2961.447	188.4
2964.765	204.4
2968.079	194.4
2971.39	196.4
2974.699	210.4
2978.005	198.4
2981.308	205.4
2984.609	203.4
2987.907	196.4
2991.202	209.4
2994.494	213.4
2997.784	215.4
3001.07	216.4
3004.355	232.4
3007.636	230.4
3010.915	222.4
3014.191	226.4
3017.464	234.4
3020.734	236.4
3024.002	234.4
3027.267	238.4
3030.53	246.4
3033.789	252.4
3037.046	259.4
3040.301	262.4
3043.552	276.4
3046.801	266.4
3050.048	298.4
3053.291	305.4
3056.532	312.4
3059.771	329.4
3063.006	322.4
3066.239	343.4
3069.469	348.4
3072.697	357.4
3075.922	371.4
3079.144	380.4
3082.364	396.4
3085.581	405.4
3088.795	404.4
3092.007	414.4
3095.216	413.4
3098.423	437.4
3101.627	447.4
3104.828	454.4
3108.026	463.4
3111.222	480.4
3114.416	481.4
3117.607	483.4
3120.795	495.4
3123.98	500.4
3127.163	526.4
3130.344	545.4
3133.521	568.4
3136.696	564.4
3139.869	557.4
3143.039	586.4
3146.206	584.4
3149.371	589.4
3152.533	600.4
3155.693	613.4
3158.85	620.4
3162.005	627.4
3165.157	631.4
3168.306	629.4
3171.453	618.4
3174.597	620.4
3177.739	648.4
3180.878	630.4
3184.014	646.4
3187.149	634.4
3190.28	656.4
3193.409	640.4
3196.536	638.4
3199.659	647.4
3202.781	661.4
3205.9	654.4
3209.016	670.4
3212.13	658.4
3215.241	654.4
3218.35	656.4
3221.456	638.4
3224.56	622.4
3227.661	616.4
3230.76	624.4
3233.856	613.4
3236.95	597.4
3240.041	607.4
3243.13	594.4
3246.216	570.4
3249.3	557.4
3252.382	548.4
3255.46	553.4
3258.537	557.4
3261.611	548.4
3264.682	534.4
3267.751	538.4
3270.818	535.4
3273.882	524.4
3276.943	529.4
3280.002	516.4
3283.059	533.4
3286.113	508.4
3289.165	521.4
3292.214	514.4
3295.261	491.4
3298.306	494.4
3301.348	483.4
3304.387	475.4
3307.425	472.4
3310.459	474.4
3313.492	468.4
3316.521	461.4
3319.549	465.4
3322.574	453.4
3325.597	458.4
3328.617	447.4
3331.635	440.4
3334.65	440.4
3337.663	430.4
3340.674	441.4
3343.682	436.4
3346.688	438.4
3349.691	441.4
3352.692	431.4
3355.691	438.4
3358.687	426.4
3361.681	430.4
3364.673	427.4
3367.662	409.4
3370.649	401.4
3373.633	394.4
3376.615	390.4
3379.595	388.4
3382.572	387.4
3385.547	387.4
3388.52	366.4
3391.49	363.4
3394.458	360.4
3397.424	345.4
3400.387	348.4
3403.348	351.4
3406.307	341.4
3409.263	337.4
3412.217	338.4
3415.168	331.4
3418.118	317.4
3421.065	323.4
3424.009	322.4
3426.951	315.4
3429.891	297.4
3432.829	288.4
3435.764	281.4
3438.697	276.4
3441.628	268.4
3444.557	258.4
3447.483	255.4
3450.407	244.4
3453.328	226.4
3456.247	225.4
3459.164	210.4
3462.079	205.4
3464.991	201.4
3467.902	198.4
3470.809	196.4
3473.715	177.4
3476.618	165.4
3479.519	156.4
3482.418	149.4
3485.315	136.4
3488.209	134.4
3491.101	132.4
3493.99	130.4
3496.878	120.4
3499.763	109.4
3502.646	107.4
3505.527	94.4
3508.405	96.4
3511.281	85.4
3514.155	84.4
3517.027	79.4
3519.897	64.4
3522.764	68.4
3525.629	51.4
3528.492	45.4
3531.352	41.4
3534.211	31.4
3537.067	28.4
3539.921	25.4
3542.773	21.4
3545.622	18.4
3548.469	5.4
3551.315	2.4
3554.157	-3.6
3556.998	-12.6
3559.837	-9.6
3562.673	-8.6
3565.507	-14.6
3568.339	-15.6
3571.169	-26.6
3573.996	-26.6
3576.822	-28.6
3579.645	-31.6
3582.466	-31.6
3585.285	-39.6
3588.101	-35.6
3590.916	-45.6
3593.728	-48.6
3596.538	-54.6
3599.346	-55.6
3602.152	-61.6
3604.956	-57.6
3607.757	-54.6
3610.556	-63.6
3613.354	-59.6
3616.149	-68.6
3618.942	-76.6
3621.732	-72.6
3624.521	-74.6
3627.307	-73.6
3630.092	-73.6
3632.874	-75.6
3635.654	-85.6
3638.432	-76.6
3641.208	-80.6
3643.982	-84.6
3646.753	-88.6
3649.523	-88.6
3652.29	-80.6
3655.055	-86.6
3657.818	-90.6
3660.579	-92.6
3663.338	-94.6
3666.095	-98.6
3668.849	-102.6
3671.602	-96.6
3674.352	-103.6
3677.101	-101.6
3679.847	-100.6
3682.591	-102.6
3685.333	-105.6
3688.073	-103.6
3690.811	-102.6
3693.547	-110.6
3696.281	-111.6
3699.013	-109.6
3701.742	-113.6
3704.47	-114.6
3707.195	-114.6
3709.919	-108.6
3712.64	-110.6
3715.359	-118.6
3718.076	-111.6
3720.792	-112.6
3723.505	-118.6
3726.216	-114.6
3728.925	-122.6
3731.632	-116.6
3734.336	-121.6
3737.039	-114.6
3739.74	-119.6
3742.439	-125.6
3745.136	-120.6
3747.83	-125.6
3750.523	-122.6
3753.213	-125.6
3755.902	-118.6
3758.589	-122.6
3761.273	-120.6
3763.956	-118.6
3766.636	-122.6
3769.315	-118.6
3771.991	-123.6
3774.665	-128.6
3777.338	-117.6
3780.008	-123.6
3782.677	-124.6
3785.343	-124.6
3788.007	-125.6
3790.67	-123.6
3793.33	-114.6
3795.989	-122.6
3798.645	-118.6
3801.299	-125.6
3803.952	-129.6
3806.602	-121.6
3809.251	-130.6
3811.897	-131.6
3814.542	-130.6
3817.184	-119.6
3819.825	-124.6
3822.463	-128.6
3825.1	-127.6
3827.735	-127.6
3830.367	-126.6
3832.998	-130.6
3835.627	-126.6
3838.253	-124.6
3840.878	-124.6
3843.501	-124.6
3846.122	-129.6
3848.741	-128.6
3851.358	-123.6
3853.973	-128.6
3856.586	-121.6
3859.197	-133.6
3861.806	-125.6
3864.414	-130.6
3867.019	-126.6
3869.622	-125.6
3872.224	-115.6
3874.823	-110.6
3877.421	-102.6
3880.016	-86.6
3882.61	-66.6
3885.202	-66.6
3887.792	-86.6
3890.38	-98.6
3892.966	-118.6
3895.55	-127.6
3898.132	-125.6
3900.713	-126.6
3903.291	-132.6
3905.868	-133.6
3908.442	-121.6
3911.015	-130.6
3913.586	-131.6
3916.155	-134.6
3918.722	-130.6
3921.287	-129.6
3923.85	-129.6
3926.411	-133.6
3928.971	-129.6
3931.528	-130.6
3934.084	-133.6
3936.638	-120.6
3939.19	-129.6
3941.74	-131.6
3944.288	-126.6
3946.834	-123.6
3949.378	-130.6
3951.921	-130.6
3954.462	-130.6
3957	-126.6
3959.537	-129.6
3962.072	-128.6
3964.606	-122.6
3967.137	-129.6
3969.667	-131.6
3972.194	-131.6
3974.72	-128.6
3977.244	-129.6
3979.766	-125.6
3982.286	-128.6
3984.805	-129.6
3987.321	-127.6
3989.836	-123.6
3992.349	-129.6
3994.86	-128.6
3997.369	-130.6
3999.877	-128.6
4002.382	-119.6
4004.886	-132.6
4007.388	-126.6
4009.888	-126.6
4012.386	-130.6
4014.883	-131.6
4017.377	-127.6
4019.87	-127.6
4022.361	-126.6
4024.85	-128.6
4027.338	-128.6
4029.823	-126.6
4032.307	-124.6
4034.789	-128.6
4037.269	-127.6
4039.747	-126.6
4042.224	-122.6
4044.699	-128.6
4047.172	-125.6
4049.643	-123.6
4052.112	-127.6
4054.58	-129.6
4057.046	-129.6
4059.51	-128.6
4061.972	-128.6
4064.432	-117.6
4066.891	-128.6
4069.348	-127.6
4071.803	-132.6
4074.256	-128.6
4076.708	-125.6
4079.158	-126.6
4081.606	-120.6
4084.052	-131.6
4086.497	-124.6
4088.939	-121.6
4091.38	-128.6
4093.819	-125.6
4096.257	-132.6
4098.693	-132.6
4101.127	-132.6
4103.559	-129.6
4105.989	-10.6
4108.418	-11.6
4110.845	0.4
4113.27	-6.6
4115.694	-13.6
4118.115	-10.6
4120.535	-129.6
4122.954	-128.6
4125.37	-121.6
4127.785	-128.6
4130.198	-126.6
4132.609	-126.6
4135.019	-134.6
4137.427	-135.6
4139.833	-134.6
4142.237	-133.6
