Data from 2018-2-8_conc=3_n=4_RamanShift_05.txt Node
Date: Mon Mar 12 14:39:58 IST 2018
User: aro
Spectrometer: QEPB0276
Trigger mode: 0
Integration Time (sec): 3.000000E1
Scans to average: 1
Electric dark correction enabled: true
Nonlinearity correction enabled: false
Boxcar width: 0
XAxis mode: Raman Shifts
Number of Pixels in Spectrum: 1044
>>>>>Begin Spectral Data<<<<<
160.701	8.2
166.742	43.2
172.777	145.2
178.805	441.2
184.826	1198.2
190.841	2615.2
196.849	4397.2
202.85	5759.2
208.845	6276.2
214.833	6287.2
220.815	6212.2
226.789	6185.2
232.758	6152.2
238.719	6140.2
244.674	6146.2
250.623	6043.2
256.565	5961.2
262.5	5872.2
268.429	5808.2
274.351	5722.2
280.267	5689.2
286.176	5680.2
292.079	5645.2
297.975	5583.2
303.865	5548.2
309.748	5545.2
315.625	5537.2
321.495	5525.2
327.359	5479.2
333.217	5538.2
339.068	5519.2
344.912	5493.2
350.751	5533.2
356.583	5525.2
362.408	5544.2
368.227	5542.2
374.04	5569.2
379.847	5562.2
385.647	5599.2
391.44	5628.2
397.228	5599.2
403.009	5650.2
408.784	5680.2
414.553	5704.2
420.315	5722.2
426.071	5747.2
431.821	5707.2
437.565	5718.2
443.302	5705.2
449.033	5710.2
454.758	5632.2
460.477	5697.2
466.189	5633.2
471.896	5583.2
477.596	5560.2
483.29	5532.2
488.978	5557.2
494.66	5505.2
500.335	5431.2
506.005	5320.2
511.668	5199.2
517.325	5076.2
522.977	4948.2
528.622	4847.2
534.261	4804.2
539.894	4749.2
545.521	4723.2
551.141	4686.2
556.756	4695.2
562.365	4643.2
567.968	4636.2
573.565	4562.2
579.155	4514.2
584.74	4553.2
590.319	4522.2
595.892	4511.2
601.459	4500.2
607.02	4482.2
612.575	4449.2
618.124	4422.2
623.667	4359.2
629.204	4358.2
634.735	4304.2
640.261	4261.2
645.781	4251.2
651.294	4265.2
656.802	4251.2
662.304	4229.2
667.8	4214.2
673.29	4193.2
678.775	4204.2
684.254	4173.2
689.726	4196.2
695.193	4123.2
700.655	4131.2
706.11	4098.2
711.56	4092.2
717.004	4062.2
722.442	4071.2
727.874	4033.2
733.301	4026.2
738.722	3989.2
744.137	3954.2
749.547	3975.2
754.951	3964.2
760.349	3965.2
765.741	3997.2
771.128	3984.2
776.509	4012.2
781.885	4005.2
787.254	3992.2
792.618	4029.2
797.977	3989.2
803.33	3979.2
808.677	3951.2
814.019	3932.2
819.355	3929.2
824.686	3869.2
830.011	3841.2
835.33	3840.2
840.644	3847.2
845.952	3811.2
851.255	3840.2
856.552	3834.2
861.844	3788.2
867.13	3799.2
872.41	3779.2
877.686	3728.2
882.955	3719.2
888.219	3665.2
893.478	3644.2
898.731	3594.2
903.979	3531.2
909.221	3507.2
914.458	3482.2
919.69	3491.2
924.916	3493.2
930.136	3506.2
935.351	3519.2
940.561	3519.2
945.766	3505.2
950.965	3496.2
956.158	3475.2
961.347	3433.2
966.529	3392.2
971.707	3350.2
976.879	3305.2
982.046	3271.2
987.208	3241.2
992.364	3253.2
997.515	3263.2
1002.66	3293.2
1007.801	3320.2
1012.936	3358.2
1018.066	3346.2
1023.19	3348.2
1028.309	3346.2
1033.423	3349.2
1038.532	3311.2
1043.636	3294.2
1048.734	3277.2
1053.827	3226.2
1058.915	3210.2
1063.998	3154.2
1069.075	3142.2
1074.147	3161.2
1079.214	3154.2
1084.276	3158.2
1089.333	3214.2
1094.385	3213.2
1099.431	3216.2
1104.472	3189.2
1109.509	3170.2
1114.54	3118.2
1119.565	3105.2
1124.586	3060.2
1129.602	3024.2
1134.613	2995.2
1139.618	2977.2
1144.619	2978.2
1149.614	2948.2
1154.604	2971.2
1159.589	2991.2
1164.57	3006.2
1169.545	2990.2
1174.515	2994.2
1179.48	3001.2
1184.44	2982.2
1189.395	2947.2
1194.345	2916.2
1199.29	2896.2
1204.23	2911.2
1209.165	2915.2
1214.095	2920.2
1219.021	2924.2
1223.941	2944.2
1228.856	2947.2
1233.766	2966.2
1238.672	2964.2
1243.572	2971.2
1248.467	2942.2
1253.358	2920.2
1258.244	2868.2
1263.124	2828.2
1268	2756.2
1272.871	2740.2
1277.737	2717.2
1282.599	2710.2
1287.455	2699.2
1292.306	2718.2
1297.153	2723.2
1301.995	2749.2
1306.832	2753.2
1311.664	2770.2
1316.491	2779.2
1321.314	2786.2
1326.132	2741.2
1330.945	2746.2
1335.753	2684.2
1340.556	2642.2
1345.354	2619.2
1350.148	2559.2
1354.937	2533.2
1359.722	2486.2
1364.501	2436.2
1369.276	2386.2
1374.046	2360.2
1378.811	2297.2
1383.572	2320.2
1388.327	2298.2
1393.079	2328.2
1397.825	2318.2
1402.567	2314.2
1407.304	2311.2
1412.036	2325.2
1416.764	2341.2
1421.487	2335.2
1426.205	2348.2
1430.919	2362.2
1435.628	2350.2
1440.333	2377.2
1445.032	2384.2
1449.727	2389.2
1454.418	2421.2
1459.104	2407.2
1463.785	2366.2
1468.462	2350.2
1473.134	2304.2
1477.802	2241.2
1482.465	2177.2
1487.123	2150.2
1491.777	2140.2
1496.426	2106.2
1501.071	2082.2
1505.711	2072.2
1510.347	2059.2
1514.978	2071.2
1519.604	2051.2
1524.226	2056.2
1528.844	2023.2
1533.457	2020.2
1538.065	2012.2
1542.669	2014.2
1547.269	1996.2
1551.864	2016.2
1556.454	2039.2
1561.041	2036.2
1565.622	2060.2
1570.199	2062.2
1574.772	2085.2
1579.34	2114.2
1583.904	2145.2
1588.464	2151.2
1593.019	2167.2
1597.569	2168.2
1602.115	2168.2
1606.657	2155.2
1611.195	2148.2
1615.728	2142.2
1620.256	2116.2
1624.78	2133.2
1629.3	2143.2
1633.816	2128.2
1638.327	2156.2
1642.834	2179.2
1647.336	2178.2
1651.834	2167.2
1656.328	2202.2
1660.817	2182.2
1665.302	2154.2
1669.783	2099.2
1674.259	2054.2
1678.732	2023.2
1683.199	1972.2
1687.663	1896.2
1692.122	1821.2
1696.577	1752.2
1701.028	1695.2
1705.474	1613.2
1709.917	1561.2
1714.355	1551.2
1718.788	1527.2
1723.218	1531.2
1727.643	1532.2
1732.064	1516.2
1736.481	1513.2
1740.893	1471.2
1745.301	1441.2
1749.705	1427.2
1754.105	1389.2
1758.501	1365.2
1762.893	1353.2
1767.28	1339.2
1771.663	1337.2
1776.042	1318.2
1780.417	1281.2
1784.787	1285.2
1789.154	1276.2
1793.516	1268.2
1797.874	1229.2
1802.228	1213.2
1806.578	1226.2
1810.924	1197.2
1815.266	1179.2
1819.603	1185.2
1823.937	1175.2
1828.266	1186.2
1832.591	1182.2
1836.913	1179.2
1841.23	1193.2
1845.543	1187.2
1849.852	1175.2
1854.156	1172.2
1858.457	1187.2
1862.754	1192.2
1867.047	1183.2
1871.335	1195.2
1875.62	1183.2
1879.9	1175.2
1884.177	1171.2
1888.449	1146.2
1892.718	1157.2
1896.982	1134.2
1901.243	1107.2
1905.499	1096.2
1909.752	1074.2
1914	1074.2
1918.245	1065.2
1922.485	1038.2
1926.722	1038.2
1930.954	1033.2
1935.183	1032.2
1939.408	1016.2
1943.628	1018.2
1947.845	994.2
1952.058	997.2
1956.267	991.2
1960.472	982.2
1964.673	972.2
1968.87	957.2
1973.063	951.2
1977.252	951.2
1981.438	951.2
1985.619	962.2
1989.797	946.2
1993.971	957.2
1998.14	949.2
2002.306	934.2
2006.469	973.2
2010.627	968.2
2014.781	965.2
2018.932	950.2
2023.078	977.2
2027.221	960.2
2031.36	931.2
2035.495	941.2
2039.627	915.2
2043.754	911.2
2047.878	913.2
2051.998	905.2
2056.114	884.2
2060.226	874.2
2064.334	888.2
2068.439	884.2
2072.54	872.2
2076.637	880.2
2080.73	862.2
2084.82	859.2
2088.906	852.2
2092.988	854.2
2097.066	845.2
2101.14	829.2
2105.211	826.2
2109.278	804.2
2113.342	803.2
2117.401	790.2
2121.457	780.2
2125.509	771.2
2129.558	775.2
2133.602	781.2
2137.643	783.2
2141.681	772.2
2145.714	775.2
2149.744	775.2
2153.77	771.2
2157.793	768.2
2161.812	764.2
2165.827	762.2
2169.838	742.2
2173.846	734.2
2177.851	711.2
2181.851	708.2
2185.848	714.2
2189.841	696.2
2193.831	705.2
2197.817	688.2
2201.799	689.2
2205.778	693.2
2209.753	684.2
2213.725	686.2
2217.693	675.2
2221.657	681.2
2225.618	677.2
2229.575	692.2
2233.529	670.2
2237.479	661.2
2241.425	659.2
2245.368	638.2
2249.307	631.2
2253.243	627.2
2257.175	621.2
2261.104	616.2
2265.029	611.2
2268.95	603.2
2272.868	590.2
2276.783	575.2
2280.694	581.2
2284.601	567.2
2288.505	566.2
2292.405	558.2
2296.302	551.2
2300.195	543.2
2304.085	526.2
2307.971	517.2
2311.854	522.2
2315.734	497.2
2319.609	508.2
2323.482	508.2
2327.351	507.2
2331.216	512.2
2335.078	521.2
2338.937	504.2
2342.792	484.2
2346.643	488.2
2350.492	494.2
2354.336	491.2
2358.178	487.2
2362.015	475.2
2365.85	492.2
2369.681	483.2
2373.508	491.2
2377.333	492.2
2381.153	492.2
2384.971	488.2
2388.785	491.2
2392.595	482.2
2396.402	475.2
2400.206	478.2
2404.007	465.2
2407.804	464.2
2411.597	469.2
2415.388	462.2
2419.174	456.2
2422.958	451.2
2426.738	454.2
2430.515	449.2
2434.289	437.2
2438.059	447.2
2441.825	447.2
2445.589	428.2
2449.349	423.2
2453.106	427.2
2456.859	433.2
2460.61	431.2
2464.356	406.2
2468.1	398.2
2471.84	391.2
2475.577	392.2
2479.311	387.2
2483.041	383.2
2486.768	397.2
2490.492	395.2
2494.213	380.2
2497.93	381.2
2501.644	378.2
2505.355	368.2
2509.062	373.2
2512.766	366.2
2516.467	356.2
2520.165	356.2
2523.859	361.2
2527.551	349.2
2531.239	343.2
2534.923	329.2
2538.605	328.2
2542.283	330.2
2545.958	321.2
2549.63	321.2
2553.299	327.2
2556.964	332.2
2560.626	314.2
2564.285	311.2
2567.941	298.2
2571.594	312.2
2575.243	295.2
2578.89	295.2
2582.533	285.2
2586.173	279.2
2589.809	274.2
2593.443	285.2
2597.073	277.2
2600.701	265.2
2604.325	272.2
2607.946	276.2
2611.564	262.2
2615.178	275.2
2618.79	267.2
2622.398	265.2
2626.004	260.2
2629.606	255.2
2633.205	261.2
2636.801	254.2
2640.394	255.2
2643.983	254.2
2647.57	252.2
2651.153	247.2
2654.734	241.2
2658.311	230.2
2661.885	226.2
2665.456	241.2
2669.025	230.2
2672.589	235.2
2676.151	223.2
2679.71	223.2
2683.266	219.2
2686.819	217.2
2690.368	208.2
2693.915	215.2
2697.458	207.2
2700.999	210.2
2704.536	207.2
2708.071	190.2
2711.602	193.2
2715.13	186.2
2718.656	184.2
2722.178	181.2
2725.697	183.2
2729.214	176.2
2732.727	183.2
2736.237	177.2
2739.744	174.2
2743.249	167.2
2746.75	174.2
2750.248	165.2
2753.743	161.2
2757.236	160.2
2760.725	148.2
2764.211	148.2
2767.695	141.2
2771.175	142.2
2774.652	144.2
2778.127	145.2
2781.598	145.2
2785.067	154.2
2788.532	137.2
2791.995	148.2
2795.455	149.2
2798.911	146.2
2802.365	151.2
2805.816	150.2
2809.264	148.2
2812.709	155.2
2816.151	144.2
2819.59	152.2
2823.026	139.2
2826.46	137.2
2829.89	146.2
2833.318	142.2
2836.742	156.2
2840.164	150.2
2843.583	148.2
2846.999	147.2
2850.412	157.2
2853.822	148.2
2857.229	160.2
2860.634	167.2
2864.035	169.2
2867.434	169.2
2870.83	172.2
2874.223	182.2
2877.613	189.2
2881	198.2
2884.385	199.2
2887.766	192.2
2891.145	187.2
2894.521	197.2
2897.894	198.2
2901.264	193.2
2904.631	208.2
2907.996	202.2
2911.358	203.2
2914.717	203.2
2918.073	210.2
2921.426	221.2
2924.777	222.2
2928.124	236.2
2931.469	234.2
2934.811	240.2
2938.15	244.2
2941.487	261.2
2944.821	247.2
2948.152	243.2
2951.48	247.2
2954.805	257.2
2958.128	252.2
2961.447	252.2
2964.765	247.2
2968.079	251.2
2971.39	253.2
2974.699	252.2
2978.005	249.2
2981.308	255.2
2984.609	267.2
2987.907	250.2
2991.202	259.2
2994.494	263.2
2997.784	255.2
3001.07	269.2
3004.355	278.2
3007.636	282.2
3010.915	271.2
3014.191	287.2
3017.464	281.2
3020.734	285.2
3024.002	285.2
3027.267	294.2
3030.53	304.2
3033.789	323.2
3037.046	322.2
3040.301	319.2
3043.552	343.2
3046.801	342.2
3050.048	355.2
3053.291	358.2
3056.532	372.2
3059.771	400.2
3063.006	404.2
3066.239	421.2
3069.469	438.2
3072.697	434.2
3075.922	455.2
3079.144	461.2
3082.364	482.2
3085.581	507.2
3088.795	499.2
3092.007	513.2
3095.216	521.2
3098.423	518.2
3101.627	546.2
3104.828	554.2
3108.026	562.2
3111.222	583.2
3114.416	581.2
3117.607	599.2
3120.795	617.2
3123.98	609.2
3127.163	643.2
3130.344	650.2
3133.521	681.2
3136.696	692.2
3139.869	683.2
3143.039	706.2
3146.206	701.2
3149.371	730.2
3152.533	725.2
3155.693	755.2
3158.85	746.2
3162.005	760.2
3165.157	768.2
3168.306	752.2
3171.453	757.2
3174.597	769.2
3177.739	773.2
3180.878	771.2
3184.014	805.2
3187.149	784.2
3190.28	788.2
3193.409	793.2
3196.536	798.2
3199.659	800.2
3202.781	812.2
3205.9	801.2
3209.016	812.2
3212.13	804.2
3215.241	800.2
3218.35	789.2
3221.456	785.2
3224.56	769.2
3227.661	761.2
3230.76	749.2
3233.856	749.2
3236.95	727.2
3240.041	726.2
3243.13	710.2
3246.216	706.2
3249.3	682.2
3252.382	689.2
3255.46	682.2
3258.537	671.2
3261.611	669.2
3264.682	656.2
3267.751	669.2
3270.818	652.2
3273.882	644.2
3276.943	651.2
3280.002	636.2
3283.059	636.2
3286.113	633.2
3289.165	625.2
3292.214	631.2
3295.261	608.2
3298.306	616.2
3301.348	589.2
3304.387	600.2
3307.425	584.2
3310.459	578.2
3313.492	566.2
3316.521	559.2
3319.549	556.2
3322.574	551.2
3325.597	554.2
3328.617	553.2
3331.635	549.2
3334.65	556.2
3337.663	539.2
3340.674	551.2
3343.682	554.2
3346.688	540.2
3349.691	537.2
3352.692	548.2
3355.691	538.2
3358.687	518.2
3361.681	535.2
3364.673	520.2
3367.662	511.2
3370.649	503.2
3373.633	491.2
3376.615	488.2
3379.595	477.2
3382.572	484.2
3385.547	459.2
3388.52	461.2
3391.49	450.2
3394.458	441.2
3397.424	432.2
3400.387	418.2
3403.348	431.2
3406.307	417.2
3409.263	416.2
3412.217	403.2
3415.168	405.2
3418.118	402.2
3421.065	384.2
3424.009	384.2
3426.951	375.2
3429.891	367.2
3432.829	351.2
3435.764	351.2
3438.697	343.2
3441.628	336.2
3444.557	317.2
3447.483	311.2
3450.407	288.2
3453.328	284.2
3456.247	276.2
3459.164	265.2
3462.079	261.2
3464.991	250.2
3467.902	235.2
3470.809	233.2
3473.715	213.2
3476.618	190.2
3479.519	198.2
3482.418	195.2
3485.315	186.2
3488.209	174.2
3491.101	168.2
3493.99	268.2
3496.878	185.2
3499.763	138.2
3502.646	131.2
3505.527	121.2
3508.405	126.2
3511.281	112.2
3514.155	106.2
3517.027	95.2
3519.897	89.2
3522.764	74.2
3525.629	70.2
3528.492	66.2
3531.352	53.2
3534.211	48.2
3537.067	37.2
3539.921	35.2
3542.773	32.2
3545.622	10.2
3548.469	6.2
3551.315	14.2
3554.157	1.2
3556.998	-6.8
3559.837	-8.8
3562.673	-8.8
3565.507	-9.8
3568.339	-20.8
3571.169	-33.8
3573.996	-24.8
3576.822	-33.8
3579.645	-31.8
3582.466	-30.8
3585.285	-38.8
3588.101	-37.8
3590.916	-57.8
3593.728	-63.8
3596.538	-52.8
3599.346	-60.8
3602.152	-62.8
3604.956	-65.8
3607.757	-66.8
3610.556	-70.8
3613.354	-70.8
3616.149	-81.8
3618.942	-85.8
3621.732	-84.8
3624.521	-79.8
3627.307	-83.8
3630.092	-84.8
3632.874	-83.8
3635.654	-92.8
3638.432	-92.8
3641.208	-97.8
3643.982	-98.8
3646.753	-102.8
3649.523	-103.8
3652.29	-99.8
3655.055	-103.8
3657.818	-103.8
3660.579	-103.8
3663.338	-108.8
3666.095	-109.8
3668.849	-109.8
3671.602	-115.8
3674.352	-115.8
3677.101	-117.8
3679.847	-119.8
3682.591	-124.8
3685.333	-124.8
3688.073	-120.8
3690.811	-121.8
3693.547	-130.8
3696.281	-125.8
3699.013	-130.8
3701.742	-132.8
3704.47	-134.8
3707.195	-129.8
3709.919	-127.8
3712.64	-131.8
3715.359	-136.8
3718.076	-131.8
3720.792	-135.8
3723.505	-139.8
3726.216	-140.8
3728.925	-138.8
3731.632	-136.8
3734.336	-142.8
3737.039	-142.8
3739.74	-144.8
3742.439	-151.8
3745.136	-136.8
3747.83	-148.8
3750.523	-141.8
3753.213	-136.8
3755.902	-138.8
3758.589	-146.8
3761.273	-138.8
3763.956	-138.8
3766.636	-141.8
3769.315	-139.8
3771.991	-144.8
3774.665	-145.8
3777.338	-138.8
3780.008	-144.8
3782.677	-143.8
3785.343	-146.8
3788.007	-151.8
3790.67	-150.8
3793.33	-144.8
3795.989	-146.8
3798.645	-144.8
3801.299	-143.8
3803.952	-152.8
3806.602	-140.8
3809.251	-153.8
3811.897	-152.8
3814.542	-152.8
3817.184	-141.8
3819.825	-143.8
3822.463	-144.8
3825.1	-145.8
3827.735	-148.8
3830.367	-150.8
3832.998	-146.8
3835.627	-147.8
3838.253	-144.8
3840.878	-144.8
3843.501	-147.8
3846.122	-148.8
3848.741	-156.8
3851.358	-147.8
3853.973	-152.8
3856.586	-149.8
3859.197	-154.8
3861.806	-142.8
3864.414	-149.8
3867.019	-146.8
3869.622	-149.8
3872.224	-140.8
3874.823	-131.8
3877.421	-123.8
3880.016	-95.8
3882.61	-78.8
3885.202	-77.8
3887.792	-92.8
3890.38	-120.8
3892.966	-142.8
3895.55	-145.8
3898.132	-143.8
3900.713	-146.8
3903.291	-151.8
3905.868	-154.8
3908.442	-148.8
3911.015	-152.8
3913.586	-154.8
3916.155	-154.8
3918.722	-151.8
3921.287	-150.8
3923.85	-151.8
3926.411	-151.8
3928.971	-150.8
3931.528	-157.8
3934.084	-148.8
3936.638	-148.8
3939.19	-153.8
3941.74	-152.8
3944.288	-152.8
3946.834	-152.8
3949.378	-158.8
3951.921	-154.8
3954.462	-158.8
3957	-150.8
3959.537	-150.8
3962.072	-158.8
3964.606	-146.8
3967.137	-153.8
3969.667	-157.8
3972.194	-156.8
3974.72	-153.8
3977.244	-152.8
3979.766	-150.8
3982.286	-151.8
3984.805	-153.8
3987.321	-152.8
3989.836	-146.8
3992.349	-152.8
3994.86	-151.8
3997.369	-148.8
3999.877	-149.8
4002.382	-146.8
4004.886	-155.8
4007.388	-152.8
4009.888	-150.8
4012.386	-148.8
4014.883	-147.8
4017.377	-145.8
4019.87	-145.8
4022.361	-155.8
4024.85	-150.8
4027.338	-151.8
4029.823	-146.8
4032.307	-146.8
4034.789	-149.8
4037.269	-152.8
4039.747	-143.8
4042.224	-145.8
4044.699	-157.8
4047.172	-149.8
4049.643	-150.8
4052.112	-144.8
4054.58	-150.8
4057.046	-146.8
4059.51	-155.8
4061.972	-151.8
4064.432	-149.8
4066.891	-154.8
4069.348	-145.8
4071.803	-148.8
4074.256	-152.8
4076.708	-150.8
4079.158	-148.8
4081.606	-149.8
4084.052	-155.8
4086.497	-149.8
4088.939	-144.8
4091.38	-148.8
4093.819	-152.8
4096.257	-161.8
4098.693	-155.8
4101.127	-157.8
4103.559	-153.8
4105.989	-13.8
4108.418	-19.8
4110.845	-18.8
4113.27	-18.8
4115.694	-22.8
4118.115	-26.8
4120.535	-151.8
4122.954	-151.8
4125.37	-149.8
4127.785	-154.8
4130.198	-149.8
4132.609	-147.8
4135.019	-157.8
4137.427	-160.8
4139.833	-157.8
4142.237	-161.8
