Data from 2018-2-8_conc=5_n=8_RamanShift_05.txt Node
Date: Mon Mar 12 16:15:58 IST 2018
User: aro
Spectrometer: QEPB0276
Trigger mode: 0
Integration Time (sec): 3.000000E1
Scans to average: 1
Electric dark correction enabled: true
Nonlinearity correction enabled: false
Boxcar width: 0
XAxis mode: Raman Shifts
Number of Pixels in Spectrum: 1044
>>>>>Begin Spectral Data<<<<<
160.701	7.9
166.742	41.9
172.777	117.9
178.805	353.9
184.826	984.9
190.841	2116.9
196.849	3527.9
202.85	4582.9
208.845	5018.9
214.833	5012.9
220.815	4936.9
226.789	4918.9
232.758	4930.9
238.719	4940.9
244.674	4904.9
250.623	4861.9
256.565	4778.9
262.5	4740.9
268.429	4659.9
274.351	4615.9
280.267	4550.9
286.176	4548.9
292.079	4524.9
297.975	4523.9
303.865	4509.9
309.748	4506.9
315.625	4449.9
321.495	4480.9
327.359	4478.9
333.217	4465.9
339.068	4455.9
344.912	4480.9
350.751	4478.9
356.583	4496.9
362.408	4505.9
368.227	4501.9
374.04	4499.9
379.847	4550.9
385.647	4576.9
391.44	4573.9
397.228	4565.9
403.009	4621.9
408.784	4627.9
414.553	4650.9
420.315	4676.9
426.071	4640.9
431.821	4654.9
437.565	4655.9
443.302	4652.9
449.033	4627.9
454.758	4612.9
460.477	4591.9
466.189	4559.9
471.896	4535.9
477.596	4531.9
483.29	4496.9
488.978	4479.9
494.66	4453.9
500.335	4405.9
506.005	4309.9
511.668	4175.9
517.325	4069.9
522.977	3933.9
528.622	3873.9
534.261	3811.9
539.894	3765.9
545.521	3753.9
551.141	3714.9
556.756	3705.9
562.365	3661.9
567.968	3644.9
573.565	3623.9
579.155	3602.9
584.74	3587.9
590.319	3579.9
595.892	3587.9
601.459	3589.9
607.02	3579.9
612.575	3518.9
618.124	3493.9
623.667	3481.9
629.204	3441.9
634.735	3413.9
640.261	3384.9
645.781	3376.9
651.294	3358.9
656.802	3362.9
662.304	3346.9
667.8	3322.9
673.29	3335.9
678.775	3326.9
684.254	3324.9
689.726	3301.9
695.193	3296.9
700.655	3252.9
706.11	3239.9
711.56	3220.9
717.004	3199.9
722.442	3202.9
727.874	3203.9
733.301	3182.9
738.722	3150.9
744.137	3147.9
749.547	3136.9
754.951	3151.9
760.349	3158.9
765.741	3156.9
771.128	3156.9
776.509	3197.9
781.885	3181.9
787.254	3193.9
792.618	3203.9
797.977	3177.9
803.33	3151.9
808.677	3116.9
814.019	3126.9
819.355	3097.9
824.686	3074.9
830.011	3072.9
835.33	3056.9
840.644	3044.9
845.952	3042.9
851.255	3048.9
856.552	3022.9
861.844	3032.9
867.13	3007.9
872.41	2986.9
877.686	2950.9
882.955	2924.9
888.219	2913.9
893.478	2893.9
898.731	2848.9
903.979	2801.9
909.221	2771.9
914.458	2752.9
919.69	2742.9
924.916	2784.9
930.136	2752.9
935.351	2763.9
940.561	2794.9
945.766	2746.9
950.965	2767.9
956.158	2737.9
961.347	2724.9
966.529	2658.9
971.707	2640.9
976.879	2597.9
982.046	2566.9
987.208	2563.9
992.364	2565.9
997.515	2576.9
1002.66	2609.9
1007.801	2629.9
1012.936	2628.9
1018.066	2635.9
1023.19	2645.9
1028.309	2646.9
1033.423	2677.9
1038.532	2626.9
1043.636	2624.9
1048.734	2589.9
1053.827	2556.9
1058.915	2538.9
1063.998	2527.9
1069.075	2502.9
1074.147	2505.9
1079.214	2525.9
1084.276	2514.9
1089.333	2539.9
1094.385	2531.9
1099.431	2520.9
1104.472	2541.9
1109.509	2532.9
1114.54	2472.9
1119.565	2451.9
1124.586	2436.9
1129.602	2386.9
1134.613	2382.9
1139.618	2373.9
1144.619	2363.9
1149.614	2354.9
1154.604	2359.9
1159.589	2373.9
1164.57	2364.9
1169.545	2375.9
1174.515	2362.9
1179.48	2380.9
1184.44	2336.9
1189.395	2318.9
1194.345	2304.9
1199.29	2285.9
1204.23	2305.9
1209.165	2292.9
1214.095	2302.9
1219.021	2329.9
1223.941	2325.9
1228.856	2364.9
1233.766	2322.9
1238.672	2372.9
1243.572	2361.9
1248.467	2349.9
1253.358	2311.9
1258.244	2276.9
1263.124	2250.9
1268	2188.9
1272.871	2168.9
1277.737	2174.9
1282.599	2135.9
1287.455	2156.9
1292.306	2159.9
1297.153	2145.9
1301.995	2161.9
1306.832	2172.9
1311.664	2215.9
1316.491	2205.9
1321.314	2176.9
1326.132	2192.9
1330.945	2170.9
1335.753	2113.9
1340.556	2116.9
1345.354	2065.9
1350.148	2045.9
1354.937	2013.9
1359.722	1973.9
1364.501	1938.9
1369.276	1895.9
1374.046	1877.9
1378.811	1850.9
1383.572	1838.9
1388.327	1835.9
1393.079	1848.9
1397.825	1822.9
1402.567	1826.9
1407.304	1833.9
1412.036	1832.9
1416.764	1854.9
1421.487	1845.9
1426.205	1873.9
1430.919	1855.9
1435.628	1873.9
1440.333	1889.9
1445.032	1903.9
1449.727	1913.9
1454.418	1927.9
1459.104	1914.9
1463.785	1896.9
1468.462	1867.9
1473.134	1812.9
1477.802	1792.9
1482.465	1758.9
1487.123	1719.9
1491.777	1697.9
1496.426	1685.9
1501.071	1662.9
1505.711	1674.9
1510.347	1666.9
1514.978	1661.9
1519.604	1659.9
1524.226	1659.9
1528.844	1641.9
1533.457	1625.9
1538.065	1620.9
1542.669	1611.9
1547.269	1617.9
1551.864	1613.9
1556.454	1627.9
1561.041	1638.9
1565.622	1652.9
1570.199	1656.9
1574.772	1692.9
1579.34	1704.9
1583.904	1692.9
1588.464	1726.9
1593.019	1715.9
1597.569	1736.9
1602.115	1722.9
1606.657	1724.9
1611.195	1721.9
1615.728	1712.9
1620.256	1698.9
1624.78	1708.9
1629.3	1706.9
1633.816	1724.9
1638.327	1720.9
1642.834	1726.9
1647.336	1731.9
1651.834	1748.9
1656.328	1759.9
1660.817	1745.9
1665.302	1737.9
1669.783	1699.9
1674.259	1663.9
1678.732	1649.9
1683.199	1584.9
1687.663	1540.9
1692.122	1490.9
1696.577	1424.9
1701.028	1366.9
1705.474	1319.9
1709.917	1277.9
1714.355	1255.9
1718.788	1252.9
1723.218	1244.9
1727.643	1248.9
1732.064	1240.9
1736.481	1216.9
1740.893	1195.9
1745.301	1174.9
1749.705	1155.9
1754.105	1144.9
1758.501	1121.9
1762.893	1093.9
1767.28	1074.9
1771.663	1077.9
1776.042	1070.9
1780.417	1061.9
1784.787	1049.9
1789.154	1030.9
1793.516	1032.9
1797.874	1023.9
1802.228	1002.9
1806.578	1003.9
1810.924	975.9
1815.266	959.9
1819.603	962.9
1823.937	955.9
1828.266	962.9
1832.591	955.9
1836.913	944.9
1841.23	962.9
1845.543	957.9
1849.852	966.9
1854.156	962.9
1858.457	965.9
1862.754	967.9
1867.047	964.9
1871.335	959.9
1875.62	955.9
1879.9	956.9
1884.177	960.9
1888.449	940.9
1892.718	929.9
1896.982	923.9
1901.243	911.9
1905.499	891.9
1909.752	896.9
1914	882.9
1918.245	872.9
1922.485	864.9
1926.722	856.9
1930.954	857.9
1935.183	848.9
1939.408	836.9
1943.628	838.9
1947.845	836.9
1952.058	835.9
1956.267	819.9
1960.472	807.9
1964.673	805.9
1968.87	784.9
1973.063	801.9
1977.252	774.9
1981.438	786.9
1985.619	774.9
1989.797	768.9
1993.971	792.9
1998.14	785.9
2002.306	775.9
2006.469	778.9
2010.627	767.9
2014.781	788.9
2018.932	790.9
2023.078	774.9
2027.221	776.9
2031.36	763.9
2035.495	767.9
2039.627	760.9
2043.754	744.9
2047.878	734.9
2051.998	737.9
2056.114	717.9
2060.226	728.9
2064.334	723.9
2068.439	725.9
2072.54	710.9
2076.637	715.9
2080.73	712.9
2084.82	712.9
2088.906	705.9
2092.988	695.9
2097.066	691.9
2101.14	684.9
2105.211	661.9
2109.278	673.9
2113.342	639.9
2117.401	652.9
2121.457	624.9
2125.509	639.9
2129.558	646.9
2133.602	639.9
2137.643	645.9
2141.681	634.9
2145.714	622.9
2149.744	634.9
2153.77	641.9
2157.793	631.9
2161.812	624.9
2165.827	624.9
2169.838	613.9
2173.846	609.9
2177.851	595.9
2181.851	579.9
2185.848	587.9
2189.841	566.9
2193.831	573.9
2197.817	570.9
2201.799	566.9
2205.778	551.9
2209.753	570.9
2213.725	568.9
2217.693	559.9
2221.657	563.9
2225.618	565.9
2229.575	546.9
2233.529	546.9
2237.479	535.9
2241.425	529.9
2245.368	524.9
2249.307	518.9
2253.243	504.9
2257.175	510.9
2261.104	503.9
2265.029	496.9
2268.95	487.9
2272.868	487.9
2276.783	471.9
2280.694	464.9
2284.601	464.9
2288.505	458.9
2292.405	446.9
2296.302	448.9
2300.195	451.9
2304.085	437.9
2307.971	416.9
2311.854	434.9
2315.734	417.9
2319.609	410.9
2323.482	414.9
2327.351	407.9
2331.216	418.9
2335.078	432.9
2338.937	411.9
2342.792	392.9
2346.643	397.9
2350.492	390.9
2354.336	399.9
2358.178	398.9
2362.015	396.9
2365.85	405.9
2369.681	393.9
2373.508	388.9
2377.333	400.9
2381.153	392.9
2384.971	399.9
2388.785	406.9
2392.595	390.9
2396.402	383.9
2400.206	390.9
2404.007	383.9
2407.804	375.9
2411.597	378.9
2415.388	381.9
2419.174	375.9
2422.958	371.9
2426.738	371.9
2430.515	363.9
2434.289	368.9
2438.059	359.9
2441.825	350.9
2445.589	364.9
2449.349	352.9
2453.106	348.9
2456.859	352.9
2460.61	345.9
2464.356	336.9
2468.1	326.9
2471.84	325.9
2475.577	324.9
2479.311	309.9
2483.041	319.9
2486.768	328.9
2490.492	321.9
2494.213	328.9
2497.93	305.9
2501.644	314.9
2505.355	310.9
2509.062	302.9
2512.766	302.9
2516.467	301.9
2520.165	292.9
2523.859	287.9
2527.551	291.9
2531.239	279.9
2534.923	277.9
2538.605	275.9
2542.283	268.9
2545.958	271.9
2549.63	265.9
2553.299	265.9
2556.964	267.9
2560.626	257.9
2564.285	254.9
2567.941	254.9
2571.594	254.9
2575.243	246.9
2578.89	251.9
2582.533	237.9
2586.173	240.9
2589.809	234.9
2593.443	236.9
2597.073	231.9
2600.701	218.9
2604.325	223.9
2607.946	226.9
2611.564	228.9
2615.178	229.9
2618.79	227.9
2622.398	231.9
2626.004	213.9
2629.606	207.9
2633.205	201.9
2636.801	208.9
2640.394	208.9
2643.983	212.9
2647.57	219.9
2651.153	205.9
2654.734	193.9
2658.311	199.9
2661.885	186.9
2665.456	192.9
2669.025	196.9
2672.589	199.9
2676.151	199.9
2679.71	193.9
2683.266	178.9
2686.819	184.9
2690.368	172.9
2693.915	171.9
2697.458	169.9
2700.999	179.9
2704.536	167.9
2708.071	166.9
2711.602	155.9
2715.13	156.9
2718.656	145.9
2722.178	160.9
2725.697	156.9
2729.214	139.9
2732.727	151.9
2736.237	155.9
2739.744	139.9
2743.249	141.9
2746.75	144.9
2750.248	133.9
2753.743	146.9
2757.236	133.9
2760.725	134.9
2764.211	134.9
2767.695	124.9
2771.175	111.9
2774.652	109.9
2778.127	120.9
2781.598	115.9
2785.067	119.9
2788.532	122.9
2791.995	128.9
2795.455	117.9
2798.911	117.9
2802.365	123.9
2805.816	121.9
2809.264	127.9
2812.709	130.9
2816.151	132.9
2819.59	132.9
2823.026	123.9
2826.46	117.9
2829.89	121.9
2833.318	110.9
2836.742	126.9
2840.164	130.9
2843.583	134.9
2846.999	132.9
2850.412	126.9
2853.822	127.9
2857.229	129.9
2860.634	130.9
2864.035	136.9
2867.434	138.9
2870.83	143.9
2874.223	150.9
2877.613	157.9
2881	159.9
2884.385	154.9
2887.766	156.9
2891.145	150.9
2894.521	155.9
2897.894	165.9
2901.264	161.9
2904.631	161.9
2907.996	172.9
2911.358	164.9
2914.717	170.9
2918.073	171.9
2921.426	174.9
2924.777	189.9
2928.124	191.9
2931.469	182.9
2934.811	190.9
2938.15	184.9
2941.487	202.9
2944.821	207.9
2948.152	200.9
2951.48	210.9
2954.805	216.9
2958.128	204.9
2961.447	190.9
2964.765	202.9
2968.079	195.9
2971.39	193.9
2974.699	212.9
2978.005	199.9
2981.308	197.9
2984.609	196.9
2987.907	195.9
2991.202	206.9
2994.494	198.9
2997.784	204.9
3001.07	215.9
3004.355	225.9
3007.636	223.9
3010.915	215.9
3014.191	217.9
3017.464	228.9
3020.734	231.9
3024.002	222.9
3027.267	234.9
3030.53	242.9
3033.789	249.9
3037.046	247.9
3040.301	247.9
3043.552	263.9
3046.801	276.9
3050.048	284.9
3053.291	287.9
3056.532	300.9
3059.771	308.9
3063.006	329.9
3066.239	330.9
3069.469	336.9
3072.697	340.9
3075.922	358.9
3079.144	363.9
3082.364	380.9
3085.581	397.9
3088.795	383.9
3092.007	387.9
3095.216	403.9
3098.423	422.9
3101.627	431.9
3104.828	443.9
3108.026	454.9
3111.222	458.9
3114.416	470.9
3117.607	476.9
3120.795	489.9
3123.98	484.9
3127.163	500.9
3130.344	525.9
3133.521	533.9
3136.696	549.9
3139.869	546.9
3143.039	553.9
3146.206	564.9
3149.371	574.9
3152.533	585.9
3155.693	586.9
3158.85	596.9
3162.005	593.9
3165.157	598.9
3168.306	604.9
3171.453	608.9
3174.597	603.9
3177.739	618.9
3180.878	612.9
3184.014	621.9
3187.149	616.9
3190.28	621.9
3193.409	603.9
3196.536	634.9
3199.659	620.9
3202.781	621.9
3205.9	631.9
3209.016	634.9
3212.13	624.9
3215.241	618.9
3218.35	614.9
3221.456	602.9
3224.56	610.9
3227.661	608.9
3230.76	586.9
3233.856	580.9
3236.95	577.9
3240.041	559.9
3243.13	550.9
3246.216	550.9
3249.3	533.9
3252.382	544.9
3255.46	542.9
3258.537	522.9
3261.611	524.9
3264.682	514.9
3267.751	509.9
3270.818	507.9
3273.882	502.9
3276.943	496.9
3280.002	504.9
3283.059	500.9
3286.113	490.9
3289.165	488.9
3292.214	480.9
3295.261	478.9
3298.306	462.9
3301.348	461.9
3304.387	455.9
3307.425	450.9
3310.459	451.9
3313.492	438.9
3316.521	445.9
3319.549	439.9
3322.574	437.9
3325.597	429.9
3328.617	443.9
3331.635	426.9
3334.65	427.9
3337.663	417.9
3340.674	417.9
3343.682	430.9
3346.688	416.9
3349.691	420.9
3352.692	418.9
3355.691	414.9
3358.687	405.9
3361.681	408.9
3364.673	405.9
3367.662	399.9
3370.649	380.9
3373.633	388.9
3376.615	364.9
3379.595	366.9
3382.572	360.9
3385.547	353.9
3388.52	367.9
3391.49	351.9
3394.458	341.9
3397.424	338.9
3400.387	328.9
3403.348	324.9
3406.307	317.9
3409.263	322.9
3412.217	320.9
3415.168	318.9
3418.118	317.9
3421.065	304.9
3424.009	285.9
3426.951	299.9
3429.891	278.9
3432.829	273.9
3435.764	275.9
3438.697	266.9
3441.628	253.9
3444.557	244.9
3447.483	234.9
3450.407	221.9
3453.328	219.9
3456.247	212.9
3459.164	201.9
3462.079	195.9
3464.991	181.9
3467.902	178.9
3470.809	178.9
3473.715	165.9
3476.618	153.9
3479.519	143.9
3482.418	140.9
3485.315	132.9
3488.209	124.9
3491.101	118.9
3493.99	127.9
3496.878	112.9
3499.763	104.9
3502.646	101.9
3505.527	87.9
3508.405	89.9
3511.281	73.9
3514.155	76.9
3517.027	75.9
3519.897	56.9
3522.764	61.9
3525.629	48.9
3528.492	40.9
3531.352	38.9
3534.211	28.9
3537.067	24.9
3539.921	26.9
3542.773	15.9
3545.622	9.9
3548.469	0.9
3551.315	-0.1
3554.157	2.9
3556.998	-8.1
3559.837	-2.1
3562.673	-17.1
3565.507	-13.1
3568.339	-23.1
3571.169	-34.1
3573.996	-35.1
3576.822	-24.1
3579.645	-26.1
3582.466	-34.1
3585.285	-37.1
3588.101	-31.1
3590.916	-47.1
3593.728	-57.1
3596.538	-52.1
3599.346	-60.1
3602.152	-53.1
3604.956	-55.1
3607.757	-56.1
3610.556	-61.1
3613.354	-59.1
3616.149	-74.1
3618.942	-73.1
3621.732	-70.1
3624.521	-68.1
3627.307	-67.1
3630.092	-71.1
3632.874	-69.1
3635.654	-82.1
3638.432	-79.1
3641.208	-80.1
3643.982	-88.1
3646.753	-88.1
3649.523	-80.1
3652.29	-81.1
3655.055	-87.1
3657.818	-90.1
3660.579	-91.1
3663.338	-93.1
3666.095	-99.1
3668.849	-94.1
3671.602	-96.1
3674.352	-97.1
3677.101	-103.1
3679.847	-102.1
3682.591	-102.1
3685.333	-100.1
3688.073	-101.1
3690.811	-106.1
3693.547	-111.1
3696.281	-105.1
3699.013	-108.1
3701.742	-108.1
3704.47	-107.1
3707.195	-105.1
3709.919	-115.1
3712.64	-113.1
3715.359	-112.1
3718.076	-107.1
3720.792	-112.1
3723.505	-116.1
3726.216	-109.1
3728.925	-114.1
3731.632	-113.1
3734.336	-120.1
3737.039	-117.1
3739.74	-114.1
3742.439	-123.1
3745.136	-108.1
3747.83	-120.1
3750.523	-119.1
3753.213	-115.1
3755.902	-116.1
3758.589	-118.1
3761.273	-112.1
3763.956	-111.1
3766.636	-121.1
3769.315	-111.1
3771.991	-116.1
3774.665	-123.1
3777.338	-116.1
3780.008	-124.1
3782.677	-120.1
3785.343	-114.1
3788.007	-115.1
3790.67	-125.1
3793.33	-117.1
3795.989	-120.1
3798.645	-117.1
3801.299	-125.1
3803.952	-119.1
3806.602	-116.1
3809.251	-121.1
3811.897	-128.1
3814.542	-122.1
3817.184	-117.1
3819.825	-124.1
3822.463	-119.1
3825.1	-122.1
3827.735	-123.1
3830.367	-124.1
3832.998	-126.1
3835.627	-125.1
3838.253	-119.1
3840.878	-125.1
3843.501	-119.1
3846.122	-125.1
3848.741	-127.1
3851.358	-121.1
3853.973	-122.1
3856.586	-117.1
3859.197	-130.1
3861.806	-122.1
3864.414	-125.1
3867.019	-117.1
3869.622	-127.1
3872.224	-111.1
3874.823	-103.1
3877.421	-94.1
3880.016	-75.1
3882.61	-62.1
3885.202	-60.1
3887.792	-74.1
3890.38	-92.1
3892.966	-113.1
3895.55	-120.1
3898.132	-119.1
3900.713	-121.1
3903.291	-127.1
3905.868	-128.1
3908.442	-119.1
3911.015	-130.1
3913.586	-122.1
3916.155	-127.1
3918.722	-130.1
3921.287	-126.1
3923.85	-127.1
3926.411	-130.1
3928.971	-124.1
3931.528	-128.1
3934.084	-126.1
3936.638	-123.1
3939.19	-133.1
3941.74	-127.1
3944.288	-129.1
3946.834	-126.1
3949.378	-128.1
3951.921	-121.1
3954.462	-130.1
3957	-128.1
3959.537	-125.1
3962.072	-129.1
3964.606	-120.1
3967.137	-125.1
3969.667	-124.1
3972.194	-128.1
3974.72	-122.1
3977.244	-124.1
3979.766	-129.1
3982.286	-119.1
3984.805	-127.1
3987.321	-128.1
3989.836	-116.1
3992.349	-128.1
3994.86	-123.1
3997.369	-127.1
3999.877	-124.1
4002.382	-119.1
4004.886	-123.1
4007.388	-127.1
4009.888	-124.1
4012.386	-125.1
4014.883	-124.1
4017.377	-127.1
4019.87	-123.1
4022.361	-122.1
4024.85	-124.1
4027.338	-127.1
4029.823	-119.1
4032.307	-123.1
4034.789	-125.1
4037.269	-121.1
4039.747	-123.1
4042.224	-123.1
4044.699	-125.1
4047.172	-128.1
4049.643	-122.1
4052.112	-122.1
4054.58	-124.1
4057.046	-119.1
4059.51	-125.1
4061.972	-120.1
4064.432	-127.1
4066.891	-125.1
4069.348	-119.1
4071.803	-126.1
4074.256	-123.1
4076.708	-119.1
4079.158	-126.1
4081.606	-122.1
4084.052	-130.1
4086.497	-123.1
4088.939	-121.1
4091.38	-123.1
4093.819	-121.1
4096.257	-127.1
4098.693	-128.1
4101.127	-128.1
4103.559	-128.1
4105.989	0.9
4108.418	-11.1
4110.845	-2.1
4113.27	4.9
4115.694	-12.1
4118.115	-11.1
4120.535	-126.1
4122.954	-128.1
4125.37	-124.1
4127.785	-124.1
4130.198	-127.1
4132.609	-120.1
4135.019	-128.1
4137.427	-131.1
4139.833	-128.1
4142.237	-134.1
