Data from 2018-2-8_conc=3_n=6_RamanShift_01.txt Node
Date: Mon Mar 12 14:44:28 IST 2018
User: aro
Spectrometer: QEPB0276
Trigger mode: 0
Integration Time (sec): 3.000000E1
Scans to average: 1
Electric dark correction enabled: true
Nonlinearity correction enabled: false
Boxcar width: 0
XAxis mode: Raman Shifts
Number of Pixels in Spectrum: 1044
>>>>>Begin Spectral Data<<<<<
160.701	22.5
166.742	34.5
172.777	110.5
178.805	319.5
184.826	836.5
190.841	1781.5
196.849	2941.5
202.85	3811.5
208.845	4167.5
214.833	4169.5
220.815	4102.5
226.789	4105.5
232.758	4129.5
238.719	4100.5
244.674	4099.5
250.623	4073.5
256.565	4034.5
262.5	3958.5
268.429	3905.5
274.351	3892.5
280.267	3867.5
286.176	3852.5
292.079	3821.5
297.975	3811.5
303.865	3806.5
309.748	3815.5
315.625	3813.5
321.495	3811.5
327.359	3804.5
333.217	3801.5
339.068	3794.5
344.912	3840.5
350.751	3831.5
356.583	3847.5
362.408	3837.5
368.227	3884.5
374.04	3846.5
379.847	3886.5
385.647	3914.5
391.44	3908.5
397.228	3914.5
403.009	3960.5
408.784	3983.5
414.553	3976.5
420.315	4010.5
426.071	4008.5
431.821	4017.5
437.565	4012.5
443.302	4003.5
449.033	3982.5
454.758	3960.5
460.477	3944.5
466.189	3926.5
471.896	3867.5
477.596	3859.5
483.29	3829.5
488.978	3862.5
494.66	3810.5
500.335	3745.5
506.005	3636.5
511.668	3507.5
517.325	3378.5
522.977	3287.5
528.622	3178.5
534.261	3113.5
539.894	3087.5
545.521	3056.5
551.141	3038.5
556.756	3011.5
562.365	2983.5
567.968	2957.5
573.565	2935.5
579.155	2899.5
584.74	2896.5
590.319	2900.5
595.892	2895.5
601.459	2877.5
607.02	2909.5
612.575	2849.5
618.124	2832.5
623.667	2769.5
629.204	2764.5
634.735	2739.5
640.261	2707.5
645.781	2703.5
651.294	2730.5
656.802	2706.5
662.304	2669.5
667.8	2675.5
673.29	2658.5
678.775	2661.5
684.254	2627.5
689.726	2630.5
695.193	2642.5
700.655	2619.5
706.11	2588.5
711.56	2587.5
717.004	2562.5
722.442	2549.5
727.874	2546.5
733.301	2524.5
738.722	2520.5
744.137	2523.5
749.547	2522.5
754.951	2506.5
760.349	2519.5
765.741	2533.5
771.128	2517.5
776.509	2551.5
781.885	2559.5
787.254	2586.5
792.618	2588.5
797.977	2573.5
803.33	2560.5
808.677	2568.5
814.019	2528.5
819.355	2501.5
824.686	2466.5
830.011	2468.5
835.33	2456.5
840.644	2453.5
845.952	2449.5
851.255	2447.5
856.552	2433.5
861.844	2396.5
867.13	2388.5
872.41	2359.5
877.686	2360.5
882.955	2340.5
888.219	2322.5
893.478	2290.5
898.731	2254.5
903.979	2239.5
909.221	2230.5
914.458	2219.5
919.69	2211.5
924.916	2202.5
930.136	2229.5
935.351	2219.5
940.561	2206.5
945.766	2207.5
950.965	2208.5
956.158	2174.5
961.347	2147.5
966.529	2125.5
971.707	2098.5
976.879	2082.5
982.046	2045.5
987.208	2049.5
992.364	2045.5
997.515	2064.5
1002.66	2061.5
1007.801	2092.5
1012.936	2120.5
1018.066	2089.5
1023.19	2095.5
1028.309	2123.5
1033.423	2126.5
1038.532	2085.5
1043.636	2081.5
1048.734	2070.5
1053.827	2054.5
1058.915	2015.5
1063.998	2023.5
1069.075	1987.5
1074.147	1991.5
1079.214	1996.5
1084.276	2011.5
1089.333	2009.5
1094.385	2031.5
1099.431	2037.5
1104.472	2017.5
1109.509	2012.5
1114.54	1982.5
1119.565	1946.5
1124.586	1920.5
1129.602	1898.5
1134.613	1898.5
1139.618	1862.5
1144.619	1877.5
1149.614	1883.5
1154.604	1893.5
1159.589	1899.5
1164.57	1892.5
1169.545	1893.5
1174.515	1907.5
1179.48	1902.5
1184.44	1873.5
1189.395	1859.5
1194.345	1846.5
1199.29	1843.5
1204.23	1839.5
1209.165	1832.5
1214.095	1839.5
1219.021	1849.5
1223.941	1870.5
1228.856	1877.5
1233.766	1894.5
1238.672	1895.5
1243.572	1854.5
1248.467	1854.5
1253.358	1843.5
1258.244	1820.5
1263.124	1784.5
1268	1733.5
1272.871	1732.5
1277.737	1710.5
1282.599	1699.5
1287.455	1707.5
1292.306	1699.5
1297.153	1718.5
1301.995	1728.5
1306.832	1728.5
1311.664	1747.5
1316.491	1746.5
1321.314	1741.5
1326.132	1721.5
1330.945	1730.5
1335.753	1676.5
1340.556	1663.5
1345.354	1626.5
1350.148	1613.5
1354.937	1580.5
1359.722	1573.5
1364.501	1553.5
1369.276	1529.5
1374.046	1489.5
1378.811	1479.5
1383.572	1479.5
1388.327	1467.5
1393.079	1488.5
1397.825	1471.5
1402.567	1474.5
1407.304	1477.5
1412.036	1468.5
1416.764	1469.5
1421.487	1470.5
1426.205	1465.5
1430.919	1461.5
1435.628	1494.5
1440.333	1499.5
1445.032	1514.5
1449.727	1530.5
1454.418	1530.5
1459.104	1531.5
1463.785	1494.5
1468.462	1490.5
1473.134	1458.5
1477.802	1425.5
1482.465	1388.5
1487.123	1368.5
1491.777	1344.5
1496.426	1345.5
1501.071	1343.5
1505.711	1340.5
1510.347	1329.5
1514.978	1317.5
1519.604	1320.5
1524.226	1328.5
1528.844	1299.5
1533.457	1292.5
1538.065	1306.5
1542.669	1290.5
1547.269	1290.5
1551.864	1300.5
1556.454	1305.5
1561.041	1312.5
1565.622	1333.5
1570.199	1324.5
1574.772	1327.5
1579.34	1358.5
1583.904	1351.5
1588.464	1392.5
1593.019	1399.5
1597.569	1390.5
1602.115	1376.5
1606.657	1369.5
1611.195	1384.5
1615.728	1380.5
1620.256	1359.5
1624.78	1370.5
1629.3	1361.5
1633.816	1380.5
1638.327	1381.5
1642.834	1383.5
1647.336	1387.5
1651.834	1408.5
1656.328	1398.5
1660.817	1401.5
1665.302	1392.5
1669.783	1350.5
1674.259	1328.5
1678.732	1289.5
1683.199	1265.5
1687.663	1230.5
1692.122	1199.5
1696.577	1145.5
1701.028	1103.5
1705.474	1066.5
1709.917	1033.5
1714.355	1004.5
1718.788	996.5
1723.218	1007.5
1727.643	994.5
1732.064	1000.5
1736.481	984.5
1740.893	965.5
1745.301	942.5
1749.705	930.5
1754.105	901.5
1758.501	894.5
1762.893	882.5
1767.28	871.5
1771.663	863.5
1776.042	853.5
1780.417	841.5
1784.787	829.5
1789.154	835.5
1793.516	823.5
1797.874	814.5
1802.228	805.5
1806.578	793.5
1810.924	800.5
1815.266	783.5
1819.603	781.5
1823.937	765.5
1828.266	774.5
1832.591	765.5
1836.913	754.5
1841.23	769.5
1845.543	770.5
1849.852	788.5
1854.156	770.5
1858.457	777.5
1862.754	777.5
1867.047	770.5
1871.335	774.5
1875.62	780.5
1879.9	760.5
1884.177	779.5
1888.449	765.5
1892.718	755.5
1896.982	736.5
1901.243	731.5
1905.499	719.5
1909.752	707.5
1914	708.5
1918.245	706.5
1922.485	696.5
1926.722	689.5
1930.954	684.5
1935.183	679.5
1939.408	680.5
1943.628	679.5
1947.845	667.5
1952.058	675.5
1956.267	651.5
1960.472	661.5
1964.673	645.5
1968.87	632.5
1973.063	635.5
1977.252	621.5
1981.438	632.5
1985.619	632.5
1989.797	620.5
1993.971	626.5
1998.14	638.5
2002.306	628.5
2006.469	636.5
2010.627	620.5
2014.781	631.5
2018.932	622.5
2023.078	633.5
2027.221	608.5
2031.36	624.5
2035.495	600.5
2039.627	598.5
2043.754	586.5
2047.878	597.5
2051.998	585.5
2056.114	580.5
2060.226	580.5
2064.334	577.5
2068.439	572.5
2072.54	576.5
2076.637	584.5
2080.73	567.5
2084.82	561.5
2088.906	575.5
2092.988	567.5
2097.066	549.5
2101.14	553.5
2105.211	546.5
2109.278	538.5
2113.342	534.5
2117.401	523.5
2121.457	522.5
2125.509	515.5
2129.558	512.5
2133.602	509.5
2137.643	515.5
2141.681	512.5
2145.714	521.5
2149.744	506.5
2153.77	500.5
2157.793	513.5
2161.812	501.5
2165.827	494.5
2169.838	481.5
2173.846	486.5
2177.851	480.5
2181.851	456.5
2185.848	461.5
2189.841	462.5
2193.831	464.5
2197.817	447.5
2201.799	440.5
2205.778	444.5
2209.753	444.5
2213.725	432.5
2217.693	435.5
2221.657	444.5
2225.618	433.5
2229.575	448.5
2233.529	433.5
2237.479	422.5
2241.425	423.5
2245.368	410.5
2249.307	403.5
2253.243	399.5
2257.175	400.5
2261.104	393.5
2265.029	386.5
2268.95	391.5
2272.868	371.5
2276.783	370.5
2280.694	377.5
2284.601	369.5
2288.505	361.5
2292.405	351.5
2296.302	352.5
2300.195	347.5
2304.085	349.5
2307.971	320.5
2311.854	335.5
2315.734	316.5
2319.609	323.5
2323.482	316.5
2327.351	320.5
2331.216	335.5
2335.078	340.5
2338.937	329.5
2342.792	304.5
2346.643	304.5
2350.492	300.5
2354.336	306.5
2358.178	305.5
2362.015	311.5
2365.85	310.5
2369.681	314.5
2373.508	314.5
2377.333	303.5
2381.153	303.5
2384.971	304.5
2388.785	314.5
2392.595	296.5
2396.402	293.5
2400.206	299.5
2404.007	298.5
2407.804	282.5
2411.597	280.5
2415.388	286.5
2419.174	284.5
2422.958	284.5
2426.738	280.5
2430.515	274.5
2434.289	276.5
2438.059	275.5
2441.825	267.5
2445.589	273.5
2449.349	259.5
2453.106	260.5
2456.859	265.5
2460.61	264.5
2464.356	255.5
2468.1	255.5
2471.84	251.5
2475.577	250.5
2479.311	231.5
2483.041	237.5
2486.768	241.5
2490.492	245.5
2494.213	235.5
2497.93	237.5
2501.644	235.5
2505.355	234.5
2509.062	221.5
2512.766	228.5
2516.467	224.5
2520.165	215.5
2523.859	215.5
2527.551	215.5
2531.239	212.5
2534.923	211.5
2538.605	211.5
2542.283	200.5
2545.958	203.5
2549.63	199.5
2553.299	195.5
2556.964	201.5
2560.626	194.5
2564.285	192.5
2567.941	187.5
2571.594	189.5
2575.243	185.5
2578.89	182.5
2582.533	170.5
2586.173	174.5
2589.809	166.5
2593.443	175.5
2597.073	181.5
2600.701	169.5
2604.325	161.5
2607.946	161.5
2611.564	160.5
2615.178	175.5
2618.79	168.5
2622.398	163.5
2626.004	151.5
2629.606	158.5
2633.205	156.5
2636.801	153.5
2640.394	149.5
2643.983	154.5
2647.57	155.5
2651.153	149.5
2654.734	140.5
2658.311	137.5
2661.885	137.5
2665.456	146.5
2669.025	139.5
2672.589	141.5
2676.151	144.5
2679.71	133.5
2683.266	135.5
2686.819	134.5
2690.368	139.5
2693.915	120.5
2697.458	116.5
2700.999	122.5
2704.536	120.5
2708.071	111.5
2711.602	114.5
2715.13	116.5
2718.656	110.5
2722.178	104.5
2725.697	110.5
2729.214	104.5
2732.727	109.5
2736.237	104.5
2739.744	102.5
2743.249	100.5
2746.75	95.5
2750.248	95.5
2753.743	102.5
2757.236	94.5
2760.725	88.5
2764.211	88.5
2767.695	86.5
2771.175	77.5
2774.652	81.5
2778.127	83.5
2781.598	78.5
2785.067	94.5
2788.532	85.5
2791.995	85.5
2795.455	80.5
2798.911	81.5
2802.365	83.5
2805.816	92.5
2809.264	82.5
2812.709	91.5
2816.151	93.5
2819.59	86.5
2823.026	85.5
2826.46	80.5
2829.89	85.5
2833.318	84.5
2836.742	93.5
2840.164	94.5
2843.583	80.5
2846.999	85.5
2850.412	84.5
2853.822	91.5
2857.229	89.5
2860.634	89.5
2864.035	95.5
2867.434	96.5
2870.83	106.5
2874.223	109.5
2877.613	115.5
2881	115.5
2884.385	118.5
2887.766	105.5
2891.145	112.5
2894.521	119.5
2897.894	116.5
2901.264	118.5
2904.631	122.5
2907.996	114.5
2911.358	121.5
2914.717	120.5
2918.073	127.5
2921.426	130.5
2924.777	138.5
2928.124	142.5
2931.469	136.5
2934.811	140.5
2938.15	149.5
2941.487	154.5
2944.821	149.5
2948.152	153.5
2951.48	147.5
2954.805	159.5
2958.128	150.5
2961.447	139.5
2964.765	143.5
2968.079	145.5
2971.39	150.5
2974.699	149.5
2978.005	151.5
2981.308	157.5
2984.609	157.5
2987.907	148.5
2991.202	147.5
2994.494	154.5
2997.784	156.5
3001.07	173.5
3004.355	168.5
3007.636	170.5
3010.915	174.5
3014.191	169.5
3017.464	166.5
3020.734	174.5
3024.002	169.5
3027.267	185.5
3030.53	185.5
3033.789	191.5
3037.046	194.5
3040.301	186.5
3043.552	207.5
3046.801	208.5
3050.048	208.5
3053.291	216.5
3056.532	233.5
3059.771	245.5
3063.006	249.5
3066.239	255.5
3069.469	257.5
3072.697	269.5
3075.922	277.5
3079.144	291.5
3082.364	294.5
3085.581	311.5
3088.795	308.5
3092.007	309.5
3095.216	312.5
3098.423	336.5
3101.627	329.5
3104.828	345.5
3108.026	345.5
3111.222	366.5
3114.416	364.5
3117.607	365.5
3120.795	373.5
3123.98	385.5
3127.163	394.5
3130.344	408.5
3133.521	409.5
3136.696	428.5
3139.869	428.5
3143.039	437.5
3146.206	451.5
3149.371	457.5
3152.533	458.5
3155.693	460.5
3158.85	471.5
3162.005	480.5
3165.157	480.5
3168.306	472.5
3171.453	464.5
3174.597	483.5
3177.739	473.5
3180.878	488.5
3184.014	496.5
3187.149	488.5
3190.28	489.5
3193.409	489.5
3196.536	483.5
3199.659	495.5
3202.781	495.5
3205.9	496.5
3209.016	496.5
3212.13	509.5
3215.241	507.5
3218.35	490.5
3221.456	491.5
3224.56	480.5
3227.661	473.5
3230.76	482.5
3233.856	462.5
3236.95	452.5
3240.041	451.5
3243.13	430.5
3246.216	436.5
3249.3	426.5
3252.382	422.5
3255.46	427.5
3258.537	419.5
3261.611	423.5
3264.682	401.5
3267.751	416.5
3270.818	413.5
3273.882	391.5
3276.943	398.5
3280.002	401.5
3283.059	404.5
3286.113	391.5
3289.165	386.5
3292.214	388.5
3295.261	373.5
3298.306	371.5
3301.348	373.5
3304.387	372.5
3307.425	353.5
3310.459	356.5
3313.492	343.5
3316.521	347.5
3319.549	341.5
3322.574	338.5
3325.597	334.5
3328.617	338.5
3331.635	343.5
3334.65	328.5
3337.663	323.5
3340.674	336.5
3343.682	342.5
3346.688	330.5
3349.691	336.5
3352.692	329.5
3355.691	322.5
3358.687	317.5
3361.681	327.5
3364.673	316.5
3367.662	313.5
3370.649	302.5
3373.633	294.5
3376.615	289.5
3379.595	283.5
3382.572	289.5
3385.547	277.5
3388.52	279.5
3391.49	277.5
3394.458	270.5
3397.424	267.5
3400.387	255.5
3403.348	255.5
3406.307	247.5
3409.263	250.5
3412.217	249.5
3415.168	250.5
3418.118	234.5
3421.065	224.5
3424.009	230.5
3426.951	227.5
3429.891	220.5
3432.829	210.5
3435.764	208.5
3438.697	201.5
3441.628	191.5
3444.557	193.5
3447.483	183.5
3450.407	172.5
3453.328	168.5
3456.247	162.5
3459.164	146.5
3462.079	148.5
3464.991	139.5
3467.902	137.5
3470.809	133.5
3473.715	117.5
3476.618	113.5
3479.519	105.5
3482.418	102.5
3485.315	91.5
3488.209	88.5
3491.101	83.5
3493.99	88.5
3496.878	83.5
3499.763	69.5
3502.646	69.5
3505.527	69.5
3508.405	58.5
3511.281	52.5
3514.155	52.5
3517.027	50.5
3519.897	38.5
3522.764	32.5
3525.629	21.5
3528.492	20.5
3531.352	16.5
3534.211	9.5
3537.067	0.5
3539.921	2.5
3542.773	-4.5
3545.622	-7.5
3548.469	-10.5
3551.315	-6.5
3554.157	-17.5
3556.998	-25.5
3559.837	-26.5
3562.673	-28.5
3565.507	-25.5
3568.339	-31.5
3571.169	-39.5
3573.996	-37.5
3576.822	-36.5
3579.645	-36.5
3582.466	-39.5
3585.285	-45.5
3588.101	-37.5
3590.916	-48.5
3593.728	-57.5
3596.538	-59.5
3599.346	-59.5
3602.152	-59.5
3604.956	-59.5
3607.757	-51.5
3610.556	-66.5
3613.354	-58.5
3616.149	-74.5
3618.942	-78.5
3621.732	-71.5
3624.521	-73.5
3627.307	-77.5
3630.092	-73.5
3632.874	-75.5
3635.654	-76.5
3638.432	-70.5
3641.208	-78.5
3643.982	-85.5
3646.753	-91.5
3649.523	-85.5
3652.29	-86.5
3655.055	-85.5
3657.818	-86.5
3660.579	-86.5
3663.338	-88.5
3666.095	-92.5
3668.849	-99.5
3671.602	-94.5
3674.352	-96.5
3677.101	-93.5
3679.847	-96.5
3682.591	-99.5
3685.333	-95.5
3688.073	-100.5
3690.811	-98.5
3693.547	-110.5
3696.281	-99.5
3699.013	-96.5
3701.742	-107.5
3704.47	-107.5
3707.195	-102.5
3709.919	-107.5
3712.64	-110.5
3715.359	-109.5
3718.076	-109.5
3720.792	-107.5
3723.505	-107.5
3726.216	-109.5
3728.925	-112.5
3731.632	-108.5
3734.336	-111.5
3737.039	-109.5
3739.74	-114.5
3742.439	-113.5
3745.136	-107.5
3747.83	-111.5
3750.523	-117.5
3753.213	-118.5
3755.902	-112.5
3758.589	-116.5
3761.273	-103.5
3763.956	-109.5
3766.636	-110.5
3769.315	-107.5
3771.991	-111.5
3774.665	-119.5
3777.338	-109.5
3780.008	-116.5
3782.677	-113.5
3785.343	-112.5
3788.007	-114.5
3790.67	-114.5
3793.33	-108.5
3795.989	-113.5
3798.645	-110.5
3801.299	-115.5
3803.952	-118.5
3806.602	-108.5
3809.251	-120.5
3811.897	-117.5
3814.542	-119.5
3817.184	-111.5
3819.825	-116.5
3822.463	-117.5
3825.1	-119.5
3827.735	-114.5
3830.367	-116.5
3832.998	-116.5
3835.627	-117.5
3838.253	-112.5
3840.878	-117.5
3843.501	-109.5
3846.122	-114.5
3848.741	-117.5
3851.358	-115.5
3853.973	-122.5
3856.586	-115.5
3859.197	-122.5
3861.806	-113.5
3864.414	-116.5
3867.019	-111.5
3869.622	-116.5
3872.224	-101.5
3874.823	-95.5
3877.421	-80.5
3880.016	-59.5
3882.61	-39.5
3885.202	-31.5
3887.792	-52.5
3890.38	-82.5
3892.966	-103.5
3895.55	-107.5
3898.132	-110.5
3900.713	-115.5
3903.291	-118.5
3905.868	-114.5
3908.442	-108.5
3911.015	-32.5
3913.586	-98.5
3916.155	-117.5
3918.722	-116.5
3921.287	-115.5
3923.85	-115.5
3926.411	-121.5
3928.971	-117.5
3931.528	-120.5
3934.084	-115.5
3936.638	-113.5
3939.19	-122.5
3941.74	-119.5
3944.288	-118.5
3946.834	-114.5
3949.378	-119.5
3951.921	-116.5
3954.462	-131.5
3957	-119.5
3959.537	-116.5
3962.072	-119.5
3964.606	-109.5
3967.137	-114.5
3969.667	-118.5
3972.194	-122.5
3974.72	-119.5
3977.244	-124.5
3979.766	-117.5
3982.286	-115.5
3984.805	-120.5
3987.321	-114.5
3989.836	-108.5
3992.349	-118.5
3994.86	-118.5
3997.369	-119.5
3999.877	-115.5
4002.382	-109.5
4004.886	-115.5
4007.388	-118.5
4009.888	-113.5
4012.386	-116.5
4014.883	-120.5
4017.377	-121.5
4019.87	-117.5
4022.361	-117.5
4024.85	-116.5
4027.338	-116.5
4029.823	-114.5
4032.307	-112.5
4034.789	-117.5
4037.269	-120.5
4039.747	-117.5
4042.224	-117.5
4044.699	-114.5
4047.172	-115.5
4049.643	-113.5
4052.112	-115.5
4054.58	-116.5
4057.046	-112.5
4059.51	-117.5
4061.972	-118.5
4064.432	-119.5
4066.891	-121.5
4069.348	-114.5
4071.803	-117.5
4074.256	-114.5
4076.708	-117.5
4079.158	-121.5
4081.606	-110.5
4084.052	-120.5
4086.497	-116.5
4088.939	-106.5
4091.38	-114.5
4093.819	-115.5
4096.257	-124.5
4098.693	-122.5
4101.127	-120.5
4103.559	-120.5
4105.989	21.5
4108.418	9.5
4110.845	15.5
4113.27	8.5
4115.694	4.5
4118.115	-2.5
4120.535	-121.5
4122.954	-119.5
4125.37	-112.5
4127.785	-116.5
4130.198	-115.5
4132.609	-115.5
4135.019	-117.5
4137.427	-123.5
4139.833	-124.5
4142.237	-121.5
