Data from 2018-2-8_conc=0_n=9_RamanShift_05.txt Node
Date: Mon Mar 12 13:49:28 IST 2018
User: aro
Spectrometer: QEPB0276
Trigger mode: 0
Integration Time (sec): 3.000000E1
Scans to average: 1
Electric dark correction enabled: true
Nonlinearity correction enabled: false
Boxcar width: 0
XAxis mode: Raman Shifts
Number of Pixels in Spectrum: 1044
>>>>>Begin Spectral Data<<<<<
160.701	19.9
166.742	45.9
172.777	116.9
178.805	374.9
184.826	1004.9
190.841	2171.9
196.849	3623.9
202.85	4818.9
208.845	5285.9
214.833	5274.9
220.815	5210.9
226.789	5222.9
232.758	5212.9
238.719	5227.9
244.674	5160.9
250.623	5105.9
256.565	5030.9
262.5	4947.9
268.429	4923.9
274.351	4885.9
280.267	4864.9
286.176	4830.9
292.079	4755.9
297.975	4771.9
303.865	4752.9
309.748	4786.9
315.625	4748.9
321.495	4702.9
327.359	4731.9
333.217	4736.9
339.068	4708.9
344.912	4734.9
350.751	4761.9
356.583	4752.9
362.408	4729.9
368.227	4765.9
374.04	4778.9
379.847	4784.9
385.647	4832.9
391.44	4846.9
397.228	4892.9
403.009	4906.9
408.784	4914.9
414.553	4920.9
420.315	4919.9
426.071	4917.9
431.821	4899.9
437.565	4918.9
443.302	4899.9
449.033	4864.9
454.758	4898.9
460.477	4845.9
466.189	4849.9
471.896	4808.9
477.596	4746.9
483.29	4751.9
488.978	4763.9
494.66	4733.9
500.335	4653.9
506.005	4552.9
511.668	4410.9
517.325	4267.9
522.977	4173.9
528.622	4070.9
534.261	4052.9
539.894	3985.9
545.521	3941.9
551.141	3930.9
556.756	3884.9
562.365	3873.9
567.968	3879.9
573.565	3834.9
579.155	3815.9
584.74	3790.9
590.319	3787.9
595.892	3772.9
601.459	3756.9
607.02	3733.9
612.575	3718.9
618.124	3697.9
623.667	3636.9
629.204	3637.9
634.735	3585.9
640.261	3581.9
645.781	3563.9
651.294	3538.9
656.802	3538.9
662.304	3528.9
667.8	3521.9
673.29	3495.9
678.775	3500.9
684.254	3507.9
689.726	3468.9
695.193	3454.9
700.655	3437.9
706.11	3445.9
711.56	3423.9
717.004	3404.9
722.442	3375.9
727.874	3351.9
733.301	3316.9
738.722	3337.9
744.137	3307.9
749.547	3319.9
754.951	3313.9
760.349	3304.9
765.741	3315.9
771.128	3335.9
776.509	3380.9
781.885	3387.9
787.254	3364.9
792.618	3394.9
797.977	3348.9
803.33	3314.9
808.677	3340.9
814.019	3329.9
819.355	3272.9
824.686	3265.9
830.011	3237.9
835.33	3238.9
840.644	3234.9
845.952	3193.9
851.255	3194.9
856.552	3189.9
861.844	3167.9
867.13	3159.9
872.41	3171.9
877.686	3137.9
882.955	3137.9
888.219	3076.9
893.478	3061.9
898.731	2983.9
903.979	2969.9
909.221	2926.9
914.458	2922.9
919.69	2904.9
924.916	2900.9
930.136	2942.9
935.351	2944.9
940.561	2966.9
945.766	2932.9
950.965	2921.9
956.158	2909.9
961.347	2869.9
966.529	2825.9
971.707	2781.9
976.879	2781.9
982.046	2727.9
987.208	2702.9
992.364	2741.9
997.515	2756.9
1002.66	2761.9
1007.801	2759.9
1012.936	2801.9
1018.066	2786.9
1023.19	2821.9
1028.309	2809.9
1033.423	2796.9
1038.532	2782.9
1043.636	2798.9
1048.734	2766.9
1053.827	2732.9
1058.915	2680.9
1063.998	2664.9
1069.075	2688.9
1074.147	2667.9
1079.214	2659.9
1084.276	2675.9
1089.333	2709.9
1094.385	2707.9
1099.431	2720.9
1104.472	2701.9
1109.509	2659.9
1114.54	2655.9
1119.565	2593.9
1124.586	2572.9
1129.602	2532.9
1134.613	2528.9
1139.618	2503.9
1144.619	2498.9
1149.614	2490.9
1154.604	2493.9
1159.589	2537.9
1164.57	2499.9
1169.545	2534.9
1174.515	2519.9
1179.48	2520.9
1184.44	2505.9
1189.395	2470.9
1194.345	2448.9
1199.29	2421.9
1204.23	2436.9
1209.165	2442.9
1214.095	2436.9
1219.021	2463.9
1223.941	2476.9
1228.856	2488.9
1233.766	2482.9
1238.672	2497.9
1243.572	2485.9
1248.467	2494.9
1253.358	2454.9
1258.244	2404.9
1263.124	2364.9
1268	2320.9
1272.871	2306.9
1277.737	2284.9
1282.599	2279.9
1287.455	2280.9
1292.306	2284.9
1297.153	2301.9
1301.995	2314.9
1306.832	2308.9
1311.664	2332.9
1316.491	2341.9
1321.314	2324.9
1326.132	2320.9
1330.945	2300.9
1335.753	2252.9
1340.556	2232.9
1345.354	2183.9
1350.148	2138.9
1354.937	2111.9
1359.722	2040.9
1364.501	2046.9
1369.276	1996.9
1374.046	1972.9
1378.811	1969.9
1383.572	1938.9
1388.327	1925.9
1393.079	1935.9
1397.825	1936.9
1402.567	1937.9
1407.304	1974.9
1412.036	1965.9
1416.764	1949.9
1421.487	1964.9
1426.205	1978.9
1430.919	1963.9
1435.628	1977.9
1440.333	1994.9
1445.032	2014.9
1449.727	2030.9
1454.418	2043.9
1459.104	2017.9
1463.785	2007.9
1468.462	1971.9
1473.134	1948.9
1477.802	1880.9
1482.465	1843.9
1487.123	1796.9
1491.777	1776.9
1496.426	1775.9
1501.071	1742.9
1505.711	1727.9
1510.347	1724.9
1514.978	1745.9
1519.604	1722.9
1524.226	1729.9
1528.844	1702.9
1533.457	1698.9
1538.065	1688.9
1542.669	1679.9
1547.269	1672.9
1551.864	1705.9
1556.454	1698.9
1561.041	1715.9
1565.622	1729.9
1570.199	1731.9
1574.772	1756.9
1579.34	1777.9
1583.904	1800.9
1588.464	1807.9
1593.019	1824.9
1597.569	1828.9
1602.115	1806.9
1606.657	1799.9
1611.195	1787.9
1615.728	1787.9
1620.256	1782.9
1624.78	1784.9
1629.3	1787.9
1633.816	1781.9
1638.327	1806.9
1642.834	1807.9
1647.336	1807.9
1651.834	1830.9
1656.328	1824.9
1660.817	1792.9
1665.302	1785.9
1669.783	1757.9
1674.259	1710.9
1678.732	1684.9
1683.199	1649.9
1687.663	1593.9
1692.122	1535.9
1696.577	1490.9
1701.028	1406.9
1705.474	1357.9
1709.917	1301.9
1714.355	1299.9
1718.788	1285.9
1723.218	1288.9
1727.643	1277.9
1732.064	1281.9
1736.481	1271.9
1740.893	1240.9
1745.301	1222.9
1749.705	1202.9
1754.105	1181.9
1758.501	1154.9
1762.893	1132.9
1767.28	1111.9
1771.663	1122.9
1776.042	1105.9
1780.417	1081.9
1784.787	1066.9
1789.154	1048.9
1793.516	1046.9
1797.874	1037.9
1802.228	1011.9
1806.578	1016.9
1810.924	996.9
1815.266	985.9
1819.603	988.9
1823.937	981.9
1828.266	982.9
1832.591	981.9
1836.913	984.9
1841.23	987.9
1845.543	1002.9
1849.852	990.9
1854.156	1000.9
1858.457	1005.9
1862.754	985.9
1867.047	992.9
1871.335	994.9
1875.62	1003.9
1879.9	990.9
1884.177	999.9
1888.449	965.9
1892.718	965.9
1896.982	948.9
1901.243	931.9
1905.499	912.9
1909.752	913.9
1914	890.9
1918.245	896.9
1922.485	877.9
1926.722	869.9
1930.954	868.9
1935.183	859.9
1939.408	853.9
1943.628	849.9
1947.845	842.9
1952.058	822.9
1956.267	829.9
1960.472	818.9
1964.673	802.9
1968.87	806.9
1973.063	800.9
1977.252	797.9
1981.438	789.9
1985.619	789.9
1989.797	790.9
1993.971	800.9
1998.14	802.9
2002.306	782.9
2006.469	808.9
2010.627	801.9
2014.781	808.9
2018.932	799.9
2023.078	806.9
2027.221	786.9
2031.36	780.9
2035.495	776.9
2039.627	756.9
2043.754	743.9
2047.878	744.9
2051.998	748.9
2056.114	747.9
2060.226	746.9
2064.334	741.9
2068.439	724.9
2072.54	723.9
2076.637	727.9
2080.73	727.9
2084.82	710.9
2088.906	717.9
2092.988	702.9
2097.066	710.9
2101.14	691.9
2105.211	679.9
2109.278	661.9
2113.342	670.9
2117.401	663.9
2121.457	656.9
2125.509	651.9
2129.558	657.9
2133.602	657.9
2137.643	654.9
2141.681	652.9
2145.714	638.9
2149.744	656.9
2153.77	643.9
2157.793	647.9
2161.812	645.9
2165.827	637.9
2169.838	626.9
2173.846	606.9
2177.851	598.9
2181.851	605.9
2185.848	596.9
2189.841	599.9
2193.831	596.9
2197.817	585.9
2201.799	581.9
2205.778	590.9
2209.753	583.9
2213.725	560.9
2217.693	569.9
2221.657	577.9
2225.618	565.9
2229.575	571.9
2233.529	567.9
2237.479	564.9
2241.425	554.9
2245.368	532.9
2249.307	526.9
2253.243	518.9
2257.175	517.9
2261.104	517.9
2265.029	511.9
2268.95	518.9
2272.868	488.9
2276.783	489.9
2280.694	490.9
2284.601	483.9
2288.505	478.9
2292.405	474.9
2296.302	467.9
2300.195	465.9
2304.085	452.9
2307.971	448.9
2311.854	450.9
2315.734	427.9
2319.609	426.9
2323.482	433.9
2327.351	433.9
2331.216	447.9
2335.078	451.9
2338.937	441.9
2342.792	424.9
2346.643	423.9
2350.492	421.9
2354.336	418.9
2358.178	420.9
2362.015	420.9
2365.85	438.9
2369.681	416.9
2373.508	421.9
2377.333	425.9
2381.153	421.9
2384.971	426.9
2388.785	425.9
2392.595	419.9
2396.402	415.9
2400.206	422.9
2404.007	411.9
2407.804	412.9
2411.597	388.9
2415.388	389.9
2419.174	400.9
2422.958	392.9
2426.738	395.9
2430.515	401.9
2434.289	388.9
2438.059	385.9
2441.825	381.9
2445.589	373.9
2449.349	374.9
2453.106	367.9
2456.859	362.9
2460.61	367.9
2464.356	354.9
2468.1	350.9
2471.84	344.9
2475.577	350.9
2479.311	335.9
2483.041	328.9
2486.768	337.9
2490.492	321.9
2494.213	325.9
2497.93	336.9
2501.644	328.9
2505.355	328.9
2509.062	315.9
2512.766	320.9
2516.467	311.9
2520.165	309.9
2523.859	319.9
2527.551	296.9
2531.239	292.9
2534.923	290.9
2538.605	293.9
2542.283	283.9
2545.958	283.9
2549.63	283.9
2553.299	281.9
2556.964	287.9
2560.626	275.9
2564.285	265.9
2567.941	268.9
2571.594	267.9
2575.243	265.9
2578.89	250.9
2582.533	256.9
2586.173	244.9
2589.809	239.9
2593.443	252.9
2597.073	247.9
2600.701	234.9
2604.325	232.9
2607.946	233.9
2611.564	238.9
2615.178	243.9
2618.79	231.9
2622.398	232.9
2626.004	234.9
2629.606	230.9
2633.205	225.9
2636.801	210.9
2640.394	221.9
2643.983	224.9
2647.57	223.9
2651.153	211.9
2654.734	211.9
2658.311	205.9
2661.885	207.9
2665.456	208.9
2669.025	200.9
2672.589	202.9
2676.151	210.9
2679.71	196.9
2683.266	193.9
2686.819	190.9
2690.368	190.9
2693.915	191.9
2697.458	176.9
2700.999	181.9
2704.536	176.9
2708.071	174.9
2711.602	170.9
2715.13	171.9
2718.656	159.9
2722.178	166.9
2725.697	159.9
2729.214	154.9
2732.727	157.9
2736.237	156.9
2739.744	153.9
2743.249	147.9
2746.75	144.9
2750.248	144.9
2753.743	127.9
2757.236	132.9
2760.725	138.9
2764.211	122.9
2767.695	119.9
2771.175	119.9
2774.652	119.9
2778.127	126.9
2781.598	120.9
2785.067	128.9
2788.532	125.9
2791.995	127.9
2795.455	127.9
2798.911	123.9
2802.365	132.9
2805.816	131.9
2809.264	121.9
2812.709	125.9
2816.151	133.9
2819.59	131.9
2823.026	130.9
2826.46	127.9
2829.89	125.9
2833.318	124.9
2836.742	132.9
2840.164	120.9
2843.583	137.9
2846.999	134.9
2850.412	131.9
2853.822	131.9
2857.229	136.9
2860.634	133.9
2864.035	143.9
2867.434	147.9
2870.83	148.9
2874.223	163.9
2877.613	165.9
2881	181.9
2884.385	170.9
2887.766	162.9
2891.145	163.9
2894.521	172.9
2897.894	173.9
2901.264	171.9
2904.631	179.9
2907.996	179.9
2911.358	174.9
2914.717	178.9
2918.073	179.9
2921.426	188.9
2924.777	190.9
2928.124	203.9
2931.469	202.9
2934.811	209.9
2938.15	220.9
2941.487	225.9
2944.821	221.9
2948.152	211.9
2951.48	225.9
2954.805	216.9
2958.128	202.9
2961.447	203.9
2964.765	214.9
2968.079	202.9
2971.39	211.9
2974.699	208.9
2978.005	211.9
2981.308	210.9
2984.609	219.9
2987.907	211.9
2991.202	215.9
2994.494	210.9
2997.784	208.9
3001.07	212.9
3004.355	219.9
3007.636	223.9
3010.915	227.9
3014.191	226.9
3017.464	224.9
3020.734	228.9
3024.002	227.9
3027.267	233.9
3030.53	242.9
3033.789	241.9
3037.046	249.9
3040.301	254.9
3043.552	270.9
3046.801	268.9
3050.048	277.9
3053.291	285.9
3056.532	303.9
3059.771	307.9
3063.006	321.9
3066.239	327.9
3069.469	349.9
3072.697	359.9
3075.922	352.9
3079.144	369.9
3082.364	378.9
3085.581	394.9
3088.795	395.9
3092.007	400.9
3095.216	410.9
3098.423	425.9
3101.627	422.9
3104.828	438.9
3108.026	437.9
3111.222	458.9
3114.416	470.9
3117.607	470.9
3120.795	489.9
3123.98	480.9
3127.163	495.9
3130.344	511.9
3133.521	529.9
3136.696	545.9
3139.869	545.9
3143.039	568.9
3146.206	569.9
3149.371	571.9
3152.533	574.9
3155.693	592.9
3158.85	581.9
3162.005	594.9
3165.157	599.9
3168.306	599.9
3171.453	596.9
3174.597	600.9
3177.739	606.9
3180.878	610.9
3184.014	613.9
3187.149	605.9
3190.28	623.9
3193.409	603.9
3196.536	617.9
3199.659	633.9
3202.781	627.9
3205.9	637.9
3209.016	640.9
3212.13	625.9
3215.241	620.9
3218.35	610.9
3221.456	594.9
3224.56	603.9
3227.661	592.9
3230.76	580.9
3233.856	578.9
3236.95	568.9
3240.041	547.9
3243.13	545.9
3246.216	552.9
3249.3	540.9
3252.382	525.9
3255.46	516.9
3258.537	527.9
3261.611	514.9
3264.682	502.9
3267.751	510.9
3270.818	505.9
3273.882	490.9
3276.943	486.9
3280.002	492.9
3283.059	490.9
3286.113	492.9
3289.165	482.9
3292.214	470.9
3295.261	459.9
3298.306	457.9
3301.348	462.9
3304.387	455.9
3307.425	445.9
3310.459	445.9
3313.492	439.9
3316.521	447.9
3319.549	427.9
3322.574	427.9
3325.597	423.9
3328.617	429.9
3331.635	431.9
3334.65	427.9
3337.663	414.9
3340.674	422.9
3343.682	410.9
3346.688	414.9
3349.691	414.9
3352.692	416.9
3355.691	411.9
3358.687	404.9
3361.681	412.9
3364.673	404.9
3367.662	393.9
3370.649	379.9
3373.633	369.9
3376.615	371.9
3379.595	365.9
3382.572	361.9
3385.547	356.9
3388.52	349.9
3391.49	347.9
3394.458	335.9
3397.424	333.9
3400.387	323.9
3403.348	322.9
3406.307	323.9
3409.263	314.9
3412.217	318.9
3415.168	311.9
3418.118	311.9
3421.065	285.9
3424.009	298.9
3426.951	288.9
3429.891	282.9
3432.829	274.9
3435.764	269.9
3438.697	260.9
3441.628	240.9
3444.557	249.9
3447.483	237.9
3450.407	217.9
3453.328	213.9
3456.247	210.9
3459.164	195.9
3462.079	197.9
3464.991	182.9
3467.902	175.9
3470.809	173.9
3473.715	156.9
3476.618	152.9
3479.519	146.9
3482.418	145.9
3485.315	134.9
3488.209	120.9
3491.101	120.9
3493.99	116.9
3496.878	108.9
3499.763	106.9
3502.646	94.9
3505.527	87.9
3508.405	90.9
3511.281	76.9
3514.155	66.9
3517.027	57.9
3519.897	54.9
3522.764	48.9
3525.629	42.9
3528.492	37.9
3531.352	33.9
3534.211	19.9
3537.067	17.9
3539.921	14.9
3542.773	8.9
3545.622	-0.1
3548.469	-6.1
3551.315	-2.1
3554.157	-12.1
3556.998	-16.1
3559.837	-16.1
3562.673	-20.1
3565.507	-22.1
3568.339	-27.1
3571.169	-41.1
3573.996	-36.1
3576.822	-37.1
3579.645	-41.1
3582.466	-34.1
3585.285	-50.1
3588.101	-39.1
3590.916	-55.1
3593.728	-60.1
3596.538	-61.1
3599.346	-61.1
3602.152	-59.1
3604.956	-68.1
3607.757	-64.1
3610.556	-75.1
3613.354	-68.1
3616.149	-76.1
3618.942	-85.1
3621.732	-79.1
3624.521	-84.1
3627.307	-79.1
3630.092	-80.1
3632.874	-83.1
3635.654	-88.1
3638.432	-86.1
3641.208	-87.1
3643.982	-87.1
3646.753	-92.1
3649.523	-94.1
3652.29	-91.1
3655.055	-96.1
3657.818	-98.1
3660.579	-100.1
3663.338	-98.1
3666.095	-103.1
3668.849	-105.1
3671.602	-106.1
3674.352	-108.1
3677.101	-108.1
3679.847	-107.1
3682.591	-116.1
3685.333	-109.1
3688.073	-109.1
3690.811	-110.1
3693.547	-116.1
3696.281	-113.1
3699.013	-110.1
3701.742	-115.1
3704.47	-114.1
3707.195	-115.1
3709.919	-116.1
3712.64	-119.1
3715.359	-123.1
3718.076	-119.1
3720.792	-124.1
3723.505	-123.1
3726.216	-124.1
3728.925	-120.1
3731.632	-124.1
3734.336	-136.1
3737.039	-119.1
3739.74	-125.1
3742.439	-130.1
3745.136	-122.1
3747.83	-131.1
3750.523	-128.1
3753.213	-132.1
3755.902	-127.1
3758.589	-132.1
3761.273	-121.1
3763.956	-124.1
3766.636	-123.1
3769.315	-122.1
3771.991	-123.1
3774.665	-130.1
3777.338	-122.1
3780.008	-127.1
3782.677	-129.1
3785.343	-126.1
3788.007	-128.1
3790.67	-129.1
3793.33	-124.1
3795.989	-129.1
3798.645	-127.1
3801.299	-133.1
3803.952	-135.1
3806.602	-126.1
3809.251	-133.1
3811.897	-133.1
3814.542	-135.1
3817.184	-126.1
3819.825	-129.1
3822.463	-131.1
3825.1	-135.1
3827.735	-128.1
3830.367	-137.1
3832.998	-130.1
3835.627	-128.1
3838.253	-127.1
3840.878	-131.1
3843.501	-129.1
3846.122	-133.1
3848.741	-137.1
3851.358	-131.1
3853.973	-132.1
3856.586	-128.1
3859.197	-136.1
3861.806	-131.1
3864.414	-129.1
3867.019	-130.1
3869.622	-127.1
3872.224	-117.1
3874.823	-109.1
3877.421	-104.1
3880.016	-77.1
3882.61	-60.1
3885.202	-59.1
3887.792	-74.1
3890.38	-101.1
3892.966	-122.1
3895.55	-123.1
3898.132	-128.1
3900.713	-127.1
3903.291	-136.1
3905.868	-138.1
3908.442	-129.1
3911.015	-136.1
3913.586	-133.1
3916.155	-132.1
3918.722	-134.1
3921.287	-133.1
3923.85	-137.1
3926.411	-138.1
3928.971	-132.1
3931.528	-134.1
3934.084	-133.1
3936.638	-129.1
3939.19	-134.1
3941.74	-135.1
3944.288	-140.1
3946.834	-136.1
3949.378	-138.1
3951.921	-137.1
3954.462	-139.1
3957	-133.1
3959.537	-130.1
3962.072	-131.1
3964.606	-126.1
3967.137	-131.1
3969.667	-132.1
3972.194	-139.1
3974.72	-134.1
3977.244	-133.1
3979.766	-138.1
3982.286	-130.1
3984.805	-133.1
3987.321	-135.1
3989.836	-124.1
3992.349	-131.1
3994.86	-136.1
3997.369	-135.1
3999.877	-130.1
4002.382	-126.1
4004.886	-133.1
4007.388	-132.1
4009.888	-130.1
4012.386	-137.1
4014.883	-137.1
4017.377	-133.1
4019.87	-126.1
4022.361	-134.1
4024.85	-134.1
4027.338	-132.1
4029.823	-130.1
4032.307	-132.1
4034.789	-139.1
4037.269	-133.1
4039.747	-132.1
4042.224	-128.1
4044.699	-136.1
4047.172	-133.1
4049.643	-132.1
4052.112	-126.1
4054.58	-137.1
4057.046	-134.1
4059.51	-134.1
4061.972	-127.1
4064.432	-129.1
4066.891	-129.1
4069.348	-130.1
4071.803	-137.1
4074.256	-134.1
4076.708	-125.1
4079.158	-132.1
4081.606	-127.1
4084.052	-136.1
4086.497	-130.1
4088.939	-126.1
4091.38	-138.1
4093.819	-132.1
4096.257	-142.1
4098.693	-137.1
4101.127	-137.1
4103.559	-134.1
4105.989	-3.1
4108.418	-6.1
4110.845	-4.1
4113.27	-8.1
4115.694	-9.1
4118.115	-9.1
4120.535	-133.1
4122.954	-132.1
4125.37	-133.1
4127.785	-131.1
4130.198	-133.1
4132.609	-134.1
4135.019	-142.1
4137.427	-139.1
4139.833	-137.1
4142.237	-139.1
