Data from 2018-2-8_conc=2_n=5_RamanShift_01.txt Node
Date: Mon Mar 12 14:09:28 IST 2018
User: aro
Spectrometer: QEPB0276
Trigger mode: 0
Integration Time (sec): 3.000000E1
Scans to average: 1
Electric dark correction enabled: true
Nonlinearity correction enabled: false
Boxcar width: 0
XAxis mode: Raman Shifts
Number of Pixels in Spectrum: 1044
>>>>>Begin Spectral Data<<<<<
160.701	23.4
166.742	54.4
172.777	126.4
178.805	373.4
184.826	996.4
190.841	2150.4
196.849	3545.4
202.85	4670.4
208.845	5074.4
214.833	5075.4
220.815	5007.4
226.789	4971.4
232.758	4984.4
238.719	4930.4
244.674	4913.4
250.623	4889.4
256.565	4778.4
262.5	4759.4
268.429	4649.4
274.351	4605.4
280.267	4574.4
286.176	4554.4
292.079	4525.4
297.975	4487.4
303.865	4504.4
309.748	4480.4
315.625	4468.4
321.495	4467.4
327.359	4459.4
333.217	4479.4
339.068	4438.4
344.912	4479.4
350.751	4495.4
356.583	4466.4
362.408	4495.4
368.227	4490.4
374.04	4496.4
379.847	4552.4
385.647	4560.4
391.44	4553.4
397.228	4605.4
403.009	4612.4
408.784	4661.4
414.553	4649.4
420.315	4678.4
426.071	4679.4
431.821	4695.4
437.565	4667.4
443.302	4655.4
449.033	4653.4
454.758	4628.4
460.477	4596.4
466.189	4588.4
471.896	4545.4
477.596	4508.4
483.29	4521.4
488.978	4491.4
494.66	4471.4
500.335	4395.4
506.005	4317.4
511.668	4136.4
517.325	4020.4
522.977	3890.4
528.622	3785.4
534.261	3772.4
539.894	3700.4
545.521	3654.4
551.141	3654.4
556.756	3613.4
562.365	3596.4
567.968	3547.4
573.565	3567.4
579.155	3505.4
584.74	3519.4
590.319	3510.4
595.892	3478.4
601.459	3468.4
607.02	3479.4
612.575	3459.4
618.124	3395.4
623.667	3366.4
629.204	3370.4
634.735	3294.4
640.261	3313.4
645.781	3257.4
651.294	3283.4
656.802	3269.4
662.304	3259.4
667.8	3248.4
673.29	3221.4
678.775	3237.4
684.254	3206.4
689.726	3187.4
695.193	3178.4
700.655	3185.4
706.11	3146.4
711.56	3147.4
717.004	3096.4
722.442	3113.4
727.874	3100.4
733.301	3089.4
738.722	3053.4
744.137	3047.4
749.547	3043.4
754.951	3059.4
760.349	3040.4
765.741	3057.4
771.128	3073.4
776.509	3070.4
781.885	3108.4
787.254	3114.4
792.618	3126.4
797.977	3125.4
803.33	3065.4
808.677	3078.4
814.019	3059.4
819.355	3012.4
824.686	3000.4
830.011	3004.4
835.33	2980.4
840.644	2960.4
845.952	2969.4
851.255	2962.4
856.552	2928.4
861.844	2927.4
867.13	2897.4
872.41	2905.4
877.686	2850.4
882.955	2841.4
888.219	2805.4
893.478	2800.4
898.731	2760.4
903.979	2713.4
909.221	2684.4
914.458	2672.4
919.69	2655.4
924.916	2684.4
930.136	2681.4
935.351	2669.4
940.561	2684.4
945.766	2654.4
950.965	2685.4
956.158	2630.4
961.347	2647.4
966.529	2584.4
971.707	2530.4
976.879	2517.4
982.046	2490.4
987.208	2481.4
992.364	2473.4
997.515	2489.4
1002.66	2501.4
1007.801	2556.4
1012.936	2566.4
1018.066	2555.4
1023.19	2575.4
1028.309	2566.4
1033.423	2570.4
1038.532	2570.4
1043.636	2537.4
1048.734	2510.4
1053.827	2454.4
1058.915	2449.4
1063.998	2450.4
1069.075	2412.4
1074.147	2425.4
1079.214	2412.4
1084.276	2441.4
1089.333	2453.4
1094.385	2456.4
1099.431	2465.4
1104.472	2453.4
1109.509	2423.4
1114.54	2377.4
1119.565	2351.4
1124.586	2335.4
1129.602	2308.4
1134.613	2286.4
1139.618	2280.4
1144.619	2277.4
1149.614	2264.4
1154.604	2276.4
1159.589	2287.4
1164.57	2264.4
1169.545	2288.4
1174.515	2289.4
1179.48	2285.4
1184.44	2283.4
1189.395	2229.4
1194.345	2229.4
1199.29	2212.4
1204.23	2227.4
1209.165	2220.4
1214.095	2237.4
1219.021	2262.4
1223.941	2244.4
1228.856	2246.4
1233.766	2260.4
1238.672	2281.4
1243.572	2268.4
1248.467	2268.4
1253.358	2256.4
1258.244	2207.4
1263.124	2173.4
1268	2118.4
1272.871	2087.4
1277.737	2092.4
1282.599	2062.4
1287.455	2073.4
1292.306	2060.4
1297.153	2072.4
1301.995	2091.4
1306.832	2106.4
1311.664	2114.4
1316.491	2120.4
1321.314	2115.4
1326.132	2113.4
1330.945	2087.4
1335.753	2059.4
1340.556	2020.4
1345.354	1965.4
1350.148	1927.4
1354.937	1925.4
1359.722	1894.4
1364.501	1875.4
1369.276	1824.4
1374.046	1811.4
1378.811	1783.4
1383.572	1763.4
1388.327	1764.4
1393.079	1777.4
1397.825	1772.4
1402.567	1772.4
1407.304	1773.4
1412.036	1774.4
1416.764	1791.4
1421.487	1793.4
1426.205	1796.4
1430.919	1777.4
1435.628	1803.4
1440.333	1794.4
1445.032	1832.4
1449.727	1833.4
1454.418	1857.4
1459.104	1841.4
1463.785	1838.4
1468.462	1810.4
1473.134	1773.4
1477.802	1707.4
1482.465	1672.4
1487.123	1654.4
1491.777	1622.4
1496.426	1611.4
1501.071	1588.4
1505.711	1587.4
1510.347	1622.4
1514.978	1599.4
1519.604	1598.4
1524.226	1557.4
1528.844	1580.4
1533.457	1563.4
1538.065	1563.4
1542.669	1560.4
1547.269	1554.4
1551.864	1556.4
1556.454	1572.4
1561.041	1610.4
1565.622	1592.4
1570.199	1604.4
1574.772	1603.4
1579.34	1642.4
1583.904	1668.4
1588.464	1684.4
1593.019	1686.4
1597.569	1693.4
1602.115	1670.4
1606.657	1666.4
1611.195	1664.4
1615.728	1652.4
1620.256	1663.4
1624.78	1660.4
1629.3	1667.4
1633.816	1689.4
1638.327	1684.4
1642.834	1673.4
1647.336	1709.4
1651.834	1701.4
1656.328	1705.4
1660.817	1690.4
1665.302	1670.4
1669.783	1654.4
1674.259	1601.4
1678.732	1570.4
1683.199	1496.4
1687.663	1473.4
1692.122	1410.4
1696.577	1359.4
1701.028	1313.4
1705.474	1276.4
1709.917	1223.4
1714.355	1192.4
1718.788	1179.4
1723.218	1185.4
1727.643	1185.4
1732.064	1173.4
1736.481	1165.4
1740.893	1131.4
1745.301	1112.4
1749.705	1089.4
1754.105	1073.4
1758.501	1066.4
1762.893	1047.4
1767.28	1022.4
1771.663	1030.4
1776.042	1020.4
1780.417	987.4
1784.787	984.4
1789.154	976.4
1793.516	989.4
1797.874	963.4
1802.228	943.4
1806.578	931.4
1810.924	937.4
1815.266	929.4
1819.603	916.4
1823.937	928.4
1828.266	910.4
1832.591	904.4
1836.913	909.4
1841.23	899.4
1845.543	916.4
1849.852	913.4
1854.156	913.4
1858.457	911.4
1862.754	898.4
1867.047	915.4
1871.335	903.4
1875.62	902.4
1879.9	902.4
1884.177	898.4
1888.449	885.4
1892.718	892.4
1896.982	868.4
1901.243	867.4
1905.499	842.4
1909.752	832.4
1914	819.4
1918.245	817.4
1922.485	804.4
1926.722	796.4
1930.954	799.4
1935.183	787.4
1939.408	786.4
1943.628	784.4
1947.845	769.4
1952.058	773.4
1956.267	772.4
1960.472	770.4
1964.673	739.4
1968.87	745.4
1973.063	735.4
1977.252	723.4
1981.438	737.4
1985.619	736.4
1989.797	723.4
1993.971	728.4
1998.14	741.4
2002.306	739.4
2006.469	750.4
2010.627	748.4
2014.781	748.4
2018.932	732.4
2023.078	753.4
2027.221	724.4
2031.36	716.4
2035.495	729.4
2039.627	694.4
2043.754	686.4
2047.878	685.4
2051.998	695.4
2056.114	686.4
2060.226	690.4
2064.334	686.4
2068.439	681.4
2072.54	684.4
2076.637	681.4
2080.73	651.4
2084.82	666.4
2088.906	659.4
2092.988	666.4
2097.066	646.4
2101.14	635.4
2105.211	641.4
2109.278	626.4
2113.342	613.4
2117.401	598.4
2121.457	609.4
2125.509	589.4
2129.558	604.4
2133.602	612.4
2137.643	602.4
2141.681	607.4
2145.714	607.4
2149.744	602.4
2153.77	597.4
2157.793	581.4
2161.812	589.4
2165.827	581.4
2169.838	572.4
2173.846	573.4
2177.851	551.4
2181.851	542.4
2185.848	536.4
2189.841	552.4
2193.831	537.4
2197.817	524.4
2201.799	514.4
2205.778	523.4
2209.753	524.4
2213.725	515.4
2217.693	526.4
2221.657	511.4
2225.618	529.4
2229.575	526.4
2233.529	507.4
2237.479	506.4
2241.425	490.4
2245.368	491.4
2249.307	477.4
2253.243	473.4
2257.175	466.4
2261.104	470.4
2265.029	466.4
2268.95	453.4
2272.868	443.4
2276.783	436.4
2280.694	429.4
2284.601	431.4
2288.505	430.4
2292.405	420.4
2296.302	414.4
2300.195	417.4
2304.085	401.4
2307.971	393.4
2311.854	396.4
2315.734	371.4
2319.609	376.4
2323.482	365.4
2327.351	375.4
2331.216	393.4
2335.078	400.4
2338.937	379.4
2342.792	368.4
2346.643	355.4
2350.492	362.4
2354.336	358.4
2358.178	364.4
2362.015	360.4
2365.85	368.4
2369.681	365.4
2373.508	365.4
2377.333	367.4
2381.153	357.4
2384.971	357.4
2388.785	357.4
2392.595	361.4
2396.402	348.4
2400.206	343.4
2404.007	355.4
2407.804	347.4
2411.597	347.4
2415.388	331.4
2419.174	339.4
2422.958	320.4
2426.738	320.4
2430.515	331.4
2434.289	335.4
2438.059	326.4
2441.825	315.4
2445.589	304.4
2449.349	310.4
2453.106	313.4
2456.859	301.4
2460.61	303.4
2464.356	294.4
2468.1	287.4
2471.84	297.4
2475.577	293.4
2479.311	286.4
2483.041	286.4
2486.768	283.4
2490.492	277.4
2494.213	279.4
2497.93	283.4
2501.644	270.4
2505.355	281.4
2509.062	266.4
2512.766	263.4
2516.467	251.4
2520.165	258.4
2523.859	258.4
2527.551	251.4
2531.239	235.4
2534.923	237.4
2538.605	234.4
2542.283	229.4
2545.958	235.4
2549.63	227.4
2553.299	223.4
2556.964	223.4
2560.626	219.4
2564.285	222.4
2567.941	219.4
2571.594	209.4
2575.243	202.4
2578.89	215.4
2582.533	197.4
2586.173	195.4
2589.809	192.4
2593.443	198.4
2597.073	199.4
2600.701	190.4
2604.325	189.4
2607.946	191.4
2611.564	189.4
2615.178	196.4
2618.79	195.4
2622.398	189.4
2626.004	187.4
2629.606	190.4
2633.205	167.4
2636.801	187.4
2640.394	176.4
2643.983	168.4
2647.57	177.4
2651.153	171.4
2654.734	163.4
2658.311	169.4
2661.885	158.4
2665.456	169.4
2669.025	170.4
2672.589	158.4
2676.151	161.4
2679.71	167.4
2683.266	150.4
2686.819	153.4
2690.368	152.4
2693.915	143.4
2697.458	138.4
2700.999	133.4
2704.536	139.4
2708.071	130.4
2711.602	129.4
2715.13	131.4
2718.656	125.4
2722.178	115.4
2725.697	116.4
2729.214	115.4
2732.727	130.4
2736.237	123.4
2739.744	114.4
2743.249	102.4
2746.75	113.4
2750.248	103.4
2753.743	102.4
2757.236	106.4
2760.725	113.4
2764.211	87.4
2767.695	93.4
2771.175	91.4
2774.652	91.4
2778.127	101.4
2781.598	89.4
2785.067	105.4
2788.532	96.4
2791.995	104.4
2795.455	93.4
2798.911	101.4
2802.365	100.4
2805.816	104.4
2809.264	96.4
2812.709	109.4
2816.151	102.4
2819.59	108.4
2823.026	95.4
2826.46	92.4
2829.89	98.4
2833.318	91.4
2836.742	106.4
2840.164	105.4
2843.583	106.4
2846.999	101.4
2850.412	105.4
2853.822	104.4
2857.229	104.4
2860.634	112.4
2864.035	109.4
2867.434	122.4
2870.83	130.4
2874.223	134.4
2877.613	142.4
2881	150.4
2884.385	148.4
2887.766	135.4
2891.145	139.4
2894.521	145.4
2897.894	145.4
2901.264	155.4
2904.631	140.4
2907.996	144.4
2911.358	150.4
2914.717	157.4
2918.073	164.4
2921.426	167.4
2924.777	174.4
2928.124	173.4
2931.469	169.4
2934.811	178.4
2938.15	189.4
2941.487	181.4
2944.821	196.4
2948.152	188.4
2951.48	198.4
2954.805	192.4
2958.128	186.4
2961.447	177.4
2964.765	184.4
2968.079	181.4
2971.39	190.4
2974.699	194.4
2978.005	189.4
2981.308	192.4
2984.609	186.4
2987.907	196.4
2991.202	192.4
2994.494	202.4
2997.784	200.4
3001.07	208.4
3004.355	215.4
3007.636	209.4
3010.915	211.4
3014.191	215.4
3017.464	213.4
3020.734	219.4
3024.002	220.4
3027.267	230.4
3030.53	230.4
3033.789	237.4
3037.046	244.4
3040.301	239.4
3043.552	266.4
3046.801	271.4
3050.048	276.4
3053.291	278.4
3056.532	295.4
3059.771	306.4
3063.006	319.4
3066.239	326.4
3069.469	337.4
3072.697	346.4
3075.922	362.4
3079.144	375.4
3082.364	380.4
3085.581	394.4
3088.795	397.4
3092.007	400.4
3095.216	406.4
3098.423	420.4
3101.627	423.4
3104.828	443.4
3108.026	441.4
3111.222	459.4
3114.416	460.4
3117.607	465.4
3120.795	479.4
3123.98	494.4
3127.163	497.4
3130.344	513.4
3133.521	535.4
3136.696	549.4
3139.869	547.4
3143.039	556.4
3146.206	563.4
3149.371	571.4
3152.533	588.4
3155.693	599.4
3158.85	597.4
3162.005	599.4
3165.157	603.4
3168.306	603.4
3171.453	601.4
3174.597	617.4
3177.739	621.4
3180.878	620.4
3184.014	627.4
3187.149	621.4
3190.28	630.4
3193.409	629.4
3196.536	633.4
3199.659	640.4
3202.781	651.4
3205.9	646.4
3209.016	650.4
3212.13	646.4
3215.241	643.4
3218.35	628.4
3221.456	620.4
3224.56	620.4
3227.661	614.4
3230.76	617.4
3233.856	603.4
3236.95	584.4
3240.041	582.4
3243.13	569.4
3246.216	553.4
3249.3	551.4
3252.382	559.4
3255.46	545.4
3258.537	549.4
3261.611	532.4
3264.682	521.4
3267.751	524.4
3270.818	519.4
3273.882	509.4
3276.943	500.4
3280.002	514.4
3283.059	510.4
3286.113	510.4
3289.165	511.4
3292.214	488.4
3295.261	489.4
3298.306	486.4
3301.348	480.4
3304.387	473.4
3307.425	464.4
3310.459	470.4
3313.492	450.4
3316.521	452.4
3319.549	449.4
3322.574	447.4
3325.597	447.4
3328.617	441.4
3331.635	438.4
3334.65	435.4
3337.663	428.4
3340.674	442.4
3343.682	433.4
3346.688	424.4
3349.691	427.4
3352.692	418.4
3355.691	426.4
3358.687	414.4
3361.681	425.4
3364.673	415.4
3367.662	408.4
3370.649	393.4
3373.633	388.4
3376.615	376.4
3379.595	372.4
3382.572	375.4
3385.547	372.4
3388.52	354.4
3391.49	359.4
3394.458	345.4
3397.424	344.4
3400.387	341.4
3403.348	336.4
3406.307	327.4
3409.263	335.4
3412.217	315.4
3415.168	318.4
3418.118	315.4
3421.065	302.4
3424.009	302.4
3426.951	293.4
3429.891	288.4
3432.829	282.4
3435.764	274.4
3438.697	266.4
3441.628	263.4
3444.557	244.4
3447.483	236.4
3450.407	231.4
3453.328	221.4
3456.247	207.4
3459.164	198.4
3462.079	206.4
3464.991	190.4
3467.902	178.4
3470.809	179.4
3473.715	159.4
3476.618	154.4
3479.519	148.4
3482.418	133.4
3485.315	145.4
3488.209	128.4
3491.101	127.4
3493.99	119.4
3496.878	112.4
3499.763	96.4
3502.646	96.4
3505.527	87.4
3508.405	90.4
3511.281	75.4
3514.155	66.4
3517.027	67.4
3519.897	60.4
3522.764	55.4
3525.629	46.4
3528.492	33.4
3531.352	34.4
3534.211	25.4
3537.067	16.4
3539.921	16.4
3542.773	8.4
3545.622	1.4
3548.469	-2.6
3551.315	-0.6
3554.157	-9.6
3556.998	-11.6
3559.837	-15.6
3562.673	-21.6
3565.507	-24.6
3568.339	-34.6
3571.169	-39.6
3573.996	-43.6
3576.822	-35.6
3579.645	-33.6
3582.466	-39.6
3585.285	-43.6
3588.101	-44.6
3590.916	-59.6
3593.728	-63.6
3596.538	-66.6
3599.346	-61.6
3602.152	-59.6
3604.956	-63.6
3607.757	-68.6
3610.556	-70.6
3613.354	-78.6
3616.149	-80.6
3618.942	-85.6
3621.732	-82.6
3624.521	-82.6
3627.307	-82.6
3630.092	-82.6
3632.874	-85.6
3635.654	-92.6
3638.432	-90.6
3641.208	-92.6
3643.982	-96.6
3646.753	-98.6
3649.523	-103.6
3652.29	-97.6
3655.055	-97.6
3657.818	-100.6
3660.579	-101.6
3663.338	-106.6
3666.095	-105.6
3668.849	-108.6
3671.602	-108.6
3674.352	-111.6
3677.101	-114.6
3679.847	-116.6
3682.591	-119.6
3685.333	-114.6
3688.073	-112.6
3690.811	-118.6
3693.547	-121.6
3696.281	-117.6
3699.013	-118.6
3701.742	-126.6
3704.47	-124.6
3707.195	-123.6
3709.919	-125.6
3712.64	-118.6
3715.359	-126.6
3718.076	-124.6
3720.792	-124.6
3723.505	-132.6
3726.216	-128.6
3728.925	-133.6
3731.632	-124.6
3734.336	-133.6
3737.039	-128.6
3739.74	-128.6
3742.439	-136.6
3745.136	-129.6
3747.83	-137.6
3750.523	-132.6
3753.213	-140.6
3755.902	-127.6
3758.589	-134.6
3761.273	-129.6
3763.956	-127.6
3766.636	-138.6
3769.315	-130.6
3771.991	-133.6
3774.665	-137.6
3777.338	-124.6
3780.008	-128.6
3782.677	-129.6
3785.343	-134.6
3788.007	-138.6
3790.67	-136.6
3793.33	-128.6
3795.989	-131.6
3798.645	-132.6
3801.299	-127.6
3803.952	-146.6
3806.602	-133.6
3809.251	-140.6
3811.897	-140.6
3814.542	-136.6
3817.184	-133.6
3819.825	-134.6
3822.463	-136.6
3825.1	-134.6
3827.735	-138.6
3830.367	-138.6
3832.998	-141.6
3835.627	-134.6
3838.253	-135.6
3840.878	-134.6
3843.501	-127.6
3846.122	-138.6
3848.741	-138.6
3851.358	-136.6
3853.973	-141.6
3856.586	-139.6
3859.197	-143.6
3861.806	-130.6
3864.414	-135.6
3867.019	-129.6
3869.622	-139.6
3872.224	-127.6
3874.823	-113.6
3877.421	-101.6
3880.016	-68.6
3882.61	-43.6
3885.202	-39.6
3887.792	-67.6
3890.38	-96.6
3892.966	-120.6
3895.55	-129.6
3898.132	-133.6
3900.713	-133.6
3903.291	-139.6
3905.868	-138.6
3908.442	-139.6
3911.015	-135.6
3913.586	-144.6
3916.155	-138.6
3918.722	-141.6
3921.287	-138.6
3923.85	-136.6
3926.411	-144.6
3928.971	-135.6
3931.528	-145.6
3934.084	-141.6
3936.638	-137.6
3939.19	-139.6
3941.74	-142.6
3944.288	-138.6
3946.834	-140.6
3949.378	-139.6
3951.921	-142.6
3954.462	-149.6
3957	-142.6
3959.537	-137.6
3962.072	-138.6
3964.606	-134.6
3967.137	-135.6
3969.667	-142.6
3972.194	-145.6
3974.72	-140.6
3977.244	-133.6
3979.766	-142.6
3982.286	-142.6
3984.805	-143.6
3987.321	-139.6
3989.836	-133.6
3992.349	-138.6
3994.86	-135.6
3997.369	-134.6
3999.877	-139.6
4002.382	-134.6
4004.886	-137.6
4007.388	-138.6
4009.888	-137.6
4012.386	-143.6
4014.883	-140.6
4017.377	-135.6
4019.87	-132.6
4022.361	-138.6
4024.85	-138.6
4027.338	-137.6
4029.823	-141.6
4032.307	-135.6
4034.789	-145.6
4037.269	-142.6
4039.747	-132.6
4042.224	-134.6
4044.699	-145.6
4047.172	-140.6
4049.643	-135.6
4052.112	-135.6
4054.58	-137.6
4057.046	-141.6
4059.51	-137.6
4061.972	-136.6
4064.432	-143.6
4066.891	-139.6
4069.348	-135.6
4071.803	-136.6
4074.256	-134.6
4076.708	-135.6
4079.158	-138.6
4081.606	-134.6
4084.052	-139.6
4086.497	-135.6
4088.939	-132.6
4091.38	-136.6
4093.819	-137.6
4096.257	-152.6
4098.693	-140.6
4101.127	-142.6
4103.559	-139.6
4105.989	21.4
4108.418	10.4
4110.845	4.4
4113.27	6.4
4115.694	-2.6
4118.115	0.4
4120.535	-140.6
4122.954	-139.6
4125.37	-135.6
4127.785	-135.6
4130.198	-144.6
4132.609	-136.6
4135.019	-143.6
4137.427	-144.6
4139.833	-142.6
4142.237	-146.6
