Data from 2018-2-8_conc=0_n=7_RamanShift_03.txt Node
Date: Mon Mar 12 13:41:29 IST 2018
User: aro
Spectrometer: QEPB0276
Trigger mode: 0
Integration Time (sec): 3.000000E1
Scans to average: 1
Electric dark correction enabled: true
Nonlinearity correction enabled: false
Boxcar width: 0
XAxis mode: Raman Shifts
Number of Pixels in Spectrum: 1044
>>>>>Begin Spectral Data<<<<<
160.701	15.1
166.742	46.1
172.777	133.1
178.805	398.1
184.826	1086.1
190.841	2370.1
196.849	3922.1
202.85	5167.1
208.845	5666.1
214.833	5655.1
220.815	5538.1
226.789	5545.1
232.758	5554.1
238.719	5568.1
244.674	5552.1
250.623	5473.1
256.565	5384.1
262.5	5328.1
268.429	5259.1
274.351	5259.1
280.267	5182.1
286.176	5138.1
292.079	5123.1
297.975	5117.1
303.865	5110.1
309.748	5106.1
315.625	5061.1
321.495	5037.1
327.359	5067.1
333.217	5039.1
339.068	5078.1
344.912	5092.1
350.751	5083.1
356.583	5106.1
362.408	5064.1
368.227	5094.1
374.04	5121.1
379.847	5139.1
385.647	5176.1
391.44	5184.1
397.228	5205.1
403.009	5240.1
408.784	5261.1
414.553	5266.1
420.315	5265.1
426.071	5274.1
431.821	5303.1
437.565	5245.1
443.302	5271.1
449.033	5247.1
454.758	5236.1
460.477	5193.1
466.189	5195.1
471.896	5145.1
477.596	5112.1
483.29	5113.1
488.978	5092.1
494.66	5064.1
500.335	4996.1
506.005	4888.1
511.668	4733.1
517.325	4594.1
522.977	4470.1
528.622	4400.1
534.261	4336.1
539.894	4298.1
545.521	4264.1
551.141	4223.1
556.756	4177.1
562.365	4194.1
567.968	4137.1
573.565	4142.1
579.155	4125.1
584.74	4091.1
590.319	4069.1
595.892	4062.1
601.459	4037.1
607.02	4011.1
612.575	3990.1
618.124	4030.1
623.667	3912.1
629.204	3916.1
634.735	3864.1
640.261	3883.1
645.781	3841.1
651.294	3803.1
656.802	3827.1
662.304	3794.1
667.8	3792.1
673.29	3791.1
678.775	3763.1
684.254	3744.1
689.726	3752.1
695.193	3718.1
700.655	3724.1
706.11	3684.1
711.56	3684.1
717.004	3628.1
722.442	3638.1
727.874	3607.1
733.301	3587.1
738.722	3583.1
744.137	3591.1
749.547	3605.1
754.951	3571.1
760.349	3571.1
765.741	3559.1
771.128	3597.1
776.509	3624.1
781.885	3633.1
787.254	3644.1
792.618	3634.1
797.977	3612.1
803.33	3609.1
808.677	3601.1
814.019	3551.1
819.355	3521.1
824.686	3512.1
830.011	3490.1
835.33	3478.1
840.644	3487.1
845.952	3456.1
851.255	3445.1
856.552	3452.1
861.844	3419.1
867.13	3422.1
872.41	3408.1
877.686	3382.1
882.955	3388.1
888.219	3351.1
893.478	3313.1
898.731	3219.1
903.979	3190.1
909.221	3156.1
914.458	3150.1
919.69	3123.1
924.916	3143.1
930.136	3186.1
935.351	3155.1
940.561	3151.1
945.766	3155.1
950.965	3148.1
956.158	3090.1
961.347	3081.1
966.529	3041.1
971.707	3016.1
976.879	2956.1
982.046	2906.1
987.208	2926.1
992.364	2923.1
997.515	2925.1
1002.66	2992.1
1007.801	2997.1
1012.936	3026.1
1018.066	3020.1
1023.19	3015.1
1028.309	3017.1
1033.423	3023.1
1038.532	3006.1
1043.636	2979.1
1048.734	2969.1
1053.827	2918.1
1058.915	2886.1
1063.998	2850.1
1069.075	2857.1
1074.147	2855.1
1079.214	2854.1
1084.276	2868.1
1089.333	2885.1
1094.385	2879.1
1099.431	2899.1
1104.472	2918.1
1109.509	2859.1
1114.54	2843.1
1119.565	2797.1
1124.586	2759.1
1129.602	2724.1
1134.613	2707.1
1139.618	2677.1
1144.619	2688.1
1149.614	2688.1
1154.604	2689.1
1159.589	2698.1
1164.57	2719.1
1169.545	2699.1
1174.515	2716.1
1179.48	2692.1
1184.44	2686.1
1189.395	2633.1
1194.345	2626.1
1199.29	2605.1
1204.23	2602.1
1209.165	2617.1
1214.095	2628.1
1219.021	2662.1
1223.941	2659.1
1228.856	2674.1
1233.766	2684.1
1238.672	2684.1
1243.572	2662.1
1248.467	2675.1
1253.358	2623.1
1258.244	2571.1
1263.124	2555.1
1268	2489.1
1272.871	2485.1
1277.737	2476.1
1282.599	2460.1
1287.455	2438.1
1292.306	2455.1
1297.153	2471.1
1301.995	2481.1
1306.832	2490.1
1311.664	2521.1
1316.491	2489.1
1321.314	2511.1
1326.132	2473.1
1330.945	2441.1
1335.753	2408.1
1340.556	2386.1
1345.354	2358.1
1350.148	2321.1
1354.937	2266.1
1359.722	2219.1
1364.501	2197.1
1369.276	2139.1
1374.046	2106.1
1378.811	2095.1
1383.572	2073.1
1388.327	2070.1
1393.079	2074.1
1397.825	2079.1
1402.567	2087.1
1407.304	2098.1
1412.036	2088.1
1416.764	2117.1
1421.487	2105.1
1426.205	2112.1
1430.919	2131.1
1435.628	2125.1
1440.333	2166.1
1445.032	2157.1
1449.727	2181.1
1454.418	2185.1
1459.104	2190.1
1463.785	2147.1
1468.462	2114.1
1473.134	2066.1
1477.802	2009.1
1482.465	1990.1
1487.123	1938.1
1491.777	1907.1
1496.426	1879.1
1501.071	1858.1
1505.711	1847.1
1510.347	1830.1
1514.978	1841.1
1519.604	1846.1
1524.226	1836.1
1528.844	1828.1
1533.457	1819.1
1538.065	1805.1
1542.669	1796.1
1547.269	1823.1
1551.864	1812.1
1556.454	1838.1
1561.041	1851.1
1565.622	1839.1
1570.199	1870.1
1574.772	1893.1
1579.34	1895.1
1583.904	1921.1
1588.464	1936.1
1593.019	1948.1
1597.569	1938.1
1602.115	1953.1
1606.657	1931.1
1611.195	1938.1
1615.728	1930.1
1620.256	1920.1
1624.78	1922.1
1629.3	1903.1
1633.816	1912.1
1638.327	1916.1
1642.834	1927.1
1647.336	1958.1
1651.834	1938.1
1656.328	1943.1
1660.817	1942.1
1665.302	1907.1
1669.783	1866.1
1674.259	1832.1
1678.732	1805.1
1683.199	1731.1
1687.663	1691.1
1692.122	1619.1
1696.577	1554.1
1701.028	1501.1
1705.474	1436.1
1709.917	1408.1
1714.355	1366.1
1718.788	1344.1
1723.218	1361.1
1727.643	1365.1
1732.064	1377.1
1736.481	1361.1
1740.893	1312.1
1745.301	1300.1
1749.705	1266.1
1754.105	1254.1
1758.501	1231.1
1762.893	1203.1
1767.28	1215.1
1771.663	1197.1
1776.042	1170.1
1780.417	1152.1
1784.787	1140.1
1789.154	1130.1
1793.516	1118.1
1797.874	1074.1
1802.228	1074.1
1806.578	1075.1
1810.924	1062.1
1815.266	1055.1
1819.603	1047.1
1823.937	1056.1
1828.266	1049.1
1832.591	1036.1
1836.913	1048.1
1841.23	1049.1
1845.543	1057.1
1849.852	1039.1
1854.156	1054.1
1858.457	1065.1
1862.754	1066.1
1867.047	1050.1
1871.335	1053.1
1875.62	1058.1
1879.9	1050.1
1884.177	1045.1
1888.449	1038.1
1892.718	1017.1
1896.982	1004.1
1901.243	977.1
1905.499	962.1
1909.752	967.1
1914	953.1
1918.245	933.1
1922.485	912.1
1926.722	914.1
1930.954	908.1
1935.183	892.1
1939.408	898.1
1943.628	906.1
1947.845	889.1
1952.058	874.1
1956.267	879.1
1960.472	864.1
1964.673	858.1
1968.87	847.1
1973.063	838.1
1977.252	832.1
1981.438	852.1
1985.619	841.1
1989.797	835.1
1993.971	833.1
1998.14	844.1
2002.306	844.1
2006.469	855.1
2010.627	862.1
2014.781	864.1
2018.932	855.1
2023.078	865.1
2027.221	839.1
2031.36	840.1
2035.495	833.1
2039.627	796.1
2043.754	801.1
2047.878	801.1
2051.998	781.1
2056.114	788.1
2060.226	773.1
2064.334	774.1
2068.439	758.1
2072.54	765.1
2076.637	767.1
2080.73	762.1
2084.82	754.1
2088.906	755.1
2092.988	736.1
2097.066	735.1
2101.14	717.1
2105.211	716.1
2109.278	697.1
2113.342	699.1
2117.401	689.1
2121.457	692.1
2125.509	683.1
2129.558	689.1
2133.602	678.1
2137.643	679.1
2141.681	689.1
2145.714	687.1
2149.744	673.1
2153.77	681.1
2157.793	670.1
2161.812	672.1
2165.827	660.1
2169.838	672.1
2173.846	637.1
2177.851	648.1
2181.851	630.1
2185.848	618.1
2189.841	638.1
2193.831	624.1
2197.817	619.1
2201.799	611.1
2205.778	612.1
2209.753	619.1
2213.725	601.1
2217.693	605.1
2221.657	616.1
2225.618	599.1
2229.575	594.1
2233.529	601.1
2237.479	584.1
2241.425	570.1
2245.368	576.1
2249.307	563.1
2253.243	545.1
2257.175	550.1
2261.104	557.1
2265.029	533.1
2268.95	529.1
2272.868	522.1
2276.783	514.1
2280.694	498.1
2284.601	516.1
2288.505	502.1
2292.405	494.1
2296.302	487.1
2300.195	486.1
2304.085	476.1
2307.971	465.1
2311.854	466.1
2315.734	458.1
2319.609	460.1
2323.482	444.1
2327.351	439.1
2331.216	464.1
2335.078	476.1
2338.937	443.1
2342.792	439.1
2346.643	436.1
2350.492	443.1
2354.336	431.1
2358.178	443.1
2362.015	443.1
2365.85	440.1
2369.681	442.1
2373.508	455.1
2377.333	451.1
2381.153	450.1
2384.971	450.1
2388.785	445.1
2392.595	431.1
2396.402	424.1
2400.206	445.1
2404.007	425.1
2407.804	426.1
2411.597	425.1
2415.388	423.1
2419.174	414.1
2422.958	421.1
2426.738	416.1
2430.515	415.1
2434.289	417.1
2438.059	400.1
2441.825	400.1
2445.589	405.1
2449.349	387.1
2453.106	376.1
2456.859	385.1
2460.61	383.1
2464.356	371.1
2468.1	369.1
2471.84	355.1
2475.577	365.1
2479.311	349.1
2483.041	345.1
2486.768	350.1
2490.492	343.1
2494.213	348.1
2497.93	346.1
2501.644	342.1
2505.355	330.1
2509.062	331.1
2512.766	333.1
2516.467	337.1
2520.165	328.1
2523.859	323.1
2527.551	308.1
2531.239	299.1
2534.923	296.1
2538.605	294.1
2542.283	297.1
2545.958	289.1
2549.63	296.1
2553.299	292.1
2556.964	295.1
2560.626	273.1
2564.285	271.1
2567.941	270.1
2571.594	273.1
2575.243	270.1
2578.89	271.1
2582.533	263.1
2586.173	261.1
2589.809	253.1
2593.443	250.1
2597.073	241.1
2600.701	250.1
2604.325	245.1
2607.946	244.1
2611.564	237.1
2615.178	250.1
2618.79	249.1
2622.398	238.1
2626.004	237.1
2629.606	232.1
2633.205	235.1
2636.801	229.1
2640.394	226.1
2643.983	222.1
2647.57	223.1
2651.153	218.1
2654.734	223.1
2658.311	207.1
2661.885	213.1
2665.456	213.1
2669.025	221.1
2672.589	208.1
2676.151	220.1
2679.71	207.1
2683.266	198.1
2686.819	202.1
2690.368	199.1
2693.915	181.1
2697.458	193.1
2700.999	186.1
2704.536	195.1
2708.071	181.1
2711.602	175.1
2715.13	171.1
2718.656	164.1
2722.178	163.1
2725.697	159.1
2729.214	157.1
2732.727	162.1
2736.237	166.1
2739.744	153.1
2743.249	154.1
2746.75	155.1
2750.248	146.1
2753.743	144.1
2757.236	132.1
2760.725	134.1
2764.211	130.1
2767.695	127.1
2771.175	123.1
2774.652	125.1
2778.127	121.1
2781.598	129.1
2785.067	126.1
2788.532	118.1
2791.995	131.1
2795.455	128.1
2798.911	124.1
2802.365	129.1
2805.816	131.1
2809.264	125.1
2812.709	129.1
2816.151	135.1
2819.59	131.1
2823.026	135.1
2826.46	127.1
2829.89	129.1
2833.318	127.1
2836.742	136.1
2840.164	127.1
2843.583	135.1
2846.999	128.1
2850.412	138.1
2853.822	132.1
2857.229	141.1
2860.634	141.1
2864.035	149.1
2867.434	160.1
2870.83	166.1
2874.223	173.1
2877.613	178.1
2881	186.1
2884.385	177.1
2887.766	177.1
2891.145	173.1
2894.521	178.1
2897.894	181.1
2901.264	178.1
2904.631	178.1
2907.996	187.1
2911.358	188.1
2914.717	188.1
2918.073	196.1
2921.426	203.1
2924.777	201.1
2928.124	208.1
2931.469	215.1
2934.811	213.1
2938.15	230.1
2941.487	228.1
2944.821	229.1
2948.152	228.1
2951.48	230.1
2954.805	225.1
2958.128	221.1
2961.447	207.1
2964.765	222.1
2968.079	213.1
2971.39	204.1
2974.699	220.1
2978.005	216.1
2981.308	226.1
2984.609	221.1
2987.907	213.1
2991.202	222.1
2994.494	221.1
2997.784	230.1
3001.07	226.1
3004.355	241.1
3007.636	237.1
3010.915	229.1
3014.191	233.1
3017.464	243.1
3020.734	235.1
3024.002	243.1
3027.267	246.1
3030.53	254.1
3033.789	254.1
3037.046	267.1
3040.301	265.1
3043.552	282.1
3046.801	286.1
3050.048	298.1
3053.291	307.1
3056.532	312.1
3059.771	343.1
3063.006	329.1
3066.239	351.1
3069.469	363.1
3072.697	368.1
3075.922	380.1
3079.144	398.1
3082.364	405.1
3085.581	408.1
3088.795	425.1
3092.007	411.1
3095.216	436.1
3098.423	440.1
3101.627	459.1
3104.828	462.1
3108.026	470.1
3111.222	485.1
3114.416	494.1
3117.607	500.1
3120.795	503.1
3123.98	516.1
3127.163	540.1
3130.344	558.1
3133.521	570.1
3136.696	578.1
3139.869	577.1
3143.039	585.1
3146.206	591.1
3149.371	611.1
3152.533	621.1
3155.693	621.1
3158.85	630.1
3162.005	637.1
3165.157	641.1
3168.306	621.1
3171.453	644.1
3174.597	644.1
3177.739	631.1
3180.878	647.1
3184.014	658.1
3187.149	655.1
3190.28	660.1
3193.409	653.1
3196.536	654.1
3199.659	667.1
3202.781	671.1
3205.9	671.1
3209.016	677.1
3212.13	665.1
3215.241	656.1
3218.35	654.1
3221.456	646.1
3224.56	641.1
3227.661	632.1
3230.76	626.1
3233.856	613.1
3236.95	608.1
3240.041	591.1
3243.13	576.1
3246.216	567.1
3249.3	564.1
3252.382	563.1
3255.46	567.1
3258.537	555.1
3261.611	542.1
3264.682	545.1
3267.751	535.1
3270.818	532.1
3273.882	528.1
3276.943	527.1
3280.002	532.1
3283.059	514.1
3286.113	522.1
3289.165	504.1
3292.214	511.1
3295.261	506.1
3298.306	495.1
3301.348	505.1
3304.387	474.1
3307.425	486.1
3310.459	483.1
3313.492	472.1
3316.521	465.1
3319.549	451.1
3322.574	460.1
3325.597	454.1
3328.617	469.1
3331.635	447.1
3334.65	449.1
3337.663	441.1
3340.674	448.1
3343.682	443.1
3346.688	440.1
3349.691	445.1
3352.692	440.1
3355.691	439.1
3358.687	434.1
3361.681	432.1
3364.673	432.1
3367.662	424.1
3370.649	409.1
3373.633	403.1
3376.615	402.1
3379.595	397.1
3382.572	389.1
3385.547	379.1
3388.52	372.1
3391.49	371.1
3394.458	366.1
3397.424	346.1
3400.387	342.1
3403.348	347.1
3406.307	340.1
3409.263	347.1
3412.217	340.1
3415.168	333.1
3418.118	325.1
3421.065	320.1
3424.009	318.1
3426.951	318.1
3429.891	299.1
3432.829	280.1
3435.764	288.1
3438.697	283.1
3441.628	272.1
3444.557	259.1
3447.483	246.1
3450.407	242.1
3453.328	237.1
3456.247	223.1
3459.164	211.1
3462.079	202.1
3464.991	194.1
3467.902	187.1
3470.809	188.1
3473.715	169.1
3476.618	160.1
3479.519	157.1
3482.418	154.1
3485.315	138.1
3488.209	132.1
3491.101	127.1
3493.99	129.1
3496.878	123.1
3499.763	107.1
3502.646	98.1
3505.527	95.1
3508.405	88.1
3511.281	77.1
3514.155	70.1
3517.027	72.1
3519.897	54.1
3522.764	51.1
3525.629	42.1
3528.492	39.1
3531.352	35.1
3534.211	24.1
3537.067	14.1
3539.921	13.1
3542.773	7.1
3545.622	1.1
3548.469	-1.9
3551.315	-2.9
3554.157	-9.9
3556.998	-15.9
3559.837	-26.9
3562.673	-23.9
3565.507	-21.9
3568.339	-31.9
3571.169	-34.9
3573.996	-32.9
3576.822	-34.9
3579.645	-42.9
3582.466	-45.9
3585.285	-51.9
3588.101	-41.9
3590.916	-57.9
3593.728	-63.9
3596.538	-58.9
3599.346	-69.9
3602.152	-67.9
3604.956	-70.9
3607.757	-69.9
3610.556	-75.9
3613.354	-73.9
3616.149	-82.9
3618.942	-88.9
3621.732	-74.9
3624.521	-84.9
3627.307	-80.9
3630.092	-94.9
3632.874	-86.9
3635.654	-98.9
3638.432	-90.9
3641.208	-91.9
3643.982	-95.9
3646.753	-96.9
3649.523	-98.9
3652.29	-95.9
3655.055	-105.9
3657.818	-102.9
3660.579	-100.9
3663.338	-106.9
3666.095	-105.9
3668.849	-112.9
3671.602	-113.9
3674.352	-107.9
3677.101	-115.9
3679.847	-113.9
3682.591	-117.9
3685.333	-117.9
3688.073	-116.9
3690.811	-119.9
3693.547	-127.9
3696.281	-121.9
3699.013	-123.9
3701.742	-125.9
3704.47	-126.9
3707.195	-124.9
3709.919	-123.9
3712.64	-123.9
3715.359	-126.9
3718.076	-123.9
3720.792	-130.9
3723.505	-130.9
3726.216	-129.9
3728.925	-134.9
3731.632	-131.9
3734.336	-134.9
3737.039	-133.9
3739.74	-133.9
3742.439	-135.9
3745.136	-127.9
3747.83	-135.9
3750.523	-134.9
3753.213	-130.9
3755.902	-137.9
3758.589	-141.9
3761.273	-130.9
3763.956	-124.9
3766.636	-135.9
3769.315	-131.9
3771.991	-137.9
3774.665	-138.9
3777.338	-134.9
3780.008	-135.9
3782.677	-136.9
3785.343	-136.9
3788.007	-139.9
3790.67	-136.9
3793.33	-137.9
3795.989	-137.9
3798.645	-133.9
3801.299	-136.9
3803.952	-141.9
3806.602	-135.9
3809.251	-141.9
3811.897	-140.9
3814.542	-143.9
3817.184	-136.9
3819.825	-140.9
3822.463	-141.9
3825.1	-133.9
3827.735	-134.9
3830.367	-139.9
3832.998	-138.9
3835.627	-138.9
3838.253	-140.9
3840.878	-141.9
3843.501	-138.9
3846.122	-138.9
3848.741	-141.9
3851.358	-138.9
3853.973	-143.9
3856.586	-137.9
3859.197	-148.9
3861.806	-137.9
3864.414	-143.9
3867.019	-137.9
3869.622	-139.9
3872.224	-126.9
3874.823	-114.9
3877.421	-104.9
3880.016	-78.9
3882.61	-55.9
3885.202	-55.9
3887.792	-69.9
3890.38	-103.9
3892.966	-126.9
3895.55	-132.9
3898.132	-134.9
3900.713	-142.9
3903.291	-144.9
3905.868	-139.9
3908.442	-138.9
3911.015	-146.9
3913.586	-144.9
3916.155	-145.9
3918.722	-142.9
3921.287	-142.9
3923.85	-146.9
3926.411	-142.9
3928.971	-142.9
3931.528	-139.9
3934.084	-147.9
3936.638	-141.9
3939.19	-145.9
3941.74	-145.9
3944.288	-138.9
3946.834	-142.9
3949.378	-139.9
3951.921	-143.9
3954.462	-143.9
3957	-144.9
3959.537	-143.9
3962.072	-141.9
3964.606	-139.9
3967.137	-140.9
3969.667	-147.9
3972.194	-144.9
3974.72	-141.9
3977.244	-148.9
3979.766	-143.9
3982.286	-140.9
3984.805	-144.9
3987.321	-142.9
3989.836	-130.9
3992.349	-145.9
3994.86	-142.9
3997.369	-141.9
3999.877	-139.9
4002.382	-141.9
4004.886	-141.9
4007.388	-140.9
4009.888	-139.9
4012.386	-144.9
4014.883	-142.9
4017.377	-141.9
4019.87	-143.9
4022.361	-142.9
4024.85	-142.9
4027.338	-140.9
4029.823	-134.9
4032.307	-135.9
4034.789	-143.9
4037.269	-141.9
4039.747	-136.9
4042.224	-138.9
4044.699	-146.9
4047.172	-136.9
4049.643	-137.9
4052.112	-140.9
4054.58	-141.9
4057.046	-139.9
4059.51	-145.9
4061.972	-142.9
4064.432	-141.9
4066.891	-144.9
4069.348	-136.9
4071.803	-139.9
4074.256	-140.9
4076.708	-138.9
4079.158	-146.9
4081.606	-138.9
4084.052	-148.9
4086.497	-140.9
4088.939	-130.9
4091.38	-140.9
4093.819	-138.9
4096.257	-148.9
4098.693	-149.9
4101.127	-148.9
4103.559	-147.9
4105.989	5.1
4108.418	4.1
4110.845	0.1
4113.27	-3.9
4115.694	-3.9
4118.115	-3.9
4120.535	-140.9
4122.954	-141.9
4125.37	-137.9
4127.785	-145.9
4130.198	-138.9
4132.609	-141.9
4135.019	-145.9
4137.427	-148.9
4139.833	-146.9
4142.237	-150.9
