Data from 2018-2-8_conc=2_n=2_RamanShift_02.txt Node
Date: Mon Mar 12 13:58:58 IST 2018
User: aro
Spectrometer: QEPB0276
Trigger mode: 0
Integration Time (sec): 3.000000E1
Scans to average: 1
Electric dark correction enabled: true
Nonlinearity correction enabled: false
Boxcar width: 0
XAxis mode: Raman Shifts
Number of Pixels in Spectrum: 1044
>>>>>Begin Spectral Data<<<<<
160.701	22.9
166.742	49.9
172.777	141.9
178.805	414.9
184.826	1119.9
190.841	2386.9
196.849	3971.9
202.85	5183.9
208.845	5687.9
214.833	5659.9
220.815	5615.9
226.789	5575.9
232.758	5610.9
238.719	5585.9
244.674	5563.9
250.623	5486.9
256.565	5407.9
262.5	5313.9
268.429	5258.9
274.351	5216.9
280.267	5168.9
286.176	5150.9
292.079	5125.9
297.975	5093.9
303.865	5064.9
309.748	5065.9
315.625	5059.9
321.495	5053.9
327.359	5048.9
333.217	5043.9
339.068	5033.9
344.912	5061.9
350.751	5057.9
356.583	5078.9
362.408	5081.9
368.227	5085.9
374.04	5098.9
379.847	5110.9
385.647	5136.9
391.44	5176.9
397.228	5196.9
403.009	5217.9
408.784	5232.9
414.553	5254.9
420.315	5268.9
426.071	5301.9
431.821	5284.9
437.565	5275.9
443.302	5253.9
449.033	5237.9
454.758	5207.9
460.477	5217.9
466.189	5184.9
471.896	5169.9
477.596	5113.9
483.29	5080.9
488.978	5087.9
494.66	5059.9
500.335	4979.9
506.005	4876.9
511.668	4726.9
517.325	4569.9
522.977	4430.9
528.622	4338.9
534.261	4322.9
539.894	4246.9
545.521	4203.9
551.141	4196.9
556.756	4152.9
562.365	4134.9
567.968	4102.9
573.565	4109.9
579.155	4051.9
584.74	4068.9
590.319	4022.9
595.892	4011.9
601.459	3994.9
607.02	3997.9
612.575	3963.9
618.124	3932.9
623.667	3903.9
629.204	3868.9
634.735	3833.9
640.261	3803.9
645.781	3770.9
651.294	3764.9
656.802	3765.9
662.304	3721.9
667.8	3713.9
673.29	3744.9
678.775	3719.9
684.254	3684.9
689.726	3702.9
695.193	3673.9
700.655	3643.9
706.11	3643.9
711.56	3602.9
717.004	3584.9
722.442	3585.9
727.874	3577.9
733.301	3526.9
738.722	3518.9
744.137	3509.9
749.547	3503.9
754.951	3505.9
760.349	3522.9
765.741	3519.9
771.128	3510.9
776.509	3542.9
781.885	3573.9
787.254	3613.9
792.618	3563.9
797.977	3583.9
803.33	3531.9
808.677	3494.9
814.019	3499.9
819.355	3463.9
824.686	3446.9
830.011	3445.9
835.33	3427.9
840.644	3422.9
845.952	3392.9
851.255	3398.9
856.552	3367.9
861.844	3343.9
867.13	3340.9
872.41	3334.9
877.686	3301.9
882.955	3273.9
888.219	3265.9
893.478	3222.9
898.731	3170.9
903.979	3140.9
909.221	3113.9
914.458	3086.9
919.69	3065.9
924.916	3109.9
930.136	3088.9
935.351	3089.9
940.561	3088.9
945.766	3090.9
950.965	3082.9
956.158	3052.9
961.347	3016.9
966.529	2994.9
971.707	2943.9
976.879	2895.9
982.046	2880.9
987.208	2852.9
992.364	2841.9
997.515	2863.9
1002.66	2901.9
1007.801	2910.9
1012.936	2957.9
1018.066	2963.9
1023.19	2959.9
1028.309	2961.9
1033.423	2944.9
1038.532	2930.9
1043.636	2913.9
1048.734	2887.9
1053.827	2858.9
1058.915	2802.9
1063.998	2782.9
1069.075	2775.9
1074.147	2773.9
1079.214	2800.9
1084.276	2801.9
1089.333	2805.9
1094.385	2831.9
1099.431	2834.9
1104.472	2822.9
1109.509	2791.9
1114.54	2773.9
1119.565	2719.9
1124.586	2696.9
1129.602	2679.9
1134.613	2623.9
1139.618	2619.9
1144.619	2629.9
1149.614	2621.9
1154.604	2630.9
1159.589	2615.9
1164.57	2630.9
1169.545	2647.9
1174.515	2648.9
1179.48	2600.9
1184.44	2604.9
1189.395	2577.9
1194.345	2529.9
1199.29	2551.9
1204.23	2549.9
1209.165	2537.9
1214.095	2588.9
1219.021	2578.9
1223.941	2605.9
1228.856	2604.9
1233.766	2604.9
1238.672	2623.9
1243.572	2616.9
1248.467	2578.9
1253.358	2547.9
1258.244	2542.9
1263.124	2471.9
1268	2444.9
1272.871	2410.9
1277.737	2396.9
1282.599	2382.9
1287.455	2359.9
1292.306	2375.9
1297.153	2407.9
1301.995	2416.9
1306.832	2414.9
1311.664	2417.9
1316.491	2429.9
1321.314	2451.9
1326.132	2421.9
1330.945	2387.9
1335.753	2329.9
1340.556	2295.9
1345.354	2273.9
1350.148	2246.9
1354.937	2198.9
1359.722	2166.9
1364.501	2137.9
1369.276	2109.9
1374.046	2060.9
1378.811	2035.9
1383.572	2030.9
1388.327	2039.9
1393.079	2023.9
1397.825	2039.9
1402.567	2031.9
1407.304	2045.9
1412.036	2017.9
1416.764	2041.9
1421.487	2031.9
1426.205	2031.9
1430.919	2041.9
1435.628	2072.9
1440.333	2069.9
1445.032	2065.9
1449.727	2104.9
1454.418	2119.9
1459.104	2081.9
1463.785	2088.9
1468.462	2058.9
1473.134	1996.9
1477.802	1955.9
1482.465	1921.9
1487.123	1889.9
1491.777	1864.9
1496.426	1835.9
1501.071	1820.9
1505.711	1793.9
1510.347	1810.9
1514.978	1793.9
1519.604	1804.9
1524.226	1804.9
1528.844	1797.9
1533.457	1774.9
1538.065	1796.9
1542.669	1769.9
1547.269	1755.9
1551.864	1772.9
1556.454	1775.9
1561.041	1808.9
1565.622	1796.9
1570.199	1819.9
1574.772	1831.9
1579.34	1840.9
1583.904	1873.9
1588.464	1890.9
1593.019	1867.9
1597.569	1905.9
1602.115	1915.9
1606.657	1894.9
1611.195	1885.9
1615.728	1891.9
1620.256	1875.9
1624.78	1878.9
1629.3	1893.9
1633.816	1883.9
1638.327	1896.9
1642.834	1908.9
1647.336	1895.9
1651.834	1914.9
1656.328	1911.9
1660.817	1900.9
1665.302	1890.9
1669.783	1839.9
1674.259	1788.9
1678.732	1768.9
1683.199	1725.9
1687.663	1671.9
1692.122	1594.9
1696.577	1525.9
1701.028	1476.9
1705.474	1417.9
1709.917	1369.9
1714.355	1330.9
1718.788	1340.9
1723.218	1342.9
1727.643	1357.9
1732.064	1330.9
1736.481	1310.9
1740.893	1295.9
1745.301	1254.9
1749.705	1238.9
1754.105	1239.9
1758.501	1202.9
1762.893	1189.9
1767.28	1162.9
1771.663	1155.9
1776.042	1135.9
1780.417	1135.9
1784.787	1106.9
1789.154	1101.9
1793.516	1099.9
1797.874	1073.9
1802.228	1081.9
1806.578	1047.9
1810.924	1044.9
1815.266	1029.9
1819.603	1038.9
1823.937	1043.9
1828.266	1035.9
1832.591	1034.9
1836.913	1030.9
1841.23	1027.9
1845.543	1024.9
1849.852	1030.9
1854.156	1020.9
1858.457	1028.9
1862.754	1041.9
1867.047	1032.9
1871.335	1023.9
1875.62	1032.9
1879.9	1020.9
1884.177	1012.9
1888.449	1005.9
1892.718	995.9
1896.982	977.9
1901.243	968.9
1905.499	954.9
1909.752	942.9
1914	924.9
1918.245	925.9
1922.485	906.9
1926.722	888.9
1930.954	888.9
1935.183	888.9
1939.408	887.9
1943.628	889.9
1947.845	876.9
1952.058	867.9
1956.267	869.9
1960.472	855.9
1964.673	842.9
1968.87	830.9
1973.063	827.9
1977.252	815.9
1981.438	836.9
1985.619	841.9
1989.797	823.9
1993.971	829.9
1998.14	844.9
2002.306	837.9
2006.469	844.9
2010.627	837.9
2014.781	846.9
2018.932	829.9
2023.078	818.9
2027.221	825.9
2031.36	824.9
2035.495	818.9
2039.627	802.9
2043.754	798.9
2047.878	767.9
2051.998	781.9
2056.114	772.9
2060.226	757.9
2064.334	771.9
2068.439	766.9
2072.54	757.9
2076.637	761.9
2080.73	754.9
2084.82	743.9
2088.906	747.9
2092.988	733.9
2097.066	721.9
2101.14	718.9
2105.211	721.9
2109.278	707.9
2113.342	691.9
2117.401	677.9
2121.457	683.9
2125.509	678.9
2129.558	674.9
2133.602	674.9
2137.643	680.9
2141.681	677.9
2145.714	672.9
2149.744	663.9
2153.77	673.9
2157.793	660.9
2161.812	667.9
2165.827	648.9
2169.838	650.9
2173.846	628.9
2177.851	623.9
2181.851	612.9
2185.848	609.9
2189.841	602.9
2193.831	603.9
2197.817	578.9
2201.799	596.9
2205.778	594.9
2209.753	576.9
2213.725	589.9
2217.693	584.9
2221.657	581.9
2225.618	582.9
2229.575	585.9
2233.529	577.9
2237.479	577.9
2241.425	563.9
2245.368	551.9
2249.307	546.9
2253.243	533.9
2257.175	525.9
2261.104	529.9
2265.029	508.9
2268.95	515.9
2272.868	501.9
2276.783	492.9
2280.694	495.9
2284.601	490.9
2288.505	477.9
2292.405	481.9
2296.302	472.9
2300.195	466.9
2304.085	459.9
2307.971	446.9
2311.854	440.9
2315.734	426.9
2319.609	426.9
2323.482	427.9
2327.351	434.9
2331.216	442.9
2335.078	447.9
2338.937	431.9
2342.792	420.9
2346.643	401.9
2350.492	401.9
2354.336	410.9
2358.178	423.9
2362.015	408.9
2365.85	411.9
2369.681	407.9
2373.508	416.9
2377.333	402.9
2381.153	400.9
2384.971	412.9
2388.785	416.9
2392.595	399.9
2396.402	395.9
2400.206	397.9
2404.007	387.9
2407.804	387.9
2411.597	380.9
2415.388	383.9
2419.174	386.9
2422.958	382.9
2426.738	387.9
2430.515	375.9
2434.289	379.9
2438.059	370.9
2441.825	360.9
2445.589	363.9
2449.349	354.9
2453.106	346.9
2456.859	351.9
2460.61	347.9
2464.356	336.9
2468.1	320.9
2471.84	326.9
2475.577	325.9
2479.311	325.9
2483.041	319.9
2486.768	331.9
2490.492	321.9
2494.213	319.9
2497.93	317.9
2501.644	303.9
2505.355	313.9
2509.062	298.9
2512.766	303.9
2516.467	294.9
2520.165	301.9
2523.859	289.9
2527.551	290.9
2531.239	281.9
2534.923	268.9
2538.605	268.9
2542.283	269.9
2545.958	263.9
2549.63	267.9
2553.299	256.9
2556.964	261.9
2560.626	249.9
2564.285	247.9
2567.941	250.9
2571.594	254.9
2575.243	246.9
2578.89	239.9
2582.533	233.9
2586.173	234.9
2589.809	221.9
2593.443	230.9
2597.073	232.9
2600.701	214.9
2604.325	225.9
2607.946	215.9
2611.564	210.9
2615.178	219.9
2618.79	208.9
2622.398	215.9
2626.004	208.9
2629.606	213.9
2633.205	204.9
2636.801	207.9
2640.394	201.9
2643.983	200.9
2647.57	198.9
2651.153	203.9
2654.734	199.9
2658.311	186.9
2661.885	184.9
2665.456	187.9
2669.025	189.9
2672.589	191.9
2676.151	183.9
2679.71	183.9
2683.266	176.9
2686.819	187.9
2690.368	175.9
2693.915	162.9
2697.458	160.9
2700.999	163.9
2704.536	159.9
2708.071	149.9
2711.602	150.9
2715.13	153.9
2718.656	148.9
2722.178	142.9
2725.697	139.9
2729.214	134.9
2732.727	138.9
2736.237	142.9
2739.744	139.9
2743.249	131.9
2746.75	128.9
2750.248	132.9
2753.743	123.9
2757.236	121.9
2760.725	116.9
2764.211	117.9
2767.695	106.9
2771.175	106.9
2774.652	105.9
2778.127	112.9
2781.598	96.9
2785.067	117.9
2788.532	112.9
2791.995	114.9
2795.455	114.9
2798.911	107.9
2802.365	115.9
2805.816	118.9
2809.264	110.9
2812.709	118.9
2816.151	116.9
2819.59	120.9
2823.026	116.9
2826.46	117.9
2829.89	104.9
2833.318	108.9
2836.742	119.9
2840.164	115.9
2843.583	112.9
2846.999	120.9
2850.412	116.9
2853.822	116.9
2857.229	116.9
2860.634	126.9
2864.035	118.9
2867.434	135.9
2870.83	138.9
2874.223	160.9
2877.613	164.9
2881	166.9
2884.385	163.9
2887.766	149.9
2891.145	150.9
2894.521	161.9
2897.894	162.9
2901.264	168.9
2904.631	164.9
2907.996	169.9
2911.358	171.9
2914.717	180.9
2918.073	173.9
2921.426	183.9
2924.777	191.9
2928.124	180.9
2931.469	195.9
2934.811	203.9
2938.15	199.9
2941.487	203.9
2944.821	206.9
2948.152	211.9
2951.48	222.9
2954.805	212.9
2958.128	208.9
2961.447	208.9
2964.765	204.9
2968.079	204.9
2971.39	205.9
2974.699	221.9
2978.005	217.9
2981.308	218.9
2984.609	219.9
2987.907	216.9
2991.202	225.9
2994.494	221.9
2997.784	218.9
3001.07	222.9
3004.355	232.9
3007.636	239.9
3010.915	239.9
3014.191	245.9
3017.464	243.9
3020.734	243.9
3024.002	239.9
3027.267	254.9
3030.53	253.9
3033.789	276.9
3037.046	274.9
3040.301	274.9
3043.552	291.9
3046.801	298.9
3050.048	307.9
3053.291	303.9
3056.532	326.9
3059.771	347.9
3063.006	361.9
3066.239	361.9
3069.469	376.9
3072.697	380.9
3075.922	402.9
3079.144	399.9
3082.364	414.9
3085.581	422.9
3088.795	425.9
3092.007	433.9
3095.216	449.9
3098.423	457.9
3101.627	472.9
3104.828	476.9
3108.026	481.9
3111.222	502.9
3114.416	509.9
3117.607	517.9
3120.795	529.9
3123.98	541.9
3127.163	552.9
3130.344	566.9
3133.521	590.9
3136.696	606.9
3139.869	607.9
3143.039	623.9
3146.206	619.9
3149.371	634.9
3152.533	644.9
3155.693	655.9
3158.85	655.9
3162.005	665.9
3165.157	664.9
3168.306	671.9
3171.453	663.9
3174.597	673.9
3177.739	675.9
3180.878	681.9
3184.014	696.9
3187.149	695.9
3190.28	687.9
3193.409	685.9
3196.536	688.9
3199.659	690.9
3202.781	704.9
3205.9	693.9
3209.016	703.9
3212.13	709.9
3215.241	703.9
3218.35	679.9
3221.456	691.9
3224.56	670.9
3227.661	658.9
3230.76	661.9
3233.856	636.9
3236.95	634.9
3240.041	624.9
3243.13	617.9
3246.216	610.9
3249.3	599.9
3252.382	610.9
3255.46	591.9
3258.537	597.9
3261.611	576.9
3264.682	576.9
3267.751	576.9
3270.818	558.9
3273.882	564.9
3276.943	562.9
3280.002	563.9
3283.059	562.9
3286.113	553.9
3289.165	554.9
3292.214	538.9
3295.261	529.9
3298.306	534.9
3301.348	509.9
3304.387	517.9
3307.425	513.9
3310.459	505.9
3313.492	506.9
3316.521	498.9
3319.549	491.9
3322.574	480.9
3325.597	480.9
3328.617	501.9
3331.635	482.9
3334.65	468.9
3337.663	457.9
3340.674	476.9
3343.682	467.9
3346.688	466.9
3349.691	474.9
3352.692	473.9
3355.691	463.9
3358.687	464.9
3361.681	457.9
3364.673	446.9
3367.662	451.9
3370.649	438.9
3373.633	427.9
3376.615	412.9
3379.595	423.9
3382.572	414.9
3385.547	408.9
3388.52	391.9
3391.49	393.9
3394.458	387.9
3397.424	372.9
3400.387	378.9
3403.348	366.9
3406.307	361.9
3409.263	358.9
3412.217	353.9
3415.168	339.9
3418.118	344.9
3421.065	334.9
3424.009	338.9
3426.951	328.9
3429.891	316.9
3432.829	309.9
3435.764	306.9
3438.697	289.9
3441.628	281.9
3444.557	278.9
3447.483	263.9
3450.407	249.9
3453.328	248.9
3456.247	234.9
3459.164	220.9
3462.079	214.9
3464.991	204.9
3467.902	195.9
3470.809	192.9
3473.715	180.9
3476.618	169.9
3479.519	158.9
3482.418	151.9
3485.315	149.9
3488.209	145.9
3491.101	140.9
3493.99	144.9
3496.878	124.9
3499.763	115.9
3502.646	108.9
3505.527	104.9
3508.405	99.9
3511.281	88.9
3514.155	87.9
3517.027	71.9
3519.897	67.9
3522.764	46.9
3525.629	46.9
3528.492	47.9
3531.352	33.9
3534.211	27.9
3537.067	19.9
3539.921	22.9
3542.773	15.9
3545.622	3.9
3548.469	0.9
3551.315	-6.1
3554.157	-9.1
3556.998	-18.1
3559.837	-22.1
3562.673	-20.1
3565.507	-21.1
3568.339	-30.1
3571.169	-37.1
3573.996	-37.1
3576.822	-40.1
3579.645	-38.1
3582.466	-40.1
3585.285	-56.1
3588.101	-48.1
3590.916	-57.1
3593.728	-65.1
3596.538	-61.1
3599.346	-67.1
3602.152	-69.1
3604.956	-72.1
3607.757	-72.1
3610.556	-75.1
3613.354	-73.1
3616.149	-85.1
3618.942	-89.1
3621.732	-85.1
3624.521	-90.1
3627.307	-94.1
3630.092	-87.1
3632.874	-86.1
3635.654	-96.1
3638.432	-94.1
3641.208	-97.1
3643.982	-103.1
3646.753	-105.1
3649.523	-108.1
3652.29	-104.1
3655.055	-103.1
3657.818	-107.1
3660.579	-107.1
3663.338	-104.1
3666.095	-118.1
3668.849	-116.1
3671.602	-112.1
3674.352	-118.1
3677.101	-121.1
3679.847	-116.1
3682.591	-126.1
3685.333	-120.1
3688.073	-125.1
3690.811	-128.1
3693.547	-139.1
3696.281	-132.1
3699.013	-130.1
3701.742	-128.1
3704.47	-126.1
3707.195	-126.1
3709.919	-127.1
3712.64	-134.1
3715.359	-144.1
3718.076	-135.1
3720.792	-136.1
3723.505	-139.1
3726.216	-134.1
3728.925	-137.1
3731.632	-139.1
3734.336	-145.1
3737.039	-137.1
3739.74	-142.1
3742.439	-147.1
3745.136	-139.1
3747.83	-143.1
3750.523	-142.1
3753.213	-153.1
3755.902	-140.1
3758.589	-152.1
3761.273	-137.1
3763.956	-138.1
3766.636	-137.1
3769.315	-139.1
3771.991	-138.1
3774.665	-149.1
3777.338	-139.1
3780.008	-140.1
3782.677	-140.1
3785.343	-146.1
3788.007	-146.1
3790.67	-147.1
3793.33	-138.1
3795.989	-146.1
3798.645	-141.1
3801.299	-147.1
3803.952	-148.1
3806.602	-141.1
3809.251	-145.1
3811.897	-149.1
3814.542	-147.1
3817.184	-142.1
3819.825	-148.1
3822.463	-144.1
3825.1	-143.1
3827.735	-143.1
3830.367	-148.1
3832.998	-149.1
3835.627	-153.1
3838.253	-145.1
3840.878	-146.1
3843.501	-145.1
3846.122	-143.1
3848.741	-150.1
3851.358	-143.1
3853.973	-151.1
3856.586	-149.1
3859.197	-153.1
3861.806	-150.1
3864.414	-145.1
3867.019	-141.1
3869.622	-142.1
3872.224	-132.1
3874.823	-127.1
3877.421	-108.1
3880.016	-80.1
3882.61	-48.1
3885.202	-39.1
3887.792	-60.1
3890.38	-95.1
3892.966	-126.1
3895.55	-135.1
3898.132	-148.1
3900.713	-146.1
3903.291	-149.1
3905.868	-148.1
3908.442	-139.1
3911.015	-149.1
3913.586	-149.1
3916.155	-154.1
3918.722	-151.1
3921.287	-150.1
3923.85	-150.1
3926.411	-153.1
3928.971	-148.1
3931.528	-149.1
3934.084	-149.1
3936.638	-145.1
3939.19	-156.1
3941.74	-149.1
3944.288	-149.1
3946.834	-146.1
3949.378	-144.1
3951.921	-151.1
3954.462	-153.1
3957	-153.1
3959.537	-149.1
3962.072	-152.1
3964.606	-144.1
3967.137	-143.1
3969.667	-148.1
3972.194	-158.1
3974.72	-147.1
3977.244	-152.1
3979.766	-149.1
3982.286	-148.1
3984.805	-149.1
3987.321	-145.1
3989.836	-137.1
3992.349	-147.1
3994.86	-151.1
3997.369	-146.1
3999.877	-149.1
4002.382	-143.1
4004.886	-150.1
4007.388	-147.1
4009.888	-145.1
4012.386	-153.1
4014.883	-153.1
4017.377	-147.1
4019.87	-146.1
4022.361	-149.1
4024.85	-144.1
4027.338	-141.1
4029.823	-147.1
4032.307	-147.1
4034.789	-149.1
4037.269	-151.1
4039.747	-146.1
4042.224	-143.1
4044.699	-151.1
4047.172	-147.1
4049.643	-144.1
4052.112	-151.1
4054.58	-147.1
4057.046	-147.1
4059.51	-148.1
4061.972	-150.1
4064.432	-147.1
4066.891	-152.1
4069.348	-145.1
4071.803	-150.1
4074.256	-153.1
4076.708	-145.1
4079.158	-148.1
4081.606	-143.1
4084.052	-151.1
4086.497	-145.1
4088.939	-139.1
4091.38	-149.1
4093.819	-146.1
4096.257	-154.1
4098.693	-157.1
4101.127	-155.1
4103.559	-152.1
4105.989	14.9
4108.418	27.9
4110.845	17.9
4113.27	8.9
4115.694	1.9
4118.115	3.9
4120.535	-154.1
4122.954	-153.1
4125.37	-145.1
4127.785	-147.1
4130.198	-144.1
4132.609	-143.1
4135.019	-158.1
4137.427	-157.1
4139.833	-157.1
4142.237	-157.1
