Data from 2018-2-8_conc=0_n=9_RamanShift_03.txt Node
Date: Mon Mar 12 13:48:28 IST 2018
User: aro
Spectrometer: QEPB0276
Trigger mode: 0
Integration Time (sec): 3.000000E1
Scans to average: 1
Electric dark correction enabled: true
Nonlinearity correction enabled: false
Boxcar width: 0
XAxis mode: Raman Shifts
Number of Pixels in Spectrum: 1044
>>>>>Begin Spectral Data<<<<<
160.701	19.9
166.742	50.9
172.777	127.9
178.805	358.9
184.826	974.9
190.841	2085.9
196.849	3514.9
202.85	4615.9
208.845	5006.9
214.833	5029.9
220.815	4989.9
226.789	4963.9
232.758	4975.9
238.719	4997.9
244.674	4963.9
250.623	4868.9
256.565	4865.9
262.5	4807.9
268.429	4746.9
274.351	4688.9
280.267	4648.9
286.176	4629.9
292.079	4618.9
297.975	4605.9
303.865	4570.9
309.748	4612.9
315.625	4593.9
321.495	4563.9
327.359	4562.9
333.217	4586.9
339.068	4579.9
344.912	4569.9
350.751	4590.9
356.583	4629.9
362.408	4626.9
368.227	4618.9
374.04	4619.9
379.847	4662.9
385.647	4681.9
391.44	4693.9
397.228	4691.9
403.009	4755.9
408.784	4752.9
414.553	4743.9
420.315	4759.9
426.071	4763.9
431.821	4748.9
437.565	4772.9
443.302	4762.9
449.033	4751.9
454.758	4724.9
460.477	4720.9
466.189	4678.9
471.896	4646.9
477.596	4596.9
483.29	4616.9
488.978	4594.9
494.66	4548.9
500.335	4512.9
506.005	4424.9
511.668	4281.9
517.325	4110.9
522.977	4030.9
528.622	3923.9
534.261	3902.9
539.894	3858.9
545.521	3806.9
551.141	3770.9
556.756	3747.9
562.365	3758.9
567.968	3699.9
573.565	3690.9
579.155	3663.9
584.74	3656.9
590.319	3646.9
595.892	3629.9
601.459	3629.9
607.02	3605.9
612.575	3588.9
618.124	3570.9
623.667	3496.9
629.204	3495.9
634.735	3443.9
640.261	3433.9
645.781	3445.9
651.294	3413.9
656.802	3398.9
662.304	3395.9
667.8	3364.9
673.29	3371.9
678.775	3353.9
684.254	3344.9
689.726	3321.9
695.193	3355.9
700.655	3338.9
706.11	3284.9
711.56	3289.9
717.004	3235.9
722.442	3259.9
727.874	3243.9
733.301	3245.9
738.722	3211.9
744.137	3190.9
749.547	3188.9
754.951	3194.9
760.349	3172.9
765.741	3180.9
771.128	3211.9
776.509	3233.9
781.885	3244.9
787.254	3253.9
792.618	3271.9
797.977	3240.9
803.33	3217.9
808.677	3202.9
814.019	3190.9
819.355	3150.9
824.686	3127.9
830.011	3109.9
835.33	3113.9
840.644	3097.9
845.952	3101.9
851.255	3075.9
856.552	3075.9
861.844	3076.9
867.13	3054.9
872.41	3031.9
877.686	3006.9
882.955	3003.9
888.219	2998.9
893.478	2938.9
898.731	2881.9
903.979	2828.9
909.221	2827.9
914.458	2817.9
919.69	2816.9
924.916	2788.9
930.136	2809.9
935.351	2819.9
940.561	2848.9
945.766	2800.9
950.965	2787.9
956.158	2792.9
961.347	2765.9
966.529	2728.9
971.707	2696.9
976.879	2652.9
982.046	2625.9
987.208	2613.9
992.364	2632.9
997.515	2629.9
1002.66	2649.9
1007.801	2672.9
1012.936	2679.9
1018.066	2684.9
1023.19	2693.9
1028.309	2690.9
1033.423	2704.9
1038.532	2685.9
1043.636	2685.9
1048.734	2670.9
1053.827	2637.9
1058.915	2601.9
1063.998	2553.9
1069.075	2574.9
1074.147	2567.9
1079.214	2561.9
1084.276	2566.9
1089.333	2570.9
1094.385	2598.9
1099.431	2601.9
1104.472	2576.9
1109.509	2573.9
1114.54	2527.9
1119.565	2482.9
1124.586	2459.9
1129.602	2431.9
1134.613	2437.9
1139.618	2408.9
1144.619	2401.9
1149.614	2394.9
1154.604	2411.9
1159.589	2422.9
1164.57	2437.9
1169.545	2403.9
1174.515	2422.9
1179.48	2415.9
1184.44	2382.9
1189.395	2347.9
1194.345	2347.9
1199.29	2338.9
1204.23	2342.9
1209.165	2348.9
1214.095	2338.9
1219.021	2378.9
1223.941	2393.9
1228.856	2409.9
1233.766	2396.9
1238.672	2392.9
1243.572	2412.9
1248.467	2364.9
1253.358	2366.9
1258.244	2323.9
1263.124	2312.9
1268	2241.9
1272.871	2217.9
1277.737	2199.9
1282.599	2182.9
1287.455	2212.9
1292.306	2198.9
1297.153	2201.9
1301.995	2225.9
1306.832	2240.9
1311.664	2228.9
1316.491	2230.9
1321.314	2240.9
1326.132	2232.9
1330.945	2188.9
1335.753	2175.9
1340.556	2136.9
1345.354	2096.9
1350.148	2058.9
1354.937	2022.9
1359.722	1990.9
1364.501	1968.9
1369.276	1927.9
1374.046	1907.9
1378.811	1877.9
1383.572	1876.9
1388.327	1849.9
1393.079	1841.9
1397.825	1864.9
1402.567	1865.9
1407.304	1859.9
1412.036	1879.9
1416.764	1877.9
1421.487	1882.9
1426.205	1888.9
1430.919	1884.9
1435.628	1888.9
1440.333	1923.9
1445.032	1943.9
1449.727	1922.9
1454.418	1955.9
1459.104	1968.9
1463.785	1924.9
1468.462	1908.9
1473.134	1821.9
1477.802	1801.9
1482.465	1773.9
1487.123	1744.9
1491.777	1715.9
1496.426	1696.9
1501.071	1695.9
1505.711	1673.9
1510.347	1664.9
1514.978	1668.9
1519.604	1671.9
1524.226	1652.9
1528.844	1629.9
1533.457	1624.9
1538.065	1604.9
1542.669	1627.9
1547.269	1629.9
1551.864	1634.9
1556.454	1637.9
1561.041	1666.9
1565.622	1662.9
1570.199	1676.9
1574.772	1677.9
1579.34	1695.9
1583.904	1734.9
1588.464	1725.9
1593.019	1739.9
1597.569	1745.9
1602.115	1720.9
1606.657	1724.9
1611.195	1735.9
1615.728	1724.9
1620.256	1717.9
1624.78	1722.9
1629.3	1719.9
1633.816	1714.9
1638.327	1723.9
1642.834	1746.9
1647.336	1758.9
1651.834	1726.9
1656.328	1743.9
1660.817	1740.9
1665.302	1712.9
1669.783	1691.9
1674.259	1660.9
1678.732	1598.9
1683.199	1569.9
1687.663	1531.9
1692.122	1471.9
1696.577	1406.9
1701.028	1358.9
1705.474	1307.9
1709.917	1249.9
1714.355	1225.9
1718.788	1229.9
1723.218	1243.9
1727.643	1237.9
1732.064	1224.9
1736.481	1226.9
1740.893	1201.9
1745.301	1173.9
1749.705	1159.9
1754.105	1131.9
1758.501	1104.9
1762.893	1089.9
1767.28	1073.9
1771.663	1070.9
1776.042	1057.9
1780.417	1046.9
1784.787	1038.9
1789.154	1013.9
1793.516	1016.9
1797.874	979.9
1802.228	981.9
1806.578	976.9
1810.924	952.9
1815.266	935.9
1819.603	957.9
1823.937	953.9
1828.266	945.9
1832.591	950.9
1836.913	949.9
1841.23	960.9
1845.543	957.9
1849.852	945.9
1854.156	948.9
1858.457	958.9
1862.754	952.9
1867.047	947.9
1871.335	964.9
1875.62	946.9
1879.9	947.9
1884.177	944.9
1888.449	945.9
1892.718	928.9
1896.982	914.9
1901.243	895.9
1905.499	889.9
1909.752	871.9
1914	868.9
1918.245	854.9
1922.485	837.9
1926.722	840.9
1930.954	824.9
1935.183	820.9
1939.408	804.9
1943.628	821.9
1947.845	802.9
1952.058	808.9
1956.267	803.9
1960.472	781.9
1964.673	786.9
1968.87	770.9
1973.063	761.9
1977.252	754.9
1981.438	753.9
1985.619	755.9
1989.797	771.9
1993.971	764.9
1998.14	778.9
2002.306	770.9
2006.469	781.9
2010.627	788.9
2014.781	778.9
2018.932	756.9
2023.078	763.9
2027.221	764.9
2031.36	754.9
2035.495	752.9
2039.627	739.9
2043.754	728.9
2047.878	715.9
2051.998	713.9
2056.114	698.9
2060.226	710.9
2064.334	698.9
2068.439	708.9
2072.54	700.9
2076.637	696.9
2080.73	698.9
2084.82	687.9
2088.906	683.9
2092.988	687.9
2097.066	673.9
2101.14	669.9
2105.211	654.9
2109.278	658.9
2113.342	646.9
2117.401	633.9
2121.457	630.9
2125.509	611.9
2129.558	625.9
2133.602	616.9
2137.643	629.9
2141.681	628.9
2145.714	627.9
2149.744	629.9
2153.77	620.9
2157.793	611.9
2161.812	605.9
2165.827	591.9
2169.838	605.9
2173.846	581.9
2177.851	583.9
2181.851	576.9
2185.848	575.9
2189.841	569.9
2193.831	567.9
2197.817	555.9
2201.799	541.9
2205.778	551.9
2209.753	548.9
2213.725	549.9
2217.693	560.9
2221.657	553.9
2225.618	547.9
2229.575	549.9
2233.529	530.9
2237.479	534.9
2241.425	531.9
2245.368	515.9
2249.307	516.9
2253.243	512.9
2257.175	499.9
2261.104	495.9
2265.029	480.9
2268.95	488.9
2272.868	486.9
2276.783	463.9
2280.694	472.9
2284.601	464.9
2288.505	452.9
2292.405	459.9
2296.302	448.9
2300.195	445.9
2304.085	435.9
2307.971	420.9
2311.854	427.9
2315.734	411.9
2319.609	409.9
2323.482	402.9
2327.351	409.9
2331.216	425.9
2335.078	425.9
2338.937	416.9
2342.792	408.9
2346.643	397.9
2350.492	399.9
2354.336	398.9
2358.178	397.9
2362.015	403.9
2365.85	397.9
2369.681	402.9
2373.508	403.9
2377.333	400.9
2381.153	403.9
2384.971	405.9
2388.785	404.9
2392.595	395.9
2396.402	393.9
2400.206	391.9
2404.007	390.9
2407.804	387.9
2411.597	389.9
2415.388	372.9
2419.174	377.9
2422.958	364.9
2426.738	375.9
2430.515	377.9
2434.289	379.9
2438.059	368.9
2441.825	357.9
2445.589	355.9
2449.349	354.9
2453.106	345.9
2456.859	354.9
2460.61	357.9
2464.356	337.9
2468.1	342.9
2471.84	333.9
2475.577	331.9
2479.311	308.9
2483.041	313.9
2486.768	326.9
2490.492	314.9
2494.213	324.9
2497.93	316.9
2501.644	313.9
2505.355	315.9
2509.062	297.9
2512.766	311.9
2516.467	290.9
2520.165	290.9
2523.859	288.9
2527.551	288.9
2531.239	282.9
2534.923	268.9
2538.605	267.9
2542.283	274.9
2545.958	259.9
2549.63	267.9
2553.299	262.9
2556.964	264.9
2560.626	253.9
2564.285	249.9
2567.941	250.9
2571.594	252.9
2575.243	250.9
2578.89	246.9
2582.533	236.9
2586.173	232.9
2589.809	235.9
2593.443	242.9
2597.073	233.9
2600.701	222.9
2604.325	210.9
2607.946	216.9
2611.564	218.9
2615.178	232.9
2618.79	225.9
2622.398	218.9
2626.004	217.9
2629.606	212.9
2633.205	216.9
2636.801	204.9
2640.394	212.9
2643.983	210.9
2647.57	202.9
2651.153	211.9
2654.734	199.9
2658.311	187.9
2661.885	196.9
2665.456	191.9
2669.025	197.9
2672.589	196.9
2676.151	197.9
2679.71	192.9
2683.266	177.9
2686.819	183.9
2690.368	174.9
2693.915	171.9
2697.458	173.9
2700.999	179.9
2704.536	160.9
2708.071	151.9
2711.602	148.9
2715.13	164.9
2718.656	155.9
2722.178	147.9
2725.697	150.9
2729.214	147.9
2732.727	150.9
2736.237	139.9
2739.744	140.9
2743.249	133.9
2746.75	140.9
2750.248	132.9
2753.743	136.9
2757.236	125.9
2760.725	125.9
2764.211	111.9
2767.695	118.9
2771.175	108.9
2774.652	110.9
2778.127	116.9
2781.598	108.9
2785.067	120.9
2788.532	123.9
2791.995	115.9
2795.455	119.9
2798.911	109.9
2802.365	117.9
2805.816	119.9
2809.264	113.9
2812.709	125.9
2816.151	125.9
2819.59	120.9
2823.026	117.9
2826.46	114.9
2829.89	115.9
2833.318	113.9
2836.742	123.9
2840.164	113.9
2843.583	125.9
2846.999	118.9
2850.412	116.9
2853.822	127.9
2857.229	116.9
2860.634	126.9
2864.035	129.9
2867.434	133.9
2870.83	144.9
2874.223	158.9
2877.613	150.9
2881	159.9
2884.385	153.9
2887.766	154.9
2891.145	150.9
2894.521	156.9
2897.894	158.9
2901.264	158.9
2904.631	165.9
2907.996	162.9
2911.358	157.9
2914.717	159.9
2918.073	174.9
2921.426	172.9
2924.777	177.9
2928.124	182.9
2931.469	185.9
2934.811	190.9
2938.15	185.9
2941.487	199.9
2944.821	189.9
2948.152	200.9
2951.48	193.9
2954.805	200.9
2958.128	190.9
2961.447	181.9
2964.765	181.9
2968.079	179.9
2971.39	185.9
2974.699	191.9
2978.005	187.9
2981.308	187.9
2984.609	187.9
2987.907	185.9
2991.202	191.9
2994.494	202.9
2997.784	198.9
3001.07	205.9
3004.355	200.9
3007.636	201.9
3010.915	196.9
3014.191	210.9
3017.464	218.9
3020.734	209.9
3024.002	210.9
3027.267	217.9
3030.53	225.9
3033.789	228.9
3037.046	230.9
3040.301	240.9
3043.552	249.9
3046.801	261.9
3050.048	260.9
3053.291	266.9
3056.532	278.9
3059.771	287.9
3063.006	295.9
3066.239	304.9
3069.469	321.9
3072.697	325.9
3075.922	331.9
3079.144	353.9
3082.364	352.9
3085.581	359.9
3088.795	359.9
3092.007	367.9
3095.216	380.9
3098.423	383.9
3101.627	401.9
3104.828	409.9
3108.026	410.9
3111.222	426.9
3114.416	438.9
3117.607	442.9
3120.795	452.9
3123.98	464.9
3127.163	467.9
3130.344	483.9
3133.521	485.9
3136.696	509.9
3139.869	519.9
3143.039	510.9
3146.206	516.9
3149.371	534.9
3152.533	553.9
3155.693	556.9
3158.85	563.9
3162.005	561.9
3165.157	552.9
3168.306	550.9
3171.453	551.9
3174.597	558.9
3177.739	563.9
3180.878	573.9
3184.014	579.9
3187.149	575.9
3190.28	559.9
3193.409	570.9
3196.536	572.9
3199.659	585.9
3202.781	585.9
3205.9	585.9
3209.016	581.9
3212.13	586.9
3215.241	579.9
3218.35	564.9
3221.456	564.9
3224.56	555.9
3227.661	545.9
3230.76	536.9
3233.856	531.9
3236.95	524.9
3240.041	516.9
3243.13	513.9
3246.216	507.9
3249.3	489.9
3252.382	487.9
3255.46	488.9
3258.537	489.9
3261.611	476.9
3264.682	468.9
3267.751	466.9
3270.818	460.9
3273.882	465.9
3276.943	463.9
3280.002	455.9
3283.059	460.9
3286.113	460.9
3289.165	448.9
3292.214	445.9
3295.261	419.9
3298.306	429.9
3301.348	421.9
3304.387	413.9
3307.425	421.9
3310.459	410.9
3313.492	402.9
3316.521	404.9
3319.549	398.9
3322.574	399.9
3325.597	385.9
3328.617	389.9
3331.635	386.9
3334.65	393.9
3337.663	397.9
3340.674	393.9
3343.682	395.9
3346.688	376.9
3349.691	379.9
3352.692	386.9
3355.691	375.9
3358.687	372.9
3361.681	379.9
3364.673	377.9
3367.662	358.9
3370.649	361.9
3373.633	345.9
3376.615	340.9
3379.595	345.9
3382.572	340.9
3385.547	334.9
3388.52	323.9
3391.49	331.9
3394.458	311.9
3397.424	303.9
3400.387	301.9
3403.348	301.9
3406.307	290.9
3409.263	285.9
3412.217	290.9
3415.168	279.9
3418.118	288.9
3421.065	273.9
3424.009	268.9
3426.951	263.9
3429.891	264.9
3432.829	243.9
3435.764	246.9
3438.697	235.9
3441.628	226.9
3444.557	231.9
3447.483	218.9
3450.407	212.9
3453.328	184.9
3456.247	185.9
3459.164	174.9
3462.079	165.9
3464.991	168.9
3467.902	157.9
3470.809	158.9
3473.715	140.9
3476.618	135.9
3479.519	127.9
3482.418	120.9
3485.315	113.9
3488.209	109.9
3491.101	105.9
3493.99	113.9
3496.878	90.9
3499.763	85.9
3502.646	81.9
3505.527	69.9
3508.405	69.9
3511.281	65.9
3514.155	59.9
3517.027	55.9
3519.897	40.9
3522.764	36.9
3525.629	29.9
3528.492	21.9
3531.352	21.9
3534.211	17.9
3537.067	10.9
3539.921	10.9
3542.773	3.9
3545.622	-10.1
3548.469	-9.1
3551.315	-13.1
3554.157	-16.1
3556.998	-29.1
3559.837	-22.1
3562.673	-28.1
3565.507	-23.1
3568.339	-36.1
3571.169	-47.1
3573.996	-40.1
3576.822	-46.1
3579.645	-44.1
3582.466	-48.1
3585.285	-47.1
3588.101	-38.1
3590.916	-60.1
3593.728	-65.1
3596.538	-69.1
3599.346	-62.1
3602.152	-69.1
3604.956	-64.1
3607.757	-65.1
3610.556	-71.1
3613.354	-74.1
3616.149	-84.1
3618.942	-83.1
3621.732	-87.1
3624.521	-84.1
3627.307	-84.1
3630.092	-77.1
3632.874	-82.1
3635.654	-93.1
3638.432	-86.1
3641.208	-91.1
3643.982	-92.1
3646.753	-95.1
3649.523	-96.1
3652.29	-93.1
3655.055	-92.1
3657.818	-93.1
3660.579	-96.1
3663.338	-97.1
3666.095	-104.1
3668.849	-103.1
3671.602	-109.1
3674.352	-109.1
3677.101	-108.1
3679.847	-109.1
3682.591	-115.1
3685.333	-108.1
3688.073	-109.1
3690.811	-113.1
3693.547	-116.1
3696.281	-109.1
3699.013	-114.1
3701.742	-116.1
3704.47	-118.1
3707.195	-124.1
3709.919	-117.1
3712.64	-119.1
3715.359	-122.1
3718.076	-118.1
3720.792	-120.1
3723.505	-124.1
3726.216	-121.1
3728.925	-119.1
3731.632	-124.1
3734.336	-133.1
3737.039	-120.1
3739.74	-123.1
3742.439	-129.1
3745.136	-120.1
3747.83	-131.1
3750.523	-126.1
3753.213	-135.1
3755.902	-127.1
3758.589	-134.1
3761.273	-118.1
3763.956	-120.1
3766.636	-126.1
3769.315	-120.1
3771.991	-124.1
3774.665	-129.1
3777.338	-120.1
3780.008	-128.1
3782.677	-127.1
3785.343	-126.1
3788.007	-125.1
3790.67	-127.1
3793.33	-128.1
3795.989	-130.1
3798.645	-130.1
3801.299	-125.1
3803.952	-137.1
3806.602	-124.1
3809.251	-128.1
3811.897	-129.1
3814.542	-133.1
3817.184	-126.1
3819.825	-133.1
3822.463	-128.1
3825.1	-126.1
3827.735	-128.1
3830.367	-125.1
3832.998	-129.1
3835.627	-133.1
3838.253	-128.1
3840.878	-135.1
3843.501	-131.1
3846.122	-129.1
3848.741	-128.1
3851.358	-124.1
3853.973	-131.1
3856.586	-129.1
3859.197	-138.1
3861.806	-130.1
3864.414	-133.1
3867.019	-127.1
3869.622	-131.1
3872.224	-118.1
3874.823	-107.1
3877.421	-96.1
3880.016	-79.1
3882.61	-54.1
3885.202	-44.1
3887.792	-61.1
3890.38	-92.1
3892.966	-117.1
3895.55	-123.1
3898.132	-131.1
3900.713	-134.1
3903.291	-132.1
3905.868	-132.1
3908.442	-124.1
3911.015	-136.1
3913.586	-139.1
3916.155	-136.1
3918.722	-136.1
3921.287	-136.1
3923.85	-133.1
3926.411	-135.1
3928.971	-131.1
3931.528	-135.1
3934.084	-131.1
3936.638	-127.1
3939.19	-136.1
3941.74	-140.1
3944.288	-135.1
3946.834	-127.1
3949.378	-128.1
3951.921	-130.1
3954.462	-139.1
3957	-133.1
3959.537	-129.1
3962.072	-133.1
3964.606	-130.1
3967.137	-130.1
3969.667	-130.1
3972.194	-138.1
3974.72	-134.1
3977.244	-132.1
3979.766	-135.1
3982.286	-129.1
3984.805	-129.1
3987.321	-131.1
3989.836	-121.1
3992.349	-134.1
3994.86	-136.1
3997.369	-135.1
3999.877	-132.1
4002.382	-131.1
4004.886	-131.1
4007.388	-130.1
4009.888	-128.1
4012.386	-134.1
4014.883	-136.1
4017.377	-132.1
4019.87	-129.1
4022.361	-132.1
4024.85	-132.1
4027.338	-128.1
4029.823	-130.1
4032.307	-125.1
4034.789	-132.1
4037.269	-131.1
4039.747	-131.1
4042.224	-127.1
4044.699	-129.1
4047.172	-128.1
4049.643	-127.1
4052.112	-135.1
4054.58	-133.1
4057.046	-135.1
4059.51	-139.1
4061.972	-127.1
4064.432	-129.1
4066.891	-130.1
4069.348	-127.1
4071.803	-137.1
4074.256	-132.1
4076.708	-129.1
4079.158	-129.1
4081.606	-127.1
4084.052	-132.1
4086.497	-127.1
4088.939	-123.1
4091.38	-130.1
4093.819	-132.1
4096.257	-140.1
4098.693	-139.1
4101.127	-135.1
4103.559	-134.1
4105.989	19.9
4108.418	12.9
4110.845	14.9
4113.27	6.9
4115.694	1.9
4118.115	-1.1
4120.535	-139.1
4122.954	-135.1
4125.37	-129.1
4127.785	-130.1
4130.198	-129.1
4132.609	-127.1
4135.019	-137.1
4137.427	-138.1
4139.833	-141.1
4142.237	-141.1
