Data from 2018-2-8_conc=3_n=3_RamanShift_05.txt Node
Date: Mon Mar 12 14:36:58 IST 2018
User: aro
Spectrometer: QEPB0276
Trigger mode: 0
Integration Time (sec): 3.000000E1
Scans to average: 1
Electric dark correction enabled: true
Nonlinearity correction enabled: false
Boxcar width: 0
XAxis mode: Raman Shifts
Number of Pixels in Spectrum: 1044
>>>>>Begin Spectral Data<<<<<
160.701	8.6
166.742	53.6
172.777	146.6
178.805	448.6
184.826	1245.6
190.841	2676.6
196.849	4528.6
202.85	5923.6
208.845	6492.6
214.833	6474.6
220.815	6363.6
226.789	6397.6
232.758	6357.6
238.719	6373.6
244.674	6299.6
250.623	6231.6
256.565	6119.6
262.5	6031.6
268.429	5950.6
274.351	5907.6
280.267	5820.6
286.176	5811.6
292.079	5787.6
297.975	5735.6
303.865	5724.6
309.748	5705.6
315.625	5705.6
321.495	5641.6
327.359	5664.6
333.217	5666.6
339.068	5627.6
344.912	5692.6
350.751	5663.6
356.583	5655.6
362.408	5651.6
368.227	5675.6
374.04	5694.6
379.847	5744.6
385.647	5723.6
391.44	5800.6
397.228	5785.6
403.009	5826.6
408.784	5839.6
414.553	5861.6
420.315	5850.6
426.071	5863.6
431.821	5843.6
437.565	5846.6
443.302	5871.6
449.033	5837.6
454.758	5808.6
460.477	5794.6
466.189	5788.6
471.896	5749.6
477.596	5726.6
483.29	5668.6
488.978	5690.6
494.66	5668.6
500.335	5563.6
506.005	5454.6
511.668	5331.6
517.325	5222.6
522.977	5083.6
528.622	4968.6
534.261	4940.6
539.894	4867.6
545.521	4870.6
551.141	4810.6
556.756	4783.6
562.365	4743.6
567.968	4733.6
573.565	4722.6
579.155	4691.6
584.74	4665.6
590.319	4636.6
595.892	4633.6
601.459	4580.6
607.02	4589.6
612.575	4573.6
618.124	4546.6
623.667	4497.6
629.204	4480.6
634.735	4391.6
640.261	4394.6
645.781	4368.6
651.294	4368.6
656.802	4361.6
662.304	4340.6
667.8	4328.6
673.29	4303.6
678.775	4305.6
684.254	4287.6
689.726	4295.6
695.193	4262.6
700.655	4234.6
706.11	4227.6
711.56	4206.6
717.004	4198.6
722.442	4174.6
727.874	4150.6
733.301	4134.6
738.722	4083.6
744.137	4087.6
749.547	4089.6
754.951	4052.6
760.349	4078.6
765.741	4090.6
771.128	4090.6
776.509	4108.6
781.885	4150.6
787.254	4160.6
792.618	4145.6
797.977	4131.6
803.33	4084.6
808.677	4053.6
814.019	4025.6
819.355	3988.6
824.686	3970.6
830.011	3980.6
835.33	3951.6
840.644	3932.6
845.952	3918.6
851.255	3921.6
856.552	3951.6
861.844	3908.6
867.13	3894.6
872.41	3865.6
877.686	3825.6
882.955	3823.6
888.219	3769.6
893.478	3749.6
898.731	3691.6
903.979	3652.6
909.221	3637.6
914.458	3583.6
919.69	3585.6
924.916	3593.6
930.136	3612.6
935.351	3613.6
940.561	3606.6
945.766	3634.6
950.965	3603.6
956.158	3582.6
961.347	3520.6
966.529	3498.6
971.707	3443.6
976.879	3397.6
982.046	3348.6
987.208	3329.6
992.364	3364.6
997.515	3356.6
1002.66	3378.6
1007.801	3425.6
1012.936	3455.6
1018.066	3427.6
1023.19	3438.6
1028.309	3474.6
1033.423	3458.6
1038.532	3450.6
1043.636	3404.6
1048.734	3378.6
1053.827	3310.6
1058.915	3279.6
1063.998	3276.6
1069.075	3252.6
1074.147	3243.6
1079.214	3272.6
1084.276	3266.6
1089.333	3289.6
1094.385	3289.6
1099.431	3288.6
1104.472	3290.6
1109.509	3291.6
1114.54	3231.6
1119.565	3209.6
1124.586	3161.6
1129.602	3108.6
1134.613	3083.6
1139.618	3074.6
1144.619	3064.6
1149.614	3045.6
1154.604	3089.6
1159.589	3074.6
1164.57	3081.6
1169.545	3088.6
1174.515	3105.6
1179.48	3075.6
1184.44	3035.6
1189.395	3019.6
1194.345	2992.6
1199.29	2965.6
1204.23	2998.6
1209.165	2989.6
1214.095	3019.6
1219.021	3023.6
1223.941	3037.6
1228.856	3066.6
1233.766	3066.6
1238.672	3058.6
1243.572	3056.6
1248.467	3054.6
1253.358	2992.6
1258.244	2936.6
1263.124	2900.6
1268	2836.6
1272.871	2815.6
1277.737	2816.6
1282.599	2790.6
1287.455	2801.6
1292.306	2805.6
1297.153	2790.6
1301.995	2842.6
1306.832	2839.6
1311.664	2860.6
1316.491	2852.6
1321.314	2843.6
1326.132	2845.6
1330.945	2794.6
1335.753	2758.6
1340.556	2735.6
1345.354	2652.6
1350.148	2634.6
1354.937	2587.6
1359.722	2532.6
1364.501	2483.6
1369.276	2472.6
1374.046	2419.6
1378.811	2390.6
1383.572	2372.6
1388.327	2371.6
1393.079	2370.6
1397.825	2389.6
1402.567	2384.6
1407.304	2372.6
1412.036	2399.6
1416.764	2406.6
1421.487	2396.6
1426.205	2407.6
1430.919	2400.6
1435.628	2438.6
1440.333	2452.6
1445.032	2460.6
1449.727	2502.6
1454.418	2498.6
1459.104	2461.6
1463.785	2456.6
1468.462	2414.6
1473.134	2353.6
1477.802	2324.6
1482.465	2258.6
1487.123	2227.6
1491.777	2183.6
1496.426	2155.6
1501.071	2140.6
1505.711	2136.6
1510.347	2125.6
1514.978	2121.6
1519.604	2130.6
1524.226	2108.6
1528.844	2118.6
1533.457	2070.6
1538.065	2070.6
1542.669	2063.6
1547.269	2083.6
1551.864	2065.6
1556.454	2087.6
1561.041	2140.6
1565.622	2142.6
1570.199	2132.6
1574.772	2165.6
1579.34	2174.6
1583.904	2218.6
1588.464	2237.6
1593.019	2217.6
1597.569	2258.6
1602.115	2242.6
1606.657	2237.6
1611.195	2214.6
1615.728	2212.6
1620.256	2198.6
1624.78	2206.6
1629.3	2219.6
1633.816	2226.6
1638.327	2259.6
1642.834	2251.6
1647.336	2246.6
1651.834	2259.6
1656.328	2266.6
1660.817	2263.6
1665.302	2224.6
1669.783	2175.6
1674.259	2149.6
1678.732	2078.6
1683.199	2030.6
1687.663	1976.6
1692.122	1898.6
1696.577	1828.6
1701.028	1732.6
1705.474	1681.6
1709.917	1619.6
1714.355	1593.6
1718.788	1579.6
1723.218	1572.6
1727.643	1588.6
1732.064	1584.6
1736.481	1575.6
1740.893	1503.6
1745.301	1502.6
1749.705	1457.6
1754.105	1441.6
1758.501	1424.6
1762.893	1404.6
1767.28	1375.6
1771.663	1370.6
1776.042	1364.6
1780.417	1333.6
1784.787	1320.6
1789.154	1316.6
1793.516	1306.6
1797.874	1281.6
1802.228	1269.6
1806.578	1262.6
1810.924	1246.6
1815.266	1253.6
1819.603	1226.6
1823.937	1223.6
1828.266	1220.6
1832.591	1224.6
1836.913	1216.6
1841.23	1222.6
1845.543	1221.6
1849.852	1213.6
1854.156	1211.6
1858.457	1223.6
1862.754	1240.6
1867.047	1225.6
1871.335	1222.6
1875.62	1229.6
1879.9	1210.6
1884.177	1218.6
1888.449	1187.6
1892.718	1182.6
1896.982	1177.6
1901.243	1148.6
1905.499	1142.6
1909.752	1118.6
1914	1105.6
1918.245	1102.6
1922.485	1078.6
1926.722	1080.6
1930.954	1069.6
1935.183	1064.6
1939.408	1051.6
1943.628	1032.6
1947.845	1035.6
1952.058	1039.6
1956.267	1025.6
1960.472	1024.6
1964.673	1011.6
1968.87	999.6
1973.063	979.6
1977.252	978.6
1981.438	971.6
1985.619	983.6
1989.797	987.6
1993.971	993.6
1998.14	990.6
2002.306	996.6
2006.469	984.6
2010.627	984.6
2014.781	988.6
2018.932	991.6
2023.078	997.6
2027.221	981.6
2031.36	987.6
2035.495	973.6
2039.627	948.6
2043.754	957.6
2047.878	932.6
2051.998	925.6
2056.114	922.6
2060.226	923.6
2064.334	927.6
2068.439	910.6
2072.54	906.6
2076.637	908.6
2080.73	891.6
2084.82	897.6
2088.906	886.6
2092.988	877.6
2097.066	881.6
2101.14	862.6
2105.211	831.6
2109.278	838.6
2113.342	822.6
2117.401	817.6
2121.457	811.6
2125.509	809.6
2129.558	810.6
2133.602	812.6
2137.643	812.6
2141.681	803.6
2145.714	794.6
2149.744	802.6
2153.77	806.6
2157.793	798.6
2161.812	790.6
2165.827	782.6
2169.838	772.6
2173.846	764.6
2177.851	763.6
2181.851	732.6
2185.848	746.6
2189.841	738.6
2193.831	733.6
2197.817	714.6
2201.799	712.6
2205.778	702.6
2209.753	706.6
2213.725	714.6
2217.693	714.6
2221.657	706.6
2225.618	706.6
2229.575	696.6
2233.529	704.6
2237.479	698.6
2241.425	672.6
2245.368	663.6
2249.307	668.6
2253.243	651.6
2257.175	649.6
2261.104	633.6
2265.029	636.6
2268.95	625.6
2272.868	608.6
2276.783	613.6
2280.694	601.6
2284.601	594.6
2288.505	612.6
2292.405	582.6
2296.302	578.6
2300.195	567.6
2304.085	545.6
2307.971	553.6
2311.854	556.6
2315.734	534.6
2319.609	524.6
2323.482	530.6
2327.351	520.6
2331.216	538.6
2335.078	543.6
2338.937	525.6
2342.792	506.6
2346.643	510.6
2350.492	498.6
2354.336	503.6
2358.178	503.6
2362.015	496.6
2365.85	519.6
2369.681	503.6
2373.508	514.6
2377.333	519.6
2381.153	508.6
2384.971	508.6
2388.785	505.6
2392.595	500.6
2396.402	492.6
2400.206	493.6
2404.007	493.6
2407.804	482.6
2411.597	476.6
2415.388	473.6
2419.174	484.6
2422.958	469.6
2426.738	476.6
2430.515	471.6
2434.289	475.6
2438.059	464.6
2441.825	463.6
2445.589	459.6
2449.349	442.6
2453.106	445.6
2456.859	442.6
2460.61	442.6
2464.356	424.6
2468.1	423.6
2471.84	415.6
2475.577	410.6
2479.311	416.6
2483.041	413.6
2486.768	416.6
2490.492	413.6
2494.213	399.6
2497.93	402.6
2501.644	391.6
2505.355	392.6
2509.062	384.6
2512.766	391.6
2516.467	368.6
2520.165	378.6
2523.859	371.6
2527.551	367.6
2531.239	348.6
2534.923	347.6
2538.605	342.6
2542.283	345.6
2545.958	330.6
2549.63	346.6
2553.299	344.6
2556.964	345.6
2560.626	328.6
2564.285	319.6
2567.941	317.6
2571.594	318.6
2575.243	310.6
2578.89	318.6
2582.533	311.6
2586.173	300.6
2589.809	277.6
2593.443	296.6
2597.073	293.6
2600.701	281.6
2604.325	282.6
2607.946	271.6
2611.564	282.6
2615.178	295.6
2618.79	288.6
2622.398	281.6
2626.004	275.6
2629.606	266.6
2633.205	268.6
2636.801	271.6
2640.394	265.6
2643.983	261.6
2647.57	274.6
2651.153	260.6
2654.734	254.6
2658.311	249.6
2661.885	248.6
2665.456	250.6
2669.025	247.6
2672.589	233.6
2676.151	244.6
2679.71	231.6
2683.266	238.6
2686.819	231.6
2690.368	234.6
2693.915	221.6
2697.458	219.6
2700.999	214.6
2704.536	208.6
2708.071	206.6
2711.602	203.6
2715.13	213.6
2718.656	209.6
2722.178	196.6
2725.697	196.6
2729.214	185.6
2732.727	188.6
2736.237	187.6
2739.744	182.6
2743.249	176.6
2746.75	175.6
2750.248	176.6
2753.743	171.6
2757.236	167.6
2760.725	155.6
2764.211	162.6
2767.695	152.6
2771.175	146.6
2774.652	151.6
2778.127	150.6
2781.598	142.6
2785.067	159.6
2788.532	154.6
2791.995	150.6
2795.455	157.6
2798.911	150.6
2802.365	162.6
2805.816	167.6
2809.264	156.6
2812.709	164.6
2816.151	163.6
2819.59	160.6
2823.026	160.6
2826.46	144.6
2829.89	161.6
2833.318	155.6
2836.742	155.6
2840.164	156.6
2843.583	154.6
2846.999	150.6
2850.412	154.6
2853.822	171.6
2857.229	160.6
2860.634	168.6
2864.035	176.6
2867.434	179.6
2870.83	188.6
2874.223	202.6
2877.613	190.6
2881	209.6
2884.385	214.6
2887.766	204.6
2891.145	201.6
2894.521	201.6
2897.894	217.6
2901.264	220.6
2904.631	210.6
2907.996	217.6
2911.358	224.6
2914.717	219.6
2918.073	222.6
2921.426	239.6
2924.777	236.6
2928.124	245.6
2931.469	237.6
2934.811	249.6
2938.15	257.6
2941.487	266.6
2944.821	265.6
2948.152	270.6
2951.48	273.6
2954.805	264.6
2958.128	259.6
2961.447	252.6
2964.765	260.6
2968.079	259.6
2971.39	265.6
2974.699	268.6
2978.005	264.6
2981.308	273.6
2984.609	269.6
2987.907	263.6
2991.202	264.6
2994.494	266.6
2997.784	272.6
3001.07	276.6
3004.355	299.6
3007.636	299.6
3010.915	289.6
3014.191	296.6
3017.464	307.6
3020.734	293.6
3024.002	301.6
3027.267	317.6
3030.53	318.6
3033.789	334.6
3037.046	337.6
3040.301	335.6
3043.552	349.6
3046.801	354.6
3050.048	367.6
3053.291	383.6
3056.532	393.6
3059.771	416.6
3063.006	423.6
3066.239	436.6
3069.469	448.6
3072.697	462.6
3075.922	481.6
3079.144	491.6
3082.364	500.6
3085.581	518.6
3088.795	522.6
3092.007	522.6
3095.216	536.6
3098.423	543.6
3101.627	571.6
3104.828	571.6
3108.026	589.6
3111.222	592.6
3114.416	611.6
3117.607	631.6
3120.795	630.6
3123.98	644.6
3127.163	648.6
3130.344	677.6
3133.521	688.6
3136.696	701.6
3139.869	723.6
3143.039	732.6
3146.206	733.6
3149.371	746.6
3152.533	753.6
3155.693	770.6
3158.85	786.6
3162.005	783.6
3165.157	795.6
3168.306	783.6
3171.453	781.6
3174.597	790.6
3177.739	793.6
3180.878	814.6
3184.014	807.6
3187.149	818.6
3190.28	804.6
3193.409	828.6
3196.536	811.6
3199.659	820.6
3202.781	829.6
3205.9	822.6
3209.016	839.6
3212.13	832.6
3215.241	840.6
3218.35	814.6
3221.456	813.6
3224.56	798.6
3227.661	791.6
3230.76	780.6
3233.856	773.6
3236.95	761.6
3240.041	752.6
3243.13	740.6
3246.216	718.6
3249.3	718.6
3252.382	709.6
3255.46	712.6
3258.537	698.6
3261.611	690.6
3264.682	684.6
3267.751	684.6
3270.818	672.6
3273.882	675.6
3276.943	660.6
3280.002	660.6
3283.059	668.6
3286.113	646.6
3289.165	661.6
3292.214	650.6
3295.261	630.6
3298.306	622.6
3301.348	621.6
3304.387	621.6
3307.425	613.6
3310.459	607.6
3313.492	596.6
3316.521	584.6
3319.549	588.6
3322.574	580.6
3325.597	569.6
3328.617	576.6
3331.635	572.6
3334.65	565.6
3337.663	565.6
3340.674	570.6
3343.682	564.6
3346.688	559.6
3349.691	559.6
3352.692	562.6
3355.691	552.6
3358.687	538.6
3361.681	549.6
3364.673	546.6
3367.662	529.6
3370.649	536.6
3373.633	520.6
3376.615	500.6
3379.595	503.6
3382.572	497.6
3385.547	490.6
3388.52	486.6
3391.49	469.6
3394.458	475.6
3397.424	451.6
3400.387	439.6
3403.348	439.6
3406.307	413.6
3409.263	436.6
3412.217	422.6
3415.168	415.6
3418.118	415.6
3421.065	408.6
3424.009	401.6
3426.951	388.6
3429.891	375.6
3432.829	363.6
3435.764	368.6
3438.697	359.6
3441.628	347.6
3444.557	339.6
3447.483	328.6
3450.407	305.6
3453.328	297.6
3456.247	288.6
3459.164	276.6
3462.079	275.6
3464.991	259.6
3467.902	245.6
3470.809	237.6
3473.715	217.6
3476.618	214.6
3479.519	203.6
3482.418	196.6
3485.315	187.6
3488.209	178.6
3491.101	179.6
3493.99	166.6
3496.878	157.6
3499.763	140.6
3502.646	140.6
3505.527	141.6
3508.405	132.6
3511.281	119.6
3514.155	105.6
3517.027	100.6
3519.897	88.6
3522.764	79.6
3525.629	67.6
3528.492	61.6
3531.352	56.6
3534.211	43.6
3537.067	38.6
3539.921	41.6
3542.773	19.6
3545.622	22.6
3548.469	14.6
3551.315	18.6
3554.157	0.6
3556.998	-4.4
3559.837	-4.4
3562.673	-11.4
3565.507	-13.4
3568.339	-18.4
3571.169	-29.4
3573.996	-23.4
3576.822	-24.4
3579.645	-35.4
3582.466	-35.4
3585.285	-53.4
3588.101	-45.4
3590.916	-52.4
3593.728	-62.4
3596.538	-60.4
3599.346	-57.4
3602.152	-67.4
3604.956	-68.4
3607.757	-70.4
3610.556	-74.4
3613.354	-72.4
3616.149	-87.4
3618.942	-80.4
3621.732	-82.4
3624.521	-84.4
3627.307	-90.4
3630.092	-93.4
3632.874	-95.4
3635.654	-96.4
3638.432	-94.4
3641.208	-99.4
3643.982	-98.4
3646.753	-105.4
3649.523	-104.4
3652.29	-104.4
3655.055	-108.4
3657.818	-112.4
3660.579	-112.4
3663.338	-112.4
3666.095	-116.4
3668.849	-117.4
3671.602	-116.4
3674.352	-122.4
3677.101	-123.4
3679.847	-126.4
3682.591	-123.4
3685.333	-123.4
3688.073	-128.4
3690.811	-134.4
3693.547	-139.4
3696.281	-131.4
3699.013	-133.4
3701.742	-138.4
3704.47	-137.4
3707.195	-129.4
3709.919	-135.4
3712.64	-138.4
3715.359	-142.4
3718.076	-139.4
3720.792	-143.4
3723.505	-141.4
3726.216	-141.4
3728.925	-146.4
3731.632	-136.4
3734.336	-151.4
3737.039	-149.4
3739.74	-151.4
3742.439	-151.4
3745.136	-143.4
3747.83	-151.4
3750.523	-146.4
3753.213	-153.4
3755.902	-146.4
3758.589	-152.4
3761.273	-144.4
3763.956	-143.4
3766.636	-145.4
3769.315	-140.4
3771.991	-143.4
3774.665	-159.4
3777.338	-149.4
3780.008	-148.4
3782.677	-150.4
3785.343	-148.4
3788.007	-149.4
3790.67	-149.4
3793.33	-146.4
3795.989	-153.4
3798.645	-150.4
3801.299	-152.4
3803.952	-157.4
3806.602	-149.4
3809.251	-153.4
3811.897	-157.4
3814.542	-153.4
3817.184	-150.4
3819.825	-155.4
3822.463	-153.4
3825.1	-151.4
3827.735	-153.4
3830.367	-156.4
3832.998	-160.4
3835.627	-154.4
3838.253	-152.4
3840.878	-152.4
3843.501	-151.4
3846.122	-155.4
3848.741	-158.4
3851.358	-150.4
3853.973	-156.4
3856.586	-157.4
3859.197	-166.4
3861.806	-154.4
3864.414	-152.4
3867.019	-149.4
3869.622	-151.4
3872.224	-139.4
3874.823	-132.4
3877.421	-127.4
3880.016	-99.4
3882.61	-78.4
3885.202	-72.4
3887.792	-87.4
3890.38	-112.4
3892.966	-142.4
3895.55	-149.4
3898.132	-154.4
3900.713	-156.4
3903.291	-161.4
3905.868	-160.4
3908.442	-156.4
3911.015	-159.4
3913.586	-155.4
3916.155	-160.4
3918.722	-158.4
3921.287	-155.4
3923.85	-158.4
3926.411	-163.4
3928.971	-159.4
3931.528	-161.4
3934.084	-149.4
3936.638	-151.4
3939.19	-161.4
3941.74	-159.4
3944.288	-157.4
3946.834	-155.4
3949.378	-161.4
3951.921	-158.4
3954.462	-165.4
3957	-152.4
3959.537	-150.4
3962.072	-160.4
3964.606	-150.4
3967.137	-159.4
3969.667	-159.4
3972.194	-158.4
3974.72	-154.4
3977.244	-156.4
3979.766	-158.4
3982.286	-155.4
3984.805	-158.4
3987.321	-158.4
3989.836	-151.4
3992.349	-158.4
3994.86	-157.4
3997.369	-151.4
3999.877	-156.4
4002.382	-151.4
4004.886	-159.4
4007.388	-155.4
4009.888	-154.4
4012.386	-161.4
4014.883	-157.4
4017.377	-153.4
4019.87	-156.4
4022.361	-155.4
4024.85	-156.4
4027.338	-156.4
4029.823	-152.4
4032.307	-156.4
4034.789	-158.4
4037.269	-155.4
4039.747	-152.4
4042.224	-152.4
4044.699	-157.4
4047.172	-152.4
4049.643	-150.4
4052.112	-157.4
4054.58	-156.4
4057.046	-158.4
4059.51	-159.4
4061.972	-153.4
4064.432	-152.4
4066.891	-152.4
4069.348	-151.4
4071.803	-160.4
4074.256	-161.4
4076.708	-157.4
4079.158	-151.4
4081.606	-148.4
4084.052	-157.4
4086.497	-154.4
4088.939	-146.4
4091.38	-158.4
4093.819	-160.4
4096.257	-165.4
4098.693	-164.4
4101.127	-167.4
4103.559	-161.4
4105.989	-1.4
4108.418	-3.4
4110.845	-6.4
4113.27	-6.4
4115.694	-5.4
4118.115	-8.4
4120.535	-157.4
4122.954	-161.4
4125.37	-153.4
4127.785	-157.4
4130.198	-153.4
4132.609	-154.4
4135.019	-161.4
4137.427	-167.4
4139.833	-164.4
4142.237	-164.4
