Data from 2018-2-8_conc=0_n=5_RamanShift_02.txt Node
Date: Mon Mar 12 13:33:29 IST 2018
User: aro
Spectrometer: QEPB0276
Trigger mode: 0
Integration Time (sec): 3.000000E1
Scans to average: 1
Electric dark correction enabled: true
Nonlinearity correction enabled: false
Boxcar width: 0
XAxis mode: Raman Shifts
Number of Pixels in Spectrum: 1044
>>>>>Begin Spectral Data<<<<<
160.701	16.6
166.742	48.6
172.777	122.6
178.805	353.6
184.826	937.6
190.841	1999.6
196.849	3338.6
202.85	4389.6
208.845	4768.6
214.833	4748.6
220.815	4666.6
226.789	4662.6
232.758	4641.6
238.719	4671.6
244.674	4604.6
250.623	4555.6
256.565	4513.6
262.5	4430.6
268.429	4381.6
274.351	4312.6
280.267	4287.6
286.176	4260.6
292.079	4251.6
297.975	4226.6
303.865	4237.6
309.748	4194.6
315.625	4203.6
321.495	4180.6
327.359	4193.6
333.217	4203.6
339.068	4187.6
344.912	4211.6
350.751	4229.6
356.583	4228.6
362.408	4234.6
368.227	4235.6
374.04	4255.6
379.847	4260.6
385.647	4276.6
391.44	4316.6
397.228	4316.6
403.009	4358.6
408.784	4364.6
414.553	4397.6
420.315	4396.6
426.071	4412.6
431.821	4410.6
437.565	4411.6
443.302	4379.6
449.033	4362.6
454.758	4361.6
460.477	4307.6
466.189	4328.6
471.896	4264.6
477.596	4249.6
483.29	4230.6
488.978	4243.6
494.66	4215.6
500.335	4169.6
506.005	4028.6
511.668	3867.6
517.325	3754.6
522.977	3632.6
528.622	3546.6
534.261	3503.6
539.894	3469.6
545.521	3427.6
551.141	3390.6
556.756	3346.6
562.365	3334.6
567.968	3322.6
573.565	3321.6
579.155	3294.6
584.74	3278.6
590.319	3248.6
595.892	3235.6
601.459	3242.6
607.02	3228.6
612.575	3206.6
618.124	3188.6
623.667	3140.6
629.204	3101.6
634.735	3083.6
640.261	3095.6
645.781	3065.6
651.294	3069.6
656.802	3023.6
662.304	3016.6
667.8	2988.6
673.29	3008.6
678.775	3029.6
684.254	2984.6
689.726	2972.6
695.193	2962.6
700.655	2918.6
706.11	2950.6
711.56	2935.6
717.004	2888.6
722.442	2899.6
727.874	2890.6
733.301	2858.6
738.722	2859.6
744.137	2823.6
749.547	2850.6
754.951	2815.6
760.349	2840.6
765.741	2861.6
771.128	2866.6
776.509	2907.6
781.885	2934.6
787.254	2918.6
792.618	2909.6
797.977	2898.6
803.33	2887.6
808.677	2863.6
814.019	2844.6
819.355	2805.6
824.686	2796.6
830.011	2781.6
835.33	2772.6
840.644	2768.6
845.952	2760.6
851.255	2766.6
856.552	2726.6
861.844	2728.6
867.13	2717.6
872.41	2698.6
877.686	2686.6
882.955	2658.6
888.219	2645.6
893.478	2614.6
898.731	2566.6
903.979	2506.6
909.221	2510.6
914.458	2495.6
919.69	2481.6
924.916	2492.6
930.136	2518.6
935.351	2506.6
940.561	2498.6
945.766	2510.6
950.965	2485.6
956.158	2473.6
961.347	2451.6
966.529	2411.6
971.707	2388.6
976.879	2364.6
982.046	2318.6
987.208	2327.6
992.364	2320.6
997.515	2322.6
1002.66	2345.6
1007.801	2350.6
1012.936	2389.6
1018.066	2394.6
1023.19	2395.6
1028.309	2405.6
1033.423	2404.6
1038.532	2400.6
1043.636	2360.6
1048.734	2351.6
1053.827	2324.6
1058.915	2313.6
1063.998	2271.6
1069.075	2264.6
1074.147	2251.6
1079.214	2273.6
1084.276	2283.6
1089.333	2291.6
1094.385	2294.6
1099.431	2314.6
1104.472	2318.6
1109.509	2288.6
1114.54	2270.6
1119.565	2228.6
1124.586	2199.6
1129.602	2162.6
1134.613	2164.6
1139.618	2128.6
1144.619	2121.6
1149.614	2126.6
1154.604	2123.6
1159.589	2149.6
1164.57	2154.6
1169.545	2157.6
1174.515	2145.6
1179.48	2133.6
1184.44	2120.6
1189.395	2111.6
1194.345	2074.6
1199.29	2080.6
1204.23	2069.6
1209.165	2091.6
1214.095	2085.6
1219.021	2096.6
1223.941	2116.6
1228.856	2101.6
1233.766	2136.6
1238.672	2135.6
1243.572	2118.6
1248.467	2115.6
1253.358	2078.6
1258.244	2059.6
1263.124	2019.6
1268	1978.6
1272.871	1975.6
1277.737	1969.6
1282.599	1944.6
1287.455	1952.6
1292.306	1940.6
1297.153	1943.6
1301.995	1969.6
1306.832	1985.6
1311.664	2003.6
1316.491	1996.6
1321.314	1975.6
1326.132	2005.6
1330.945	1945.6
1335.753	1933.6
1340.556	1899.6
1345.354	1871.6
1350.148	1856.6
1354.937	1816.6
1359.722	1778.6
1364.501	1753.6
1369.276	1718.6
1374.046	1697.6
1378.811	1682.6
1383.572	1659.6
1388.327	1675.6
1393.079	1679.6
1397.825	1668.6
1402.567	1671.6
1407.304	1672.6
1412.036	1682.6
1416.764	1683.6
1421.487	1673.6
1426.205	1680.6
1430.919	1694.6
1435.628	1685.6
1440.333	1713.6
1445.032	1716.6
1449.727	1740.6
1454.418	1752.6
1459.104	1746.6
1463.785	1726.6
1468.462	1707.6
1473.134	1645.6
1477.802	1624.6
1482.465	1578.6
1487.123	1549.6
1491.777	1524.6
1496.426	1510.6
1501.071	1501.6
1505.711	1482.6
1510.347	1496.6
1514.978	1477.6
1519.604	1477.6
1524.226	1479.6
1528.844	1475.6
1533.457	1462.6
1538.065	1448.6
1542.669	1463.6
1547.269	1459.6
1551.864	1477.6
1556.454	1472.6
1561.041	1487.6
1565.622	1496.6
1570.199	1487.6
1574.772	1519.6
1579.34	1537.6
1583.904	1568.6
1588.464	1581.6
1593.019	1558.6
1597.569	1570.6
1602.115	1575.6
1606.657	1563.6
1611.195	1565.6
1615.728	1542.6
1620.256	1552.6
1624.78	1557.6
1629.3	1573.6
1633.816	1565.6
1638.327	1572.6
1642.834	1573.6
1647.336	1584.6
1651.834	1590.6
1656.328	1583.6
1660.817	1581.6
1665.302	1567.6
1669.783	1548.6
1674.259	1479.6
1678.732	1458.6
1683.199	1417.6
1687.663	1368.6
1692.122	1325.6
1696.577	1274.6
1701.028	1217.6
1705.474	1185.6
1709.917	1141.6
1714.355	1123.6
1718.788	1101.6
1723.218	1107.6
1727.643	1103.6
1732.064	1092.6
1736.481	1092.6
1740.893	1071.6
1745.301	1051.6
1749.705	1029.6
1754.105	1011.6
1758.501	1000.6
1762.893	978.6
1767.28	963.6
1771.663	958.6
1776.042	947.6
1780.417	933.6
1784.787	930.6
1789.154	911.6
1793.516	910.6
1797.874	890.6
1802.228	890.6
1806.578	884.6
1810.924	854.6
1815.266	852.6
1819.603	842.6
1823.937	844.6
1828.266	851.6
1832.591	850.6
1836.913	846.6
1841.23	853.6
1845.543	854.6
1849.852	854.6
1854.156	848.6
1858.457	849.6
1862.754	849.6
1867.047	852.6
1871.335	849.6
1875.62	855.6
1879.9	856.6
1884.177	847.6
1888.449	830.6
1892.718	820.6
1896.982	817.6
1901.243	809.6
1905.499	783.6
1909.752	770.6
1914	774.6
1918.245	757.6
1922.485	758.6
1926.722	745.6
1930.954	746.6
1935.183	743.6
1939.408	725.6
1943.628	740.6
1947.845	722.6
1952.058	725.6
1956.267	717.6
1960.472	707.6
1964.673	694.6
1968.87	703.6
1973.063	691.6
1977.252	675.6
1981.438	691.6
1985.619	690.6
1989.797	685.6
1993.971	691.6
1998.14	693.6
2002.306	684.6
2006.469	697.6
2010.627	692.6
2014.781	704.6
2018.932	701.6
2023.078	699.6
2027.221	689.6
2031.36	689.6
2035.495	680.6
2039.627	659.6
2043.754	658.6
2047.878	658.6
2051.998	635.6
2056.114	643.6
2060.226	644.6
2064.334	636.6
2068.439	641.6
2072.54	637.6
2076.637	626.6
2080.73	622.6
2084.82	629.6
2088.906	623.6
2092.988	616.6
2097.066	598.6
2101.14	601.6
2105.211	589.6
2109.278	579.6
2113.342	575.6
2117.401	568.6
2121.457	574.6
2125.509	565.6
2129.558	561.6
2133.602	564.6
2137.643	555.6
2141.681	560.6
2145.714	574.6
2149.744	561.6
2153.77	566.6
2157.793	560.6
2161.812	560.6
2165.827	546.6
2169.838	550.6
2173.846	525.6
2177.851	515.6
2181.851	523.6
2185.848	510.6
2189.841	514.6
2193.831	505.6
2197.817	499.6
2201.799	499.6
2205.778	489.6
2209.753	492.6
2213.725	509.6
2217.693	502.6
2221.657	494.6
2225.618	490.6
2229.575	489.6
2233.529	487.6
2237.479	479.6
2241.425	474.6
2245.368	464.6
2249.307	461.6
2253.243	455.6
2257.175	444.6
2261.104	451.6
2265.029	447.6
2268.95	437.6
2272.868	426.6
2276.783	407.6
2280.694	427.6
2284.601	415.6
2288.505	413.6
2292.405	398.6
2296.302	395.6
2300.195	396.6
2304.085	392.6
2307.971	378.6
2311.854	383.6
2315.734	373.6
2319.609	370.6
2323.482	371.6
2327.351	367.6
2331.216	385.6
2335.078	384.6
2338.937	377.6
2342.792	361.6
2346.643	346.6
2350.492	347.6
2354.336	354.6
2358.178	350.6
2362.015	354.6
2365.85	350.6
2369.681	359.6
2373.508	358.6
2377.333	355.6
2381.153	358.6
2384.971	361.6
2388.785	354.6
2392.595	343.6
2396.402	342.6
2400.206	338.6
2404.007	349.6
2407.804	348.6
2411.597	333.6
2415.388	331.6
2419.174	334.6
2422.958	327.6
2426.738	329.6
2430.515	325.6
2434.289	328.6
2438.059	326.6
2441.825	321.6
2445.589	315.6
2449.349	312.6
2453.106	304.6
2456.859	305.6
2460.61	292.6
2464.356	296.6
2468.1	292.6
2471.84	290.6
2475.577	289.6
2479.311	278.6
2483.041	274.6
2486.768	278.6
2490.492	282.6
2494.213	276.6
2497.93	277.6
2501.644	277.6
2505.355	269.6
2509.062	264.6
2512.766	271.6
2516.467	259.6
2520.165	260.6
2523.859	251.6
2527.551	256.6
2531.239	245.6
2534.923	242.6
2538.605	236.6
2542.283	235.6
2545.958	236.6
2549.63	237.6
2553.299	224.6
2556.964	234.6
2560.626	225.6
2564.285	218.6
2567.941	226.6
2571.594	217.6
2575.243	214.6
2578.89	206.6
2582.533	206.6
2586.173	194.6
2589.809	201.6
2593.443	208.6
2597.073	193.6
2600.701	193.6
2604.325	193.6
2607.946	194.6
2611.564	193.6
2615.178	198.6
2618.79	192.6
2622.398	194.6
2626.004	190.6
2629.606	186.6
2633.205	179.6
2636.801	177.6
2640.394	181.6
2643.983	186.6
2647.57	182.6
2651.153	179.6
2654.734	176.6
2658.311	167.6
2661.885	169.6
2665.456	172.6
2669.025	168.6
2672.589	166.6
2676.151	168.6
2679.71	164.6
2683.266	162.6
2686.819	145.6
2690.368	152.6
2693.915	147.6
2697.458	137.6
2700.999	148.6
2704.536	142.6
2708.071	137.6
2711.602	145.6
2715.13	134.6
2718.656	128.6
2722.178	127.6
2725.697	128.6
2729.214	126.6
2732.727	128.6
2736.237	140.6
2739.744	124.6
2743.249	124.6
2746.75	115.6
2750.248	107.6
2753.743	110.6
2757.236	106.6
2760.725	108.6
2764.211	105.6
2767.695	107.6
2771.175	99.6
2774.652	97.6
2778.127	96.6
2781.598	93.6
2785.067	95.6
2788.532	97.6
2791.995	93.6
2795.455	102.6
2798.911	105.6
2802.365	110.6
2805.816	96.6
2809.264	102.6
2812.709	112.6
2816.151	111.6
2819.59	103.6
2823.026	107.6
2826.46	100.6
2829.89	105.6
2833.318	98.6
2836.742	100.6
2840.164	99.6
2843.583	106.6
2846.999	116.6
2850.412	107.6
2853.822	105.6
2857.229	110.6
2860.634	109.6
2864.035	110.6
2867.434	121.6
2870.83	132.6
2874.223	142.6
2877.613	134.6
2881	156.6
2884.385	152.6
2887.766	142.6
2891.145	137.6
2894.521	145.6
2897.894	155.6
2901.264	147.6
2904.631	150.6
2907.996	152.6
2911.358	154.6
2914.717	154.6
2918.073	157.6
2921.426	168.6
2924.777	171.6
2928.124	173.6
2931.469	176.6
2934.811	188.6
2938.15	183.6
2941.487	197.6
2944.821	192.6
2948.152	190.6
2951.48	187.6
2954.805	200.6
2958.128	189.6
2961.447	175.6
2964.765	175.6
2968.079	185.6
2971.39	177.6
2974.699	183.6
2978.005	185.6
2981.308	192.6
2984.609	193.6
2987.907	177.6
2991.202	193.6
2994.494	185.6
2997.784	188.6
3001.07	188.6
3004.355	205.6
3007.636	197.6
3010.915	200.6
3014.191	197.6
3017.464	213.6
3020.734	198.6
3024.002	205.6
3027.267	225.6
3030.53	218.6
3033.789	231.6
3037.046	236.6
3040.301	241.6
3043.552	249.6
3046.801	249.6
3050.048	252.6
3053.291	263.6
3056.532	276.6
3059.771	289.6
3063.006	300.6
3066.239	309.6
3069.469	321.6
3072.697	324.6
3075.922	334.6
3079.144	349.6
3082.364	354.6
3085.581	361.6
3088.795	368.6
3092.007	379.6
3095.216	374.6
3098.423	388.6
3101.627	404.6
3104.828	405.6
3108.026	406.6
3111.222	427.6
3114.416	438.6
3117.607	449.6
3120.795	457.6
3123.98	456.6
3127.163	479.6
3130.344	485.6
3133.521	498.6
3136.696	507.6
3139.869	507.6
3143.039	521.6
3146.206	521.6
3149.371	549.6
3152.533	555.6
3155.693	547.6
3158.85	562.6
3162.005	555.6
3165.157	561.6
3168.306	562.6
3171.453	568.6
3174.597	573.6
3177.739	573.6
3180.878	583.6
3184.014	590.6
3187.149	573.6
3190.28	584.6
3193.409	573.6
3196.536	602.6
3199.659	594.6
3202.781	599.6
3205.9	600.6
3209.016	602.6
3212.13	591.6
3215.241	589.6
3218.35	590.6
3221.456	568.6
3224.56	571.6
3227.661	552.6
3230.76	558.6
3233.856	543.6
3236.95	533.6
3240.041	531.6
3243.13	509.6
3246.216	504.6
3249.3	503.6
3252.382	501.6
3255.46	506.6
3258.537	494.6
3261.611	485.6
3264.682	480.6
3267.751	472.6
3270.818	467.6
3273.882	463.6
3276.943	476.6
3280.002	474.6
3283.059	476.6
3286.113	449.6
3289.165	454.6
3292.214	446.6
3295.261	435.6
3298.306	442.6
3301.348	435.6
3304.387	419.6
3307.425	429.6
3310.459	424.6
3313.492	414.6
3316.521	411.6
3319.549	406.6
3322.574	405.6
3325.597	399.6
3328.617	402.6
3331.635	404.6
3334.65	403.6
3337.663	393.6
3340.674	400.6
3343.682	396.6
3346.688	392.6
3349.691	402.6
3352.692	392.6
3355.691	386.6
3358.687	386.6
3361.681	394.6
3364.673	382.6
3367.662	384.6
3370.649	365.6
3373.633	354.6
3376.615	338.6
3379.595	345.6
3382.572	340.6
3385.547	336.6
3388.52	332.6
3391.49	336.6
3394.458	328.6
3397.424	310.6
3400.387	312.6
3403.348	301.6
3406.307	306.6
3409.263	290.6
3412.217	290.6
3415.168	294.6
3418.118	294.6
3421.065	269.6
3424.009	273.6
3426.951	279.6
3429.891	263.6
3432.829	263.6
3435.764	258.6
3438.697	255.6
3441.628	236.6
3444.557	231.6
3447.483	219.6
3450.407	202.6
3453.328	198.6
3456.247	198.6
3459.164	195.6
3462.079	179.6
3464.991	173.6
3467.902	161.6
3470.809	158.6
3473.715	146.6
3476.618	131.6
3479.519	136.6
3482.418	136.6
3485.315	115.6
3488.209	119.6
3491.101	106.6
3493.99	114.6
3496.878	96.6
3499.763	92.6
3502.646	81.6
3505.527	81.6
3508.405	81.6
3511.281	78.6
3514.155	64.6
3517.027	60.6
3519.897	55.6
3522.764	44.6
3525.629	37.6
3528.492	28.6
3531.352	24.6
3534.211	18.6
3537.067	21.6
3539.921	11.6
3542.773	7.6
3545.622	1.6
3548.469	-5.4
3551.315	-9.4
3554.157	-15.4
3556.998	-19.4
3559.837	-16.4
3562.673	-18.4
3565.507	-22.4
3568.339	-27.4
3571.169	-36.4
3573.996	-33.4
3576.822	-41.4
3579.645	-34.4
3582.466	-39.4
3585.285	-47.4
3588.101	-35.4
3590.916	-56.4
3593.728	-55.4
3596.538	-56.4
3599.346	-58.4
3602.152	-64.4
3604.956	-63.4
3607.757	-61.4
3610.556	-65.4
3613.354	-62.4
3616.149	-78.4
3618.942	-77.4
3621.732	-75.4
3624.521	-76.4
3627.307	-74.4
3630.092	-73.4
3632.874	-76.4
3635.654	-83.4
3638.432	-79.4
3641.208	-85.4
3643.982	-89.4
3646.753	-93.4
3649.523	-93.4
3652.29	-88.4
3655.055	-92.4
3657.818	-89.4
3660.579	-91.4
3663.338	-97.4
3666.095	-95.4
3668.849	-99.4
3671.602	-98.4
3674.352	-103.4
3677.101	-100.4
3679.847	-99.4
3682.591	-106.4
3685.333	-106.4
3688.073	-104.4
3690.811	-111.4
3693.547	-116.4
3696.281	-108.4
3699.013	-111.4
3701.742	-110.4
3704.47	-111.4
3707.195	-111.4
3709.919	-116.4
3712.64	-118.4
3715.359	-114.4
3718.076	-114.4
3720.792	-112.4
3723.505	-121.4
3726.216	-115.4
3728.925	-117.4
3731.632	-122.4
3734.336	-124.4
3737.039	-122.4
3739.74	-124.4
3742.439	-127.4
3745.136	-110.4
3747.83	-124.4
3750.523	-120.4
3753.213	-122.4
3755.902	-123.4
3758.589	-128.4
3761.273	-118.4
3763.956	-117.4
3766.636	-122.4
3769.315	-120.4
3771.991	-116.4
3774.665	-125.4
3777.338	-119.4
3780.008	-120.4
3782.677	-123.4
3785.343	-118.4
3788.007	-127.4
3790.67	-124.4
3793.33	-122.4
3795.989	-123.4
3798.645	-119.4
3801.299	-125.4
3803.952	-133.4
3806.602	-118.4
3809.251	-131.4
3811.897	-126.4
3814.542	-125.4
3817.184	-125.4
3819.825	-122.4
3822.463	-128.4
3825.1	-128.4
3827.735	-122.4
3830.367	-126.4
3832.998	-126.4
3835.627	-125.4
3838.253	-124.4
3840.878	-121.4
3843.501	-124.4
3846.122	-131.4
3848.741	-129.4
3851.358	-120.4
3853.973	-124.4
3856.586	-125.4
3859.197	-130.4
3861.806	-126.4
3864.414	-129.4
3867.019	-122.4
3869.622	-125.4
3872.224	-114.4
3874.823	-101.4
3877.421	-87.4
3880.016	-60.4
3882.61	-40.4
3885.202	-30.4
3887.792	-58.4
3890.38	-81.4
3892.966	-109.4
3895.55	-116.4
3898.132	-123.4
3900.713	-125.4
3903.291	-128.4
3905.868	-137.4
3908.442	-122.4
3911.015	-130.4
3913.586	-131.4
3916.155	-128.4
3918.722	-130.4
3921.287	-128.4
3923.85	-132.4
3926.411	-133.4
3928.971	-132.4
3931.528	-130.4
3934.084	-126.4
3936.638	-124.4
3939.19	-131.4
3941.74	-135.4
3944.288	-131.4
3946.834	-127.4
3949.378	-128.4
3951.921	-127.4
3954.462	-139.4
3957	-129.4
3959.537	-127.4
3962.072	-133.4
3964.606	-124.4
3967.137	-127.4
3969.667	-126.4
3972.194	-130.4
3974.72	-125.4
3977.244	-131.4
3979.766	-133.4
3982.286	-127.4
3984.805	-132.4
3987.321	-128.4
3989.836	-114.4
3992.349	-127.4
3994.86	-128.4
3997.369	-128.4
3999.877	-128.4
4002.382	-128.4
4004.886	-131.4
4007.388	-129.4
4009.888	-124.4
4012.386	-125.4
4014.883	-126.4
4017.377	-130.4
4019.87	-128.4
4022.361	-129.4
4024.85	-127.4
4027.338	-128.4
4029.823	-128.4
4032.307	-121.4
4034.789	-125.4
4037.269	-130.4
4039.747	-129.4
4042.224	-129.4
4044.699	-136.4
4047.172	-127.4
4049.643	-122.4
4052.112	-130.4
4054.58	-123.4
4057.046	-124.4
4059.51	-132.4
4061.972	-124.4
4064.432	-130.4
4066.891	-128.4
4069.348	-126.4
4071.803	-129.4
4074.256	-125.4
4076.708	-122.4
4079.158	-129.4
4081.606	-122.4
4084.052	-135.4
4086.497	-127.4
4088.939	-122.4
4091.38	-125.4
4093.819	-127.4
4096.257	-133.4
4098.693	-132.4
4101.127	-133.4
4103.559	-133.4
4105.989	21.6
4108.418	13.6
4110.845	15.6
4113.27	9.6
4115.694	2.6
4118.115	4.6
4120.535	-127.4
4122.954	-133.4
4125.37	-127.4
4127.785	-134.4
4130.198	-128.4
4132.609	-126.4
4135.019	-133.4
4137.427	-134.4
4139.833	-137.4
4142.237	-136.4
