Data from 2018-2-8_conc=6_n=3_RamanShift_05.txt Node
Date: Mon Mar 12 16:31:58 IST 2018
User: aro
Spectrometer: QEPB0276
Trigger mode: 0
Integration Time (sec): 3.000000E1
Scans to average: 1
Electric dark correction enabled: true
Nonlinearity correction enabled: false
Boxcar width: 0
XAxis mode: Raman Shifts
Number of Pixels in Spectrum: 1044
>>>>>Begin Spectral Data<<<<<
160.701	17.4
166.742	43.4
172.777	127.4
178.805	398.4
184.826	1117.4
190.841	2384.4
196.849	4011.4
202.85	5254.4
208.845	5747.4
214.833	5752.4
220.815	5657.4
226.789	5611.4
232.758	5607.4
238.719	5612.4
244.674	5560.4
250.623	5494.4
256.565	5432.4
262.5	5338.4
268.429	5290.4
274.351	5209.4
280.267	5179.4
286.176	5144.4
292.079	5136.4
297.975	5083.4
303.865	5099.4
309.748	5070.4
315.625	5043.4
321.495	5017.4
327.359	5002.4
333.217	5026.4
339.068	5031.4
344.912	5009.4
350.751	5012.4
356.583	5045.4
362.408	5027.4
368.227	5025.4
374.04	5042.4
379.847	5058.4
385.647	5111.4
391.44	5114.4
397.228	5176.4
403.009	5160.4
408.784	5207.4
414.553	5243.4
420.315	5230.4
426.071	5221.4
431.821	5220.4
437.565	5205.4
443.302	5204.4
449.033	5225.4
454.758	5160.4
460.477	5141.4
466.189	5119.4
471.896	5081.4
477.596	5084.4
483.29	5033.4
488.978	5062.4
494.66	5034.4
500.335	4963.4
506.005	4829.4
511.668	4719.4
517.325	4554.4
522.977	4478.4
528.622	4376.4
534.261	4340.4
539.894	4315.4
545.521	4259.4
551.141	4224.4
556.756	4201.4
562.365	4180.4
567.968	4166.4
573.565	4133.4
579.155	4111.4
584.74	4101.4
590.319	4075.4
595.892	4070.4
601.459	4056.4
607.02	4053.4
612.575	4014.4
618.124	4013.4
623.667	3943.4
629.204	3902.4
634.735	3869.4
640.261	3839.4
645.781	3830.4
651.294	3829.4
656.802	3854.4
662.304	3797.4
667.8	3796.4
673.29	3817.4
678.775	3757.4
684.254	3751.4
689.726	3746.4
695.193	3766.4
700.655	3716.4
706.11	3700.4
711.56	3669.4
717.004	3673.4
722.442	3647.4
727.874	3608.4
733.301	3623.4
738.722	3620.4
744.137	3598.4
749.547	3589.4
754.951	3583.4
760.349	3564.4
765.741	3583.4
771.128	3586.4
776.509	3600.4
781.885	3650.4
787.254	3633.4
792.618	3651.4
797.977	3614.4
803.33	3586.4
808.677	3578.4
814.019	3559.4
819.355	3510.4
824.686	3495.4
830.011	3471.4
835.33	3457.4
840.644	3459.4
845.952	3477.4
851.255	3465.4
856.552	3452.4
861.844	3421.4
867.13	3410.4
872.41	3382.4
877.686	3363.4
882.955	3353.4
888.219	3310.4
893.478	3277.4
898.731	3240.4
903.979	3180.4
909.221	3169.4
914.458	3157.4
919.69	3142.4
924.916	3145.4
930.136	3154.4
935.351	3159.4
940.561	3164.4
945.766	3157.4
950.965	3136.4
956.158	3129.4
961.347	3094.4
966.529	3058.4
971.707	3004.4
976.879	2966.4
982.046	2943.4
987.208	2927.4
992.364	2935.4
997.515	2946.4
1002.66	2969.4
1007.801	2988.4
1012.936	3008.4
1018.066	3015.4
1023.19	3007.4
1028.309	3023.4
1033.423	3031.4
1038.532	3017.4
1043.636	2998.4
1048.734	2937.4
1053.827	2919.4
1058.915	2862.4
1063.998	2872.4
1069.075	2846.4
1074.147	2854.4
1079.214	2848.4
1084.276	2848.4
1089.333	2859.4
1094.385	2899.4
1099.431	2877.4
1104.472	2894.4
1109.509	2871.4
1114.54	2838.4
1119.565	2798.4
1124.586	2759.4
1129.602	2722.4
1134.613	2702.4
1139.618	2686.4
1144.619	2707.4
1149.614	2685.4
1154.604	2687.4
1159.589	2679.4
1164.57	2704.4
1169.545	2726.4
1174.515	2701.4
1179.48	2684.4
1184.44	2680.4
1189.395	2659.4
1194.345	2626.4
1199.29	2633.4
1204.23	2621.4
1209.165	2601.4
1214.095	2634.4
1219.021	2639.4
1223.941	2659.4
1228.856	2650.4
1233.766	2673.4
1238.672	2686.4
1243.572	2681.4
1248.467	2653.4
1253.358	2621.4
1258.244	2580.4
1263.124	2539.4
1268	2490.4
1272.871	2496.4
1277.737	2459.4
1282.599	2443.4
1287.455	2440.4
1292.306	2456.4
1297.153	2459.4
1301.995	2449.4
1306.832	2480.4
1311.664	2501.4
1316.491	2508.4
1321.314	2494.4
1326.132	2492.4
1330.945	2473.4
1335.753	2398.4
1340.556	2387.4
1345.354	2353.4
1350.148	2319.4
1354.937	2266.4
1359.722	2244.4
1364.501	2207.4
1369.276	2170.4
1374.046	2125.4
1378.811	2111.4
1383.572	2116.4
1388.327	2100.4
1393.079	2083.4
1397.825	2088.4
1402.567	2101.4
1407.304	2109.4
1412.036	2113.4
1416.764	2094.4
1421.487	2128.4
1426.205	2113.4
1430.919	2106.4
1435.628	2112.4
1440.333	2138.4
1445.032	2187.4
1449.727	2158.4
1454.418	2183.4
1459.104	2175.4
1463.785	2174.4
1468.462	2108.4
1473.134	2084.4
1477.802	2035.4
1482.465	1984.4
1487.123	1963.4
1491.777	1935.4
1496.426	1925.4
1501.071	1906.4
1505.711	1898.4
1510.347	1894.4
1514.978	1873.4
1519.604	1894.4
1524.226	1890.4
1528.844	1858.4
1533.457	1856.4
1538.065	1854.4
1542.669	1866.4
1547.269	1849.4
1551.864	1838.4
1556.454	1868.4
1561.041	1895.4
1565.622	1878.4
1570.199	1905.4
1574.772	1900.4
1579.34	1938.4
1583.904	1947.4
1588.464	1969.4
1593.019	1971.4
1597.569	1984.4
1602.115	1979.4
1606.657	1974.4
1611.195	1958.4
1615.728	1959.4
1620.256	1976.4
1624.78	1941.4
1629.3	1954.4
1633.816	1962.4
1638.327	1974.4
1642.834	1996.4
1647.336	1995.4
1651.834	2007.4
1656.328	2007.4
1660.817	1991.4
1665.302	1991.4
1669.783	1932.4
1674.259	1914.4
1678.732	1863.4
1683.199	1817.4
1687.663	1738.4
1692.122	1710.4
1696.577	1616.4
1701.028	1549.4
1705.474	1506.4
1709.917	1460.4
1714.355	1434.4
1718.788	1401.4
1723.218	1425.4
1727.643	1404.4
1732.064	1395.4
1736.481	1401.4
1740.893	1364.4
1745.301	1331.4
1749.705	1314.4
1754.105	1288.4
1758.501	1270.4
1762.893	1256.4
1767.28	1237.4
1771.663	1214.4
1776.042	1210.4
1780.417	1194.4
1784.787	1191.4
1789.154	1178.4
1793.516	1164.4
1797.874	1144.4
1802.228	1139.4
1806.578	1130.4
1810.924	1120.4
1815.266	1101.4
1819.603	1105.4
1823.937	1088.4
1828.266	1103.4
1832.591	1212.4
1836.913	1096.4
1841.23	1114.4
1845.543	1087.4
1849.852	1079.4
1854.156	1092.4
1858.457	1097.4
1862.754	1109.4
1867.047	1092.4
1871.335	1096.4
1875.62	1086.4
1879.9	1088.4
1884.177	1083.4
1888.449	1056.4
1892.718	1057.4
1896.982	1039.4
1901.243	1036.4
1905.499	1027.4
1909.752	1020.4
1914	994.4
1918.245	1001.4
1922.485	962.4
1926.722	954.4
1930.954	968.4
1935.183	963.4
1939.408	957.4
1943.628	940.4
1947.845	933.4
1952.058	925.4
1956.267	932.4
1960.472	907.4
1964.673	907.4
1968.87	911.4
1973.063	897.4
1977.252	879.4
1981.438	894.4
1985.619	888.4
1989.797	883.4
1993.971	896.4
1998.14	896.4
2002.306	892.4
2006.469	899.4
2010.627	902.4
2014.781	909.4
2018.932	895.4
2023.078	904.4
2027.221	888.4
2031.36	884.4
2035.495	870.4
2039.627	863.4
2043.754	847.4
2047.878	832.4
2051.998	821.4
2056.114	832.4
2060.226	823.4
2064.334	816.4
2068.439	820.4
2072.54	811.4
2076.637	819.4
2080.73	809.4
2084.82	806.4
2088.906	797.4
2092.988	800.4
2097.066	788.4
2101.14	774.4
2105.211	764.4
2109.278	753.4
2113.342	756.4
2117.401	737.4
2121.457	729.4
2125.509	718.4
2129.558	737.4
2133.602	723.4
2137.643	729.4
2141.681	736.4
2145.714	726.4
2149.744	728.4
2153.77	735.4
2157.793	719.4
2161.812	712.4
2165.827	704.4
2169.838	702.4
2173.846	676.4
2177.851	669.4
2181.851	659.4
2185.848	659.4
2189.841	655.4
2193.831	654.4
2197.817	649.4
2201.799	637.4
2205.778	642.4
2209.753	633.4
2213.725	635.4
2217.693	647.4
2221.657	643.4
2225.618	644.4
2229.575	622.4
2233.529	618.4
2237.479	637.4
2241.425	612.4
2245.368	594.4
2249.307	583.4
2253.243	587.4
2257.175	576.4
2261.104	564.4
2265.029	562.4
2268.95	559.4
2272.868	546.4
2276.783	534.4
2280.694	517.4
2284.601	520.4
2288.505	525.4
2292.405	524.4
2296.302	503.4
2300.195	508.4
2304.085	504.4
2307.971	480.4
2311.854	484.4
2315.734	470.4
2319.609	469.4
2323.482	466.4
2327.351	465.4
2331.216	469.4
2335.078	478.4
2338.937	465.4
2342.792	440.4
2346.643	448.4
2350.492	436.4
2354.336	449.4
2358.178	445.4
2362.015	444.4
2365.85	455.4
2369.681	451.4
2373.508	446.4
2377.333	453.4
2381.153	446.4
2384.971	461.4
2388.785	448.4
2392.595	444.4
2396.402	434.4
2400.206	428.4
2404.007	430.4
2407.804	424.4
2411.597	420.4
2415.388	419.4
2419.174	423.4
2422.958	425.4
2426.738	420.4
2430.515	417.4
2434.289	407.4
2438.059	406.4
2441.825	407.4
2445.589	403.4
2449.349	393.4
2453.106	399.4
2456.859	384.4
2460.61	382.4
2464.356	377.4
2468.1	375.4
2471.84	366.4
2475.577	367.4
2479.311	360.4
2483.041	356.4
2486.768	359.4
2490.492	351.4
2494.213	356.4
2497.93	352.4
2501.644	349.4
2505.355	341.4
2509.062	337.4
2512.766	339.4
2516.467	338.4
2520.165	326.4
2523.859	334.4
2527.551	313.4
2531.239	318.4
2534.923	308.4
2538.605	305.4
2542.283	296.4
2545.958	301.4
2549.63	298.4
2553.299	292.4
2556.964	301.4
2560.626	284.4
2564.285	270.4
2567.941	281.4
2571.594	291.4
2575.243	280.4
2578.89	274.4
2582.533	275.4
2586.173	269.4
2589.809	257.4
2593.443	266.4
2597.073	260.4
2600.701	257.4
2604.325	248.4
2607.946	247.4
2611.564	241.4
2615.178	258.4
2618.79	247.4
2622.398	252.4
2626.004	244.4
2629.606	242.4
2633.205	238.4
2636.801	235.4
2640.394	230.4
2643.983	236.4
2647.57	234.4
2651.153	227.4
2654.734	225.4
2658.311	223.4
2661.885	213.4
2665.456	215.4
2669.025	225.4
2672.589	220.4
2676.151	208.4
2679.71	208.4
2683.266	202.4
2686.819	205.4
2690.368	198.4
2693.915	190.4
2697.458	187.4
2700.999	191.4
2704.536	188.4
2708.071	184.4
2711.602	179.4
2715.13	178.4
2718.656	172.4
2722.178	167.4
2725.697	168.4
2729.214	161.4
2732.727	174.4
2736.237	161.4
2739.744	159.4
2743.249	162.4
2746.75	157.4
2750.248	154.4
2753.743	157.4
2757.236	135.4
2760.725	146.4
2764.211	138.4
2767.695	138.4
2771.175	129.4
2774.652	135.4
2778.127	140.4
2781.598	131.4
2785.067	139.4
2788.532	140.4
2791.995	139.4
2795.455	145.4
2798.911	134.4
2802.365	135.4
2805.816	149.4
2809.264	139.4
2812.709	141.4
2816.151	139.4
2819.59	140.4
2823.026	149.4
2826.46	135.4
2829.89	138.4
2833.318	136.4
2836.742	141.4
2840.164	138.4
2843.583	138.4
2846.999	144.4
2850.412	140.4
2853.822	141.4
2857.229	140.4
2860.634	152.4
2864.035	155.4
2867.434	153.4
2870.83	162.4
2874.223	181.4
2877.613	181.4
2881	191.4
2884.385	190.4
2887.766	176.4
2891.145	172.4
2894.521	182.4
2897.894	187.4
2901.264	187.4
2904.631	193.4
2907.996	188.4
2911.358	188.4
2914.717	198.4
2918.073	196.4
2921.426	203.4
2924.777	208.4
2928.124	221.4
2931.469	219.4
2934.811	231.4
2938.15	234.4
2941.487	235.4
2944.821	238.4
2948.152	233.4
2951.48	239.4
2954.805	243.4
2958.128	239.4
2961.447	225.4
2964.765	237.4
2968.079	233.4
2971.39	235.4
2974.699	236.4
2978.005	237.4
2981.308	248.4
2984.609	243.4
2987.907	235.4
2991.202	250.4
2994.494	240.4
2997.784	246.4
3001.07	254.4
3004.355	259.4
3007.636	254.4
3010.915	258.4
3014.191	259.4
3017.464	273.4
3020.734	267.4
3024.002	273.4
3027.267	287.4
3030.53	282.4
3033.789	293.4
3037.046	298.4
3040.301	296.4
3043.552	330.4
3046.801	325.4
3050.048	336.4
3053.291	336.4
3056.532	355.4
3059.771	378.4
3063.006	381.4
3066.239	389.4
3069.469	409.4
3072.697	416.4
3075.922	422.4
3079.144	436.4
3082.364	451.4
3085.581	461.4
3088.795	472.4
3092.007	474.4
3095.216	483.4
3098.423	485.4
3101.627	514.4
3104.828	520.4
3108.026	511.4
3111.222	535.4
3114.416	548.4
3117.607	560.4
3120.795	572.4
3123.98	574.4
3127.163	602.4
3130.344	626.4
3133.521	625.4
3136.696	636.4
3139.869	652.4
3143.039	663.4
3146.206	657.4
3149.371	674.4
3152.533	683.4
3155.693	694.4
3158.85	702.4
3162.005	692.4
3165.157	713.4
3168.306	701.4
3171.453	707.4
3174.597	724.4
3177.739	713.4
3180.878	724.4
3184.014	732.4
3187.149	744.4
3190.28	741.4
3193.409	753.4
3196.536	748.4
3199.659	757.4
3202.781	745.4
3205.9	752.4
3209.016	753.4
3212.13	749.4
3215.241	744.4
3218.35	737.4
3221.456	731.4
3224.56	727.4
3227.661	714.4
3230.76	704.4
3233.856	684.4
3236.95	684.4
3240.041	680.4
3243.13	659.4
3246.216	653.4
3249.3	646.4
3252.382	642.4
3255.46	647.4
3258.537	632.4
3261.611	620.4
3264.682	616.4
3267.751	616.4
3270.818	614.4
3273.882	602.4
3276.943	599.4
3280.002	601.4
3283.059	596.4
3286.113	592.4
3289.165	590.4
3292.214	574.4
3295.261	571.4
3298.306	557.4
3301.348	558.4
3304.387	544.4
3307.425	542.4
3310.459	540.4
3313.492	526.4
3316.521	523.4
3319.549	522.4
3322.574	523.4
3325.597	508.4
3328.617	512.4
3331.635	503.4
3334.65	508.4
3337.663	503.4
3340.674	503.4
3343.682	508.4
3346.688	510.4
3349.691	500.4
3352.692	498.4
3355.691	504.4
3358.687	488.4
3361.681	487.4
3364.673	487.4
3367.662	472.4
3370.649	463.4
3373.633	468.4
3376.615	448.4
3379.595	445.4
3382.572	445.4
3385.547	445.4
3388.52	437.4
3391.49	432.4
3394.458	416.4
3397.424	403.4
3400.387	397.4
3403.348	397.4
3406.307	378.4
3409.263	384.4
3412.217	375.4
3415.168	380.4
3418.118	374.4
3421.065	360.4
3424.009	363.4
3426.951	354.4
3429.891	348.4
3432.829	337.4
3435.764	322.4
3438.697	312.4
3441.628	313.4
3444.557	309.4
3447.483	289.4
3450.407	279.4
3453.328	267.4
3456.247	261.4
3459.164	238.4
3462.079	237.4
3464.991	234.4
3467.902	219.4
3470.809	228.4
3473.715	194.4
3476.618	189.4
3479.519	190.4
3482.418	178.4
3485.315	166.4
3488.209	166.4
3491.101	155.4
3493.99	159.4
3496.878	140.4
3499.763	131.4
3502.646	123.4
3505.527	120.4
3508.405	110.4
3511.281	104.4
3514.155	96.4
3517.027	97.4
3519.897	84.4
3522.764	69.4
3525.629	63.4
3528.492	60.4
3531.352	50.4
3534.211	38.4
3537.067	44.4
3539.921	38.4
3542.773	21.4
3545.622	17.4
3548.469	11.4
3551.315	13.4
3554.157	8.4
3556.998	-0.6
3559.837	-5.6
3562.673	-5.6
3565.507	-11.6
3568.339	-15.6
3571.169	-27.6
3573.996	-25.6
3576.822	-23.6
3579.645	-24.6
3582.466	-26.6
3585.285	-38.6
3588.101	-39.6
3590.916	-47.6
3593.728	-58.6
3596.538	-51.6
3599.346	-55.6
3602.152	-50.6
3604.956	-55.6
3607.757	-54.6
3610.556	-64.6
3613.354	-63.6
3616.149	-81.6
3618.942	-75.6
3621.732	-79.6
3624.521	-75.6
3627.307	-72.6
3630.092	-77.6
3632.874	-79.6
3635.654	-89.6
3638.432	-85.6
3641.208	-84.6
3643.982	-90.6
3646.753	-90.6
3649.523	-99.6
3652.29	-88.6
3655.055	-93.6
3657.818	-100.6
3660.579	-96.6
3663.338	-101.6
3666.095	-102.6
3668.849	-101.6
3671.602	-104.6
3674.352	-108.6
3677.101	-111.6
3679.847	-113.6
3682.591	-107.6
3685.333	-107.6
3688.073	-110.6
3690.811	-113.6
3693.547	-119.6
3696.281	-114.6
3699.013	-120.6
3701.742	-125.6
3704.47	-118.6
3707.195	-119.6
3709.919	-119.6
3712.64	-117.6
3715.359	-123.6
3718.076	-124.6
3720.792	-125.6
3723.505	-131.6
3726.216	-125.6
3728.925	-123.6
3731.632	-122.6
3734.336	-135.6
3737.039	-125.6
3739.74	-131.6
3742.439	-134.6
3745.136	-127.6
3747.83	-138.6
3750.523	-127.6
3753.213	-136.6
3755.902	-128.6
3758.589	-129.6
3761.273	-130.6
3763.956	-130.6
3766.636	-132.6
3769.315	-126.6
3771.991	-130.6
3774.665	-132.6
3777.338	-128.6
3780.008	-127.6
3782.677	-134.6
3785.343	-131.6
3788.007	-135.6
3790.67	-131.6
3793.33	-128.6
3795.989	-134.6
3798.645	-124.6
3801.299	-138.6
3803.952	-139.6
3806.602	-131.6
3809.251	-140.6
3811.897	-137.6
3814.542	-140.6
3817.184	-130.6
3819.825	-133.6
3822.463	-134.6
3825.1	-135.6
3827.735	-139.6
3830.367	-138.6
3832.998	-138.6
3835.627	-134.6
3838.253	-131.6
3840.878	-134.6
3843.501	-133.6
3846.122	-138.6
3848.741	-142.6
3851.358	-132.6
3853.973	-136.6
3856.586	-136.6
3859.197	-134.6
3861.806	-133.6
3864.414	-142.6
3867.019	-131.6
3869.622	-139.6
3872.224	-125.6
3874.823	-117.6
3877.421	-111.6
3880.016	-90.6
3882.61	-79.6
3885.202	-79.6
3887.792	-94.6
3890.38	-108.6
3892.966	-130.6
3895.55	-131.6
3898.132	-135.6
3900.713	-137.6
3903.291	-145.6
3905.868	-142.6
3908.442	-138.6
3911.015	-140.6
3913.586	-134.6
3916.155	-141.6
3918.722	-141.6
3921.287	-139.6
3923.85	-141.6
3926.411	-143.6
3928.971	-137.6
3931.528	-137.6
3934.084	-132.6
3936.638	-136.6
3939.19	-141.6
3941.74	-143.6
3944.288	-142.6
3946.834	-141.6
3949.378	-137.6
3951.921	-137.6
3954.462	-146.6
3957	-138.6
3959.537	-138.6
3962.072	-140.6
3964.606	-141.6
3967.137	-136.6
3969.667	-135.6
3972.194	-143.6
3974.72	-136.6
3977.244	-138.6
3979.766	-145.6
3982.286	-138.6
3984.805	-137.6
3987.321	-134.6
3989.836	-127.6
3992.349	-140.6
3994.86	-139.6
3997.369	-149.6
3999.877	-140.6
4002.382	-132.6
4004.886	-141.6
4007.388	-134.6
4009.888	-134.6
4012.386	-140.6
4014.883	-140.6
4017.377	-140.6
4019.87	-140.6
4022.361	-136.6
4024.85	-136.6
4027.338	-137.6
4029.823	-140.6
4032.307	-134.6
4034.789	-143.6
4037.269	-138.6
4039.747	-134.6
4042.224	-133.6
4044.699	-135.6
4047.172	-132.6
4049.643	-134.6
4052.112	-138.6
4054.58	-143.6
4057.046	-140.6
4059.51	-142.6
4061.972	-132.6
4064.432	-133.6
4066.891	-134.6
4069.348	-138.6
4071.803	-143.6
4074.256	-136.6
4076.708	-137.6
4079.158	-133.6
4081.606	-134.6
4084.052	-139.6
4086.497	-135.6
4088.939	-127.6
4091.38	-140.6
4093.819	-139.6
4096.257	-145.6
4098.693	-139.6
4101.127	-144.6
4103.559	-142.6
4105.989	-2.6
4108.418	-15.6
4110.845	-8.6
4113.27	-12.6
4115.694	-12.6
4118.115	-13.6
4120.535	-142.6
4122.954	-139.6
4125.37	-132.6
4127.785	-136.6
4130.198	-136.6
4132.609	-132.6
4135.019	-144.6
4137.427	-150.6
4139.833	-145.6
4142.237	-145.6
