Data from 2018-2-8_conc=4_n=10_RamanShift_05.txt Node
Date: Mon Mar 12 15:41:58 IST 2018
User: aro
Spectrometer: QEPB0276
Trigger mode: 0
Integration Time (sec): 3.000000E1
Scans to average: 1
Electric dark correction enabled: true
Nonlinearity correction enabled: false
Boxcar width: 0
XAxis mode: Raman Shifts
Number of Pixels in Spectrum: 1044
>>>>>Begin Spectral Data<<<<<
160.701	5.2
166.742	41.2
172.777	135.2
178.805	429.2
184.826	1202.2
190.841	2598.2
196.849	4277.2
202.85	5625.2
208.845	6160.2
214.833	6154.2
220.815	6075.2
226.789	6045.2
232.758	6069.2
238.719	6036.2
244.674	5977.2
250.623	5936.2
256.565	5804.2
262.5	5744.2
268.429	5685.2
274.351	5597.2
280.267	5530.2
286.176	5541.2
292.079	5509.2
297.975	5473.2
303.865	5444.2
309.748	5420.2
315.625	5410.2
321.495	5393.2
327.359	5381.2
333.217	5350.2
339.068	5379.2
344.912	5372.2
350.751	5386.2
356.583	5385.2
362.408	5385.2
368.227	5381.2
374.04	5407.2
379.847	5445.2
385.647	5458.2
391.44	5456.2
397.228	5490.2
403.009	5522.2
408.784	5530.2
414.553	5539.2
420.315	5556.2
426.071	5550.2
431.821	5552.2
437.565	5579.2
443.302	5541.2
449.033	5542.2
454.758	5527.2
460.477	5519.2
466.189	5485.2
471.896	5451.2
477.596	5418.2
483.29	5384.2
488.978	5372.2
494.66	5351.2
500.335	5300.2
506.005	5205.2
511.668	5089.2
517.325	4970.2
522.977	4835.2
528.622	4734.2
534.261	4703.2
539.894	4678.2
545.521	4647.2
551.141	4620.2
556.756	4584.2
562.365	4553.2
567.968	4552.2
573.565	4463.2
579.155	4478.2
584.74	4504.2
590.319	4457.2
595.892	4469.2
601.459	4418.2
607.02	4405.2
612.575	4376.2
618.124	4351.2
623.667	4283.2
629.204	4256.2
634.735	4233.2
640.261	4216.2
645.781	4195.2
651.294	4171.2
656.802	4208.2
662.304	4169.2
667.8	4112.2
673.29	4158.2
678.775	4145.2
684.254	4123.2
689.726	4139.2
695.193	4113.2
700.655	4066.2
706.11	4035.2
711.56	4012.2
717.004	4009.2
722.442	3977.2
727.874	3943.2
733.301	3945.2
738.722	3945.2
744.137	3931.2
749.547	3919.2
754.951	3900.2
760.349	3906.2
765.741	3917.2
771.128	3917.2
776.509	3942.2
781.885	3977.2
787.254	3948.2
792.618	3946.2
797.977	3956.2
803.33	3929.2
808.677	3883.2
814.019	3889.2
819.355	3814.2
824.686	3808.2
830.011	3802.2
835.33	3793.2
840.644	3773.2
845.952	3756.2
851.255	3781.2
856.552	3753.2
861.844	3725.2
867.13	3724.2
872.41	3693.2
877.686	3678.2
882.955	3629.2
888.219	3632.2
893.478	3594.2
898.731	3542.2
903.979	3491.2
909.221	3459.2
914.458	3453.2
919.69	3461.2
924.916	3440.2
930.136	3460.2
935.351	3471.2
940.561	3465.2
945.766	3466.2
950.965	3460.2
956.158	3439.2
961.347	3397.2
966.529	3353.2
971.707	3282.2
976.879	3267.2
982.046	3233.2
987.208	3210.2
992.364	3211.2
997.515	3225.2
1002.66	3232.2
1007.801	3284.2
1012.936	3286.2
1018.066	3319.2
1023.19	3283.2
1028.309	3300.2
1033.423	3282.2
1038.532	3296.2
1043.636	3255.2
1048.734	3230.2
1053.827	3200.2
1058.915	3126.2
1063.998	3119.2
1069.075	3144.2
1074.147	3119.2
1079.214	3136.2
1084.276	3117.2
1089.333	3150.2
1094.385	3183.2
1099.431	3173.2
1104.472	3156.2
1109.509	3149.2
1114.54	3104.2
1119.565	3056.2
1124.586	3000.2
1129.602	2985.2
1134.613	2959.2
1139.618	2925.2
1144.619	2943.2
1149.614	2935.2
1154.604	2956.2
1159.589	2958.2
1164.57	2976.2
1169.545	2958.2
1174.515	2967.2
1179.48	2940.2
1184.44	2917.2
1189.395	2908.2
1194.345	2883.2
1199.29	2849.2
1204.23	2877.2
1209.165	2877.2
1214.095	2884.2
1219.021	2879.2
1223.941	2908.2
1228.856	2905.2
1233.766	2955.2
1238.672	2955.2
1243.572	2912.2
1248.467	2921.2
1253.358	2883.2
1258.244	2851.2
1263.124	2796.2
1268	2754.2
1272.871	2727.2
1277.737	2693.2
1282.599	2686.2
1287.455	2661.2
1292.306	2681.2
1297.153	2687.2
1301.995	2720.2
1306.832	2729.2
1311.664	2734.2
1316.491	2737.2
1321.314	2748.2
1326.132	2721.2
1330.945	2703.2
1335.753	2660.2
1340.556	2609.2
1345.354	2579.2
1350.148	2526.2
1354.937	2489.2
1359.722	2459.2
1364.501	2411.2
1369.276	2368.2
1374.046	2334.2
1378.811	2273.2
1383.572	2308.2
1388.327	2291.2
1393.079	2314.2
1397.825	2291.2
1402.567	2276.2
1407.304	2322.2
1412.036	2298.2
1416.764	2339.2
1421.487	2304.2
1426.205	2304.2
1430.919	2321.2
1435.628	2321.2
1440.333	2371.2
1445.032	2383.2
1449.727	2391.2
1454.418	2399.2
1459.104	2403.2
1463.785	2364.2
1468.462	2328.2
1473.134	2283.2
1477.802	2224.2
1482.465	2188.2
1487.123	2142.2
1491.777	2107.2
1496.426	2098.2
1501.071	2065.2
1505.711	2051.2
1510.347	2071.2
1514.978	2052.2
1519.604	2039.2
1524.226	2045.2
1528.844	2044.2
1533.457	2026.2
1538.065	2001.2
1542.669	2015.2
1547.269	2015.2
1551.864	2020.2
1556.454	2027.2
1561.041	2051.2
1565.622	2060.2
1570.199	2063.2
1574.772	2078.2
1579.34	2098.2
1583.904	2134.2
1588.464	2144.2
1593.019	2150.2
1597.569	2153.2
1602.115	2148.2
1606.657	2141.2
1611.195	2122.2
1615.728	2100.2
1620.256	2119.2
1624.78	2129.2
1629.3	2129.2
1633.816	2139.2
1638.327	2155.2
1642.834	2159.2
1647.336	2187.2
1651.834	2176.2
1656.328	2172.2
1660.817	2176.2
1665.302	2147.2
1669.783	2117.2
1674.259	2078.2
1678.732	2016.2
1683.199	1955.2
1687.663	1901.2
1692.122	1847.2
1696.577	1771.2
1701.028	1694.2
1705.474	1625.2
1709.917	1581.2
1714.355	1544.2
1718.788	1528.2
1723.218	1533.2
1727.643	1529.2
1732.064	1542.2
1736.481	1542.2
1740.893	1492.2
1745.301	1452.2
1749.705	1409.2
1754.105	1408.2
1758.501	1381.2
1762.893	1363.2
1767.28	1346.2
1771.663	1327.2
1776.042	1329.2
1780.417	1303.2
1784.787	1294.2
1789.154	1282.2
1793.516	1271.2
1797.874	1242.2
1802.228	1229.2
1806.578	1227.2
1810.924	1205.2
1815.266	1206.2
1819.603	1198.2
1823.937	1193.2
1828.266	1190.2
1832.591	1176.2
1836.913	1188.2
1841.23	1194.2
1845.543	1181.2
1849.852	1195.2
1854.156	1181.2
1858.457	1198.2
1862.754	1198.2
1867.047	1192.2
1871.335	1184.2
1875.62	1203.2
1879.9	1191.2
1884.177	1184.2
1888.449	1166.2
1892.718	1152.2
1896.982	1147.2
1901.243	1109.2
1905.499	1114.2
1909.752	1103.2
1914	1093.2
1918.245	1087.2
1922.485	1066.2
1926.722	1041.2
1930.954	1042.2
1935.183	1050.2
1939.408	1039.2
1943.628	1038.2
1947.845	1019.2
1952.058	1011.2
1956.267	996.2
1960.472	990.2
1964.673	989.2
1968.87	968.2
1973.063	968.2
1977.252	967.2
1981.438	969.2
1985.619	961.2
1989.797	959.2
1993.971	959.2
1998.14	971.2
2002.306	970.2
2006.469	968.2
2010.627	968.2
2014.781	984.2
2018.932	973.2
2023.078	979.2
2027.221	959.2
2031.36	948.2
2035.495	916.2
2039.627	925.2
2043.754	905.2
2047.878	909.2
2051.998	924.2
2056.114	890.2
2060.226	903.2
2064.334	881.2
2068.439	893.2
2072.54	879.2
2076.637	877.2
2080.73	890.2
2084.82	877.2
2088.906	862.2
2092.988	864.2
2097.066	842.2
2101.14	837.2
2105.211	832.2
2109.278	812.2
2113.342	802.2
2117.401	799.2
2121.457	808.2
2125.509	785.2
2129.558	795.2
2133.602	790.2
2137.643	789.2
2141.681	783.2
2145.714	779.2
2149.744	779.2
2153.77	784.2
2157.793	777.2
2161.812	770.2
2165.827	757.2
2169.838	747.2
2173.846	735.2
2177.851	737.2
2181.851	720.2
2185.848	728.2
2189.841	707.2
2193.831	713.2
2197.817	704.2
2201.799	691.2
2205.778	694.2
2209.753	686.2
2213.725	684.2
2217.693	682.2
2221.657	681.2
2225.618	678.2
2229.575	689.2
2233.529	681.2
2237.479	678.2
2241.425	661.2
2245.368	650.2
2249.307	643.2
2253.243	629.2
2257.175	616.2
2261.104	610.2
2265.029	612.2
2268.95	603.2
2272.868	590.2
2276.783	587.2
2280.694	588.2
2284.601	571.2
2288.505	573.2
2292.405	548.2
2296.302	542.2
2300.195	555.2
2304.085	537.2
2307.971	528.2
2311.854	533.2
2315.734	516.2
2319.609	504.2
2323.482	507.2
2327.351	503.2
2331.216	517.2
2335.078	523.2
2338.937	515.2
2342.792	484.2
2346.643	487.2
2350.492	489.2
2354.336	471.2
2358.178	479.2
2362.015	487.2
2365.85	499.2
2369.681	480.2
2373.508	485.2
2377.333	490.2
2381.153	479.2
2384.971	495.2
2388.785	487.2
2392.595	491.2
2396.402	487.2
2400.206	474.2
2404.007	478.2
2407.804	472.2
2411.597	456.2
2415.388	466.2
2419.174	463.2
2422.958	461.2
2426.738	456.2
2430.515	445.2
2434.289	446.2
2438.059	438.2
2441.825	437.2
2445.589	426.2
2449.349	426.2
2453.106	430.2
2456.859	424.2
2460.61	420.2
2464.356	407.2
2468.1	405.2
2471.84	397.2
2475.577	404.2
2479.311	383.2
2483.041	390.2
2486.768	394.2
2490.492	385.2
2494.213	397.2
2497.93	395.2
2501.644	386.2
2505.355	384.2
2509.062	375.2
2512.766	380.2
2516.467	378.2
2520.165	365.2
2523.859	361.2
2527.551	363.2
2531.239	349.2
2534.923	339.2
2538.605	336.2
2542.283	340.2
2545.958	331.2
2549.63	332.2
2553.299	331.2
2556.964	325.2
2560.626	311.2
2564.285	311.2
2567.941	310.2
2571.594	308.2
2575.243	310.2
2578.89	301.2
2582.533	296.2
2586.173	285.2
2589.809	279.2
2593.443	290.2
2597.073	290.2
2600.701	286.2
2604.325	277.2
2607.946	279.2
2611.564	280.2
2615.178	272.2
2618.79	272.2
2622.398	270.2
2626.004	269.2
2629.606	264.2
2633.205	256.2
2636.801	249.2
2640.394	259.2
2643.983	252.2
2647.57	264.2
2651.153	241.2
2654.734	248.2
2658.311	234.2
2661.885	234.2
2665.456	242.2
2669.025	235.2
2672.589	233.2
2676.151	227.2
2679.71	236.2
2683.266	223.2
2686.819	227.2
2690.368	227.2
2693.915	214.2
2697.458	215.2
2700.999	207.2
2704.536	218.2
2708.071	199.2
2711.602	194.2
2715.13	195.2
2718.656	178.2
2722.178	197.2
2725.697	189.2
2729.214	181.2
2732.727	188.2
2736.237	193.2
2739.744	177.2
2743.249	182.2
2746.75	173.2
2750.248	169.2
2753.743	173.2
2757.236	158.2
2760.725	159.2
2764.211	154.2
2767.695	155.2
2771.175	142.2
2774.652	137.2
2778.127	148.2
2781.598	147.2
2785.067	154.2
2788.532	153.2
2791.995	150.2
2795.455	148.2
2798.911	151.2
2802.365	158.2
2805.816	158.2
2809.264	152.2
2812.709	162.2
2816.151	163.2
2819.59	156.2
2823.026	147.2
2826.46	149.2
2829.89	153.2
2833.318	161.2
2836.742	159.2
2840.164	157.2
2843.583	159.2
2846.999	160.2
2850.412	161.2
2853.822	159.2
2857.229	157.2
2860.634	174.2
2864.035	172.2
2867.434	181.2
2870.83	176.2
2874.223	191.2
2877.613	192.2
2881	201.2
2884.385	199.2
2887.766	192.2
2891.145	192.2
2894.521	207.2
2897.894	203.2
2901.264	204.2
2904.631	212.2
2907.996	205.2
2911.358	207.2
2914.717	204.2
2918.073	219.2
2921.426	227.2
2924.777	235.2
2928.124	245.2
2931.469	242.2
2934.811	244.2
2938.15	245.2
2941.487	257.2
2944.821	261.2
2948.152	264.2
2951.48	252.2
2954.805	257.2
2958.128	264.2
2961.447	244.2
2964.765	244.2
2968.079	249.2
2971.39	253.2
2974.699	253.2
2978.005	244.2
2981.308	259.2
2984.609	261.2
2987.907	250.2
2991.202	264.2
2994.494	262.2
2997.784	265.2
3001.07	270.2
3004.355	271.2
3007.636	282.2
3010.915	280.2
3014.191	280.2
3017.464	287.2
3020.734	287.2
3024.002	296.2
3027.267	299.2
3030.53	309.2
3033.789	321.2
3037.046	324.2
3040.301	324.2
3043.552	347.2
3046.801	343.2
3050.048	345.2
3053.291	366.2
3056.532	379.2
3059.771	402.2
3063.006	416.2
3066.239	420.2
3069.469	437.2
3072.697	436.2
3075.922	451.2
3079.144	465.2
3082.364	474.2
3085.581	493.2
3088.795	501.2
3092.007	508.2
3095.216	515.2
3098.423	522.2
3101.627	557.2
3104.828	558.2
3108.026	558.2
3111.222	570.2
3114.416	584.2
3117.607	601.2
3120.795	607.2
3123.98	616.2
3127.163	647.2
3130.344	652.2
3133.521	673.2
3136.696	695.2
3139.869	695.2
3143.039	714.2
3146.206	709.2
3149.371	732.2
3152.533	734.2
3155.693	736.2
3158.85	748.2
3162.005	765.2
3165.157	765.2
3168.306	749.2
3171.453	751.2
3174.597	770.2
3177.739	764.2
3180.878	779.2
3184.014	779.2
3187.149	781.2
3190.28	806.2
3193.409	778.2
3196.536	779.2
3199.659	796.2
3202.781	803.2
3205.9	789.2
3209.016	807.2
3212.13	799.2
3215.241	787.2
3218.35	785.2
3221.456	777.2
3224.56	780.2
3227.661	765.2
3230.76	750.2
3233.856	743.2
3236.95	730.2
3240.041	723.2
3243.13	699.2
3246.216	704.2
3249.3	685.2
3252.382	684.2
3255.46	679.2
3258.537	662.2
3261.611	666.2
3264.682	669.2
3267.751	652.2
3270.818	649.2
3273.882	647.2
3276.943	639.2
3280.002	629.2
3283.059	639.2
3286.113	641.2
3289.165	632.2
3292.214	619.2
3295.261	600.2
3298.306	599.2
3301.348	585.2
3304.387	596.2
3307.425	579.2
3310.459	580.2
3313.492	557.2
3316.521	555.2
3319.549	560.2
3322.574	547.2
3325.597	554.2
3328.617	547.2
3331.635	547.2
3334.65	539.2
3337.663	542.2
3340.674	551.2
3343.682	537.2
3346.688	541.2
3349.691	537.2
3352.692	533.2
3355.691	536.2
3358.687	519.2
3361.681	515.2
3364.673	514.2
3367.662	512.2
3370.649	500.2
3373.633	484.2
3376.615	476.2
3379.595	465.2
3382.572	473.2
3385.547	466.2
3388.52	459.2
3391.49	444.2
3394.458	448.2
3397.424	427.2
3400.387	420.2
3403.348	421.2
3406.307	408.2
3409.263	413.2
3412.217	408.2
3415.168	401.2
3418.118	394.2
3421.065	377.2
3424.009	372.2
3426.951	374.2
3429.891	371.2
3432.829	366.2
3435.764	358.2
3438.697	352.2
3441.628	336.2
3444.557	317.2
3447.483	301.2
3450.407	289.2
3453.328	273.2
3456.247	275.2
3459.164	259.2
3462.079	258.2
3464.991	236.2
3467.902	232.2
3470.809	230.2
3473.715	211.2
3476.618	209.2
3479.519	197.2
3482.418	191.2
3485.315	176.2
3488.209	164.2
3491.101	165.2
3493.99	163.2
3496.878	151.2
3499.763	134.2
3502.646	130.2
3505.527	124.2
3508.405	122.2
3511.281	115.2
3514.155	104.2
3517.027	97.2
3519.897	89.2
3522.764	68.2
3525.629	63.2
3528.492	64.2
3531.352	58.2
3534.211	51.2
3537.067	40.2
3539.921	38.2
3542.773	27.2
3545.622	11.2
3548.469	14.2
3551.315	11.2
3554.157	7.2
3556.998	-5.8
3559.837	-2.8
3562.673	-10.8
3565.507	-10.8
3568.339	-17.8
3571.169	-28.8
3573.996	-20.8
3576.822	-23.8
3579.645	-29.8
3582.466	-32.8
3585.285	-42.8
3588.101	-36.8
3590.916	-46.8
3593.728	-57.8
3596.538	-53.8
3599.346	-60.8
3602.152	-58.8
3604.956	-59.8
3607.757	-63.8
3610.556	-74.8
3613.354	-66.8
3616.149	-78.8
3618.942	-76.8
3621.732	-73.8
3624.521	-82.8
3627.307	-81.8
3630.092	-81.8
3632.874	-90.8
3635.654	-93.8
3638.432	-85.8
3641.208	-89.8
3643.982	-94.8
3646.753	-97.8
3649.523	-98.8
3652.29	-98.8
3655.055	-100.8
3657.818	-105.8
3660.579	-99.8
3663.338	-105.8
3666.095	-107.8
3668.849	-113.8
3671.602	-112.8
3674.352	-117.8
3677.101	-117.8
3679.847	-115.8
3682.591	-115.8
3685.333	-118.8
3688.073	-119.8
3690.811	-120.8
3693.547	-131.8
3696.281	-125.8
3699.013	-129.8
3701.742	-121.8
3704.47	-127.8
3707.195	-121.8
3709.919	-123.8
3712.64	-131.8
3715.359	-136.8
3718.076	-135.8
3720.792	-136.8
3723.505	-136.8
3726.216	-127.8
3728.925	-137.8
3731.632	-134.8
3734.336	-140.8
3737.039	-138.8
3739.74	-136.8
3742.439	-143.8
3745.136	-136.8
3747.83	-144.8
3750.523	-136.8
3753.213	-146.8
3755.902	-140.8
3758.589	-147.8
3761.273	-135.8
3763.956	-138.8
3766.636	-139.8
3769.315	-137.8
3771.991	-137.8
3774.665	-145.8
3777.338	-136.8
3780.008	-142.8
3782.677	-139.8
3785.343	-140.8
3788.007	-141.8
3790.67	-145.8
3793.33	-137.8
3795.989	-141.8
3798.645	-142.8
3801.299	-142.8
3803.952	-144.8
3806.602	-135.8
3809.251	-146.8
3811.897	-148.8
3814.542	-145.8
3817.184	-140.8
3819.825	-145.8
3822.463	-146.8
3825.1	-141.8
3827.735	-143.8
3830.367	-145.8
3832.998	-149.8
3835.627	-147.8
3838.253	-139.8
3840.878	-141.8
3843.501	-139.8
3846.122	-146.8
3848.741	-146.8
3851.358	-143.8
3853.973	-149.8
3856.586	-147.8
3859.197	-148.8
3861.806	-144.8
3864.414	-146.8
3867.019	-143.8
3869.622	-142.8
3872.224	-135.8
3874.823	-133.8
3877.421	-121.8
3880.016	-98.8
3882.61	-82.8
3885.202	-83.8
3887.792	-95.8
3890.38	-121.8
3892.966	-141.8
3895.55	-139.8
3898.132	-146.8
3900.713	-145.8
3903.291	-144.8
3905.868	-148.8
3908.442	-142.8
3911.015	-147.8
3913.586	-149.8
3916.155	-147.8
3918.722	-146.8
3921.287	-148.8
3923.85	-143.8
3926.411	-152.8
3928.971	-147.8
3931.528	-150.8
3934.084	-148.8
3936.638	-147.8
3939.19	-152.8
3941.74	-152.8
3944.288	-149.8
3946.834	-147.8
3949.378	-145.8
3951.921	-153.8
3954.462	-156.8
3957	-150.8
3959.537	-148.8
3962.072	-144.8
3964.606	-143.8
3967.137	-146.8
3969.667	-150.8
3972.194	-154.8
3974.72	-148.8
3977.244	-144.8
3979.766	-146.8
3982.286	-145.8
3984.805	-150.8
3987.321	-148.8
3989.836	-142.8
3992.349	-153.8
3994.86	-143.8
3997.369	-147.8
3999.877	-151.8
4002.382	-141.8
4004.886	-148.8
4007.388	-149.8
4009.888	-145.8
4012.386	-141.8
4014.883	-145.8
4017.377	-144.8
4019.87	-144.8
4022.361	-147.8
4024.85	-151.8
4027.338	-145.8
4029.823	-142.8
4032.307	-143.8
4034.789	-146.8
4037.269	-149.8
4039.747	-146.8
4042.224	-146.8
4044.699	-152.8
4047.172	-144.8
4049.643	-146.8
4052.112	-144.8
4054.58	-145.8
4057.046	-148.8
4059.51	-152.8
4061.972	-143.8
4064.432	-145.8
4066.891	-146.8
4069.348	-140.8
4071.803	-148.8
4074.256	-146.8
4076.708	-143.8
4079.158	-146.8
4081.606	-144.8
4084.052	-151.8
4086.497	-145.8
4088.939	-133.8
4091.38	-139.8
4093.819	-146.8
4096.257	-154.8
4098.693	-150.8
4101.127	-152.8
4103.559	-151.8
4105.989	-18.8
4108.418	-24.8
4110.845	-21.8
4113.27	-22.8
4115.694	-19.8
4118.115	-17.8
4120.535	-146.8
4122.954	-146.8
4125.37	-148.8
4127.785	-147.8
4130.198	-147.8
4132.609	-145.8
4135.019	-151.8
4137.427	-152.8
4139.833	-152.8
4142.237	-153.8
