Data from 2018-2-8_conc=4_n=10_RamanShift_04.txt Node
Date: Mon Mar 12 15:41:28 IST 2018
User: aro
Spectrometer: QEPB0276
Trigger mode: 0
Integration Time (sec): 3.000000E1
Scans to average: 1
Electric dark correction enabled: true
Nonlinearity correction enabled: false
Boxcar width: 0
XAxis mode: Raman Shifts
Number of Pixels in Spectrum: 1044
>>>>>Begin Spectral Data<<<<<
160.701	17.1
166.742	37.1
172.777	120.1
178.805	378.1
184.826	1049.1
190.841	2271.1
196.849	3779.1
202.85	4994.1
208.845	5450.1
214.833	5434.1
220.815	5361.1
226.789	5343.1
232.758	5367.1
238.719	5362.1
244.674	5282.1
250.623	5252.1
256.565	5190.1
262.5	5065.1
268.429	5023.1
274.351	4976.1
280.267	4945.1
286.176	4918.1
292.079	4876.1
297.975	4851.1
303.865	4845.1
309.748	4828.1
315.625	4804.1
321.495	4818.1
327.359	4808.1
333.217	4817.1
339.068	4818.1
344.912	4804.1
350.751	4821.1
356.583	4809.1
362.408	4825.1
368.227	4787.1
374.04	4831.1
379.847	4843.1
385.647	4863.1
391.44	4877.1
397.228	4926.1
403.009	4971.1
408.784	4955.1
414.553	4958.1
420.315	4977.1
426.071	5017.1
431.821	4984.1
437.565	4987.1
443.302	4989.1
449.033	4961.1
454.758	4939.1
460.477	4908.1
466.189	4885.1
471.896	4851.1
477.596	4808.1
483.29	4816.1
488.978	4809.1
494.66	4807.1
500.335	4746.1
506.005	4649.1
511.668	4523.1
517.325	4368.1
522.977	4286.1
528.622	4228.1
534.261	4175.1
539.894	4125.1
545.521	4099.1
551.141	4094.1
556.756	4060.1
562.365	4040.1
567.968	4001.1
573.565	3980.1
579.155	3950.1
584.74	3935.1
590.319	3933.1
595.892	3921.1
601.459	3884.1
607.02	3896.1
612.575	3861.1
618.124	3842.1
623.667	3810.1
629.204	3766.1
634.735	3758.1
640.261	3735.1
645.781	3704.1
651.294	3679.1
656.802	3691.1
662.304	3659.1
667.8	3664.1
673.29	3663.1
678.775	3647.1
684.254	3640.1
689.726	3623.1
695.193	3589.1
700.655	3584.1
706.11	3577.1
711.56	3543.1
717.004	3535.1
722.442	3503.1
727.874	3490.1
733.301	3473.1
738.722	3465.1
744.137	3461.1
749.547	3426.1
754.951	3442.1
760.349	3437.1
765.741	3469.1
771.128	3471.1
776.509	3470.1
781.885	3502.1
787.254	3493.1
792.618	3487.1
797.977	3475.1
803.33	3461.1
808.677	3445.1
814.019	3430.1
819.355	3386.1
824.686	3351.1
830.011	3341.1
835.33	3347.1
840.644	3343.1
845.952	3345.1
851.255	3339.1
856.552	3334.1
861.844	3305.1
867.13	3295.1
872.41	3257.1
877.686	3244.1
882.955	3218.1
888.219	3215.1
893.478	3159.1
898.731	3100.1
903.979	3070.1
909.221	3080.1
914.458	3050.1
919.69	3025.1
924.916	3037.1
930.136	3056.1
935.351	3073.1
940.561	3043.1
945.766	3059.1
950.965	3056.1
956.158	3008.1
961.347	2980.1
966.529	2944.1
971.707	2922.1
976.879	2891.1
982.046	2843.1
987.208	2827.1
992.364	2827.1
997.515	2832.1
1002.66	2862.1
1007.801	2902.1
1012.936	2925.1
1018.066	2916.1
1023.19	2931.1
1028.309	2915.1
1033.423	2907.1
1038.532	2898.1
1043.636	2888.1
1048.734	2856.1
1053.827	2815.1
1058.915	2754.1
1063.998	2745.1
1069.075	2737.1
1074.147	2759.1
1079.214	2761.1
1084.276	2763.1
1089.333	2766.1
1094.385	2791.1
1099.431	2768.1
1104.472	2789.1
1109.509	2786.1
1114.54	2747.1
1119.565	2707.1
1124.586	2654.1
1129.602	2647.1
1134.613	2610.1
1139.618	2579.1
1144.619	2587.1
1149.614	2566.1
1154.604	2606.1
1159.589	2591.1
1164.57	2614.1
1169.545	2614.1
1174.515	2611.1
1179.48	2599.1
1184.44	2586.1
1189.395	2547.1
1194.345	2554.1
1199.29	2519.1
1204.23	2522.1
1209.165	2522.1
1214.095	2560.1
1219.021	2544.1
1223.941	2561.1
1228.856	2551.1
1233.766	2570.1
1238.672	2606.1
1243.572	2583.1
1248.467	2570.1
1253.358	2560.1
1258.244	2498.1
1263.124	2465.1
1268	2414.1
1272.871	2394.1
1277.737	2368.1
1282.599	2378.1
1287.455	2354.1
1292.306	2356.1
1297.153	2377.1
1301.995	2394.1
1306.832	2399.1
1311.664	2423.1
1316.491	2421.1
1321.314	2427.1
1326.132	2410.1
1330.945	2381.1
1335.753	2321.1
1340.556	2294.1
1345.354	2290.1
1350.148	2248.1
1354.937	2238.1
1359.722	2156.1
1364.501	2133.1
1369.276	2094.1
1374.046	2061.1
1378.811	2023.1
1383.572	2011.1
1388.327	2004.1
1393.079	2003.1
1397.825	2008.1
1402.567	2004.1
1407.304	2030.1
1412.036	2034.1
1416.764	2043.1
1421.487	2024.1
1426.205	2068.1
1430.919	2042.1
1435.628	2064.1
1440.333	2063.1
1445.032	2102.1
1449.727	2110.1
1454.418	2110.1
1459.104	2116.1
1463.785	2067.1
1468.462	2045.1
1473.134	1987.1
1477.802	1972.1
1482.465	1932.1
1487.123	1885.1
1491.777	1886.1
1496.426	1845.1
1501.071	1824.1
1505.711	1823.1
1510.347	1826.1
1514.978	1820.1
1519.604	1814.1
1524.226	1820.1
1528.844	1782.1
1533.457	1793.1
1538.065	1799.1
1542.669	1773.1
1547.269	1782.1
1551.864	1768.1
1556.454	1784.1
1561.041	1813.1
1565.622	1812.1
1570.199	1817.1
1574.772	1833.1
1579.34	1865.1
1583.904	1859.1
1588.464	1900.1
1593.019	1905.1
1597.569	1906.1
1602.115	1905.1
1606.657	1896.1
1611.195	1880.1
1615.728	1866.1
1620.256	1884.1
1624.78	1905.1
1629.3	1873.1
1633.816	1888.1
1638.327	1894.1
1642.834	1902.1
1647.336	1928.1
1651.834	1902.1
1656.328	1930.1
1660.817	1899.1
1665.302	1906.1
1669.783	1864.1
1674.259	1830.1
1678.732	1789.1
1683.199	1739.1
1687.663	1678.1
1692.122	1620.1
1696.577	1546.1
1701.028	1501.1
1705.474	1442.1
1709.917	1408.1
1714.355	1361.1
1718.788	1365.1
1723.218	1368.1
1727.643	1369.1
1732.064	1359.1
1736.481	1358.1
1740.893	1315.1
1745.301	1273.1
1749.705	1268.1
1754.105	1247.1
1758.501	1220.1
1762.893	1203.1
1767.28	1206.1
1771.663	1165.1
1776.042	1163.1
1780.417	1162.1
1784.787	1140.1
1789.154	1125.1
1793.516	1138.1
1797.874	1112.1
1802.228	1091.1
1806.578	1078.1
1810.924	1057.1
1815.266	1059.1
1819.603	1062.1
1823.937	1049.1
1828.266	1040.1
1832.591	1052.1
1836.913	1043.1
1841.23	1056.1
1845.543	1064.1
1849.852	1053.1
1854.156	1045.1
1858.457	1062.1
1862.754	1058.1
1867.047	1043.1
1871.335	1055.1
1875.62	1057.1
1879.9	1048.1
1884.177	1061.1
1888.449	1033.1
1892.718	1028.1
1896.982	1010.1
1901.243	1003.1
1905.499	987.1
1909.752	967.1
1914	955.1
1918.245	955.1
1922.485	930.1
1926.722	929.1
1930.954	934.1
1935.183	922.1
1939.408	935.1
1943.628	915.1
1947.845	909.1
1952.058	892.1
1956.267	884.1
1960.472	880.1
1964.673	870.1
1968.87	878.1
1973.063	863.1
1977.252	850.1
1981.438	852.1
1985.619	854.1
1989.797	839.1
1993.971	858.1
1998.14	848.1
2002.306	846.1
2006.469	858.1
2010.627	867.1
2014.781	867.1
2018.932	853.1
2023.078	863.1
2027.221	855.1
2031.36	841.1
2035.495	834.1
2039.627	809.1
2043.754	807.1
2047.878	816.1
2051.998	791.1
2056.114	792.1
2060.226	781.1
2064.334	798.1
2068.439	779.1
2072.54	790.1
2076.637	786.1
2080.73	787.1
2084.82	771.1
2088.906	761.1
2092.988	762.1
2097.066	772.1
2101.14	746.1
2105.211	735.1
2109.278	725.1
2113.342	721.1
2117.401	716.1
2121.457	703.1
2125.509	697.1
2129.558	697.1
2133.602	706.1
2137.643	701.1
2141.681	703.1
2145.714	689.1
2149.744	692.1
2153.77	710.1
2157.793	693.1
2161.812	683.1
2165.827	672.1
2169.838	678.1
2173.846	662.1
2177.851	649.1
2181.851	633.1
2185.848	632.1
2189.841	643.1
2193.831	635.1
2197.817	620.1
2201.799	614.1
2205.778	617.1
2209.753	604.1
2213.725	623.1
2217.693	623.1
2221.657	606.1
2225.618	603.1
2229.575	610.1
2233.529	602.1
2237.479	599.1
2241.425	580.1
2245.368	576.1
2249.307	566.1
2253.243	557.1
2257.175	552.1
2261.104	546.1
2265.029	541.1
2268.95	530.1
2272.868	510.1
2276.783	514.1
2280.694	522.1
2284.601	512.1
2288.505	505.1
2292.405	494.1
2296.302	501.1
2300.195	494.1
2304.085	475.1
2307.971	470.1
2311.854	468.1
2315.734	447.1
2319.609	448.1
2323.482	444.1
2327.351	443.1
2331.216	447.1
2335.078	464.1
2338.937	445.1
2342.792	443.1
2346.643	424.1
2350.492	431.1
2354.336	436.1
2358.178	438.1
2362.015	439.1
2365.85	433.1
2369.681	439.1
2373.508	433.1
2377.333	435.1
2381.153	433.1
2384.971	439.1
2388.785	431.1
2392.595	426.1
2396.402	421.1
2400.206	416.1
2404.007	411.1
2407.804	416.1
2411.597	418.1
2415.388	404.1
2419.174	398.1
2422.958	405.1
2426.738	411.1
2430.515	405.1
2434.289	402.1
2438.059	403.1
2441.825	396.1
2445.589	394.1
2449.349	378.1
2453.106	375.1
2456.859	377.1
2460.61	372.1
2464.356	366.1
2468.1	361.1
2471.84	357.1
2475.577	363.1
2479.311	343.1
2483.041	342.1
2486.768	346.1
2490.492	350.1
2494.213	345.1
2497.93	350.1
2501.644	342.1
2505.355	329.1
2509.062	339.1
2512.766	329.1
2516.467	338.1
2520.165	319.1
2523.859	316.1
2527.551	318.1
2531.239	315.1
2534.923	308.1
2538.605	292.1
2542.283	294.1
2545.958	289.1
2549.63	295.1
2553.299	288.1
2556.964	294.1
2560.626	279.1
2564.285	279.1
2567.941	282.1
2571.594	272.1
2575.243	269.1
2578.89	265.1
2582.533	269.1
2586.173	261.1
2589.809	252.1
2593.443	256.1
2597.073	255.1
2600.701	247.1
2604.325	246.1
2607.946	247.1
2611.564	239.1
2615.178	249.1
2618.79	245.1
2622.398	240.1
2626.004	247.1
2629.606	248.1
2633.205	232.1
2636.801	224.1
2640.394	229.1
2643.983	232.1
2647.57	225.1
2651.153	235.1
2654.734	227.1
2658.311	202.1
2661.885	215.1
2665.456	215.1
2669.025	218.1
2672.589	207.1
2676.151	214.1
2679.71	210.1
2683.266	206.1
2686.819	202.1
2690.368	197.1
2693.915	179.1
2697.458	190.1
2700.999	185.1
2704.536	185.1
2708.071	180.1
2711.602	176.1
2715.13	178.1
2718.656	172.1
2722.178	167.1
2725.697	169.1
2729.214	163.1
2732.727	175.1
2736.237	167.1
2739.744	160.1
2743.249	166.1
2746.75	163.1
2750.248	152.1
2753.743	138.1
2757.236	139.1
2760.725	145.1
2764.211	141.1
2767.695	138.1
2771.175	130.1
2774.652	128.1
2778.127	134.1
2781.598	123.1
2785.067	140.1
2788.532	128.1
2791.995	138.1
2795.455	138.1
2798.911	136.1
2802.365	141.1
2805.816	145.1
2809.264	129.1
2812.709	145.1
2816.151	133.1
2819.59	133.1
2823.026	133.1
2826.46	135.1
2829.89	132.1
2833.318	140.1
2836.742	155.1
2840.164	131.1
2843.583	132.1
2846.999	137.1
2850.412	132.1
2853.822	144.1
2857.229	138.1
2860.634	154.1
2864.035	152.1
2867.434	160.1
2870.83	152.1
2874.223	178.1
2877.613	176.1
2881	181.1
2884.385	181.1
2887.766	167.1
2891.145	178.1
2894.521	179.1
2897.894	191.1
2901.264	183.1
2904.631	179.1
2907.996	184.1
2911.358	181.1
2914.717	184.1
2918.073	191.1
2921.426	194.1
2924.777	205.1
2928.124	203.1
2931.469	210.1
2934.811	222.1
2938.15	216.1
2941.487	224.1
2944.821	229.1
2948.152	232.1
2951.48	221.1
2954.805	230.1
2958.128	221.1
2961.447	223.1
2964.765	217.1
2968.079	219.1
2971.39	217.1
2974.699	225.1
2978.005	220.1
2981.308	220.1
2984.609	228.1
2987.907	218.1
2991.202	228.1
2994.494	227.1
2997.784	234.1
3001.07	233.1
3004.355	243.1
3007.636	242.1
3010.915	240.1
3014.191	246.1
3017.464	254.1
3020.734	254.1
3024.002	254.1
3027.267	264.1
3030.53	268.1
3033.789	274.1
3037.046	290.1
3040.301	285.1
3043.552	310.1
3046.801	296.1
3050.048	313.1
3053.291	315.1
3056.532	333.1
3059.771	336.1
3063.006	357.1
3066.239	370.1
3069.469	377.1
3072.697	389.1
3075.922	391.1
3079.144	413.1
3082.364	407.1
3085.581	421.1
3088.795	434.1
3092.007	448.1
3095.216	458.1
3098.423	459.1
3101.627	480.1
3104.828	486.1
3108.026	494.1
3111.222	514.1
3114.416	513.1
3117.607	535.1
3120.795	535.1
3123.98	544.1
3127.163	556.1
3130.344	572.1
3133.521	581.1
3136.696	599.1
3139.869	606.1
3143.039	620.1
3146.206	625.1
3149.371	634.1
3152.533	647.1
3155.693	648.1
3158.85	649.1
3162.005	663.1
3165.157	666.1
3168.306	664.1
3171.453	662.1
3174.597	668.1
3177.739	679.1
3180.878	673.1
3184.014	691.1
3187.149	683.1
3190.28	677.1
3193.409	688.1
3196.536	686.1
3199.659	695.1
3202.781	696.1
3205.9	690.1
3209.016	696.1
3212.13	701.1
3215.241	691.1
3218.35	686.1
3221.456	681.1
3224.56	667.1
3227.661	664.1
3230.76	656.1
3233.856	645.1
3236.95	629.1
3240.041	625.1
3243.13	618.1
3246.216	609.1
3249.3	593.1
3252.382	598.1
3255.46	591.1
3258.537	594.1
3261.611	589.1
3264.682	571.1
3267.751	591.1
3270.818	569.1
3273.882	561.1
3276.943	562.1
3280.002	561.1
3283.059	545.1
3286.113	561.1
3289.165	549.1
3292.214	547.1
3295.261	525.1
3298.306	535.1
3301.348	518.1
3304.387	511.1
3307.425	510.1
3310.459	505.1
3313.492	489.1
3316.521	488.1
3319.549	483.1
3322.574	476.1
3325.597	478.1
3328.617	492.1
3331.635	478.1
3334.65	474.1
3337.663	470.1
3340.674	479.1
3343.682	462.1
3346.688	466.1
3349.691	466.1
3352.692	465.1
3355.691	460.1
3358.687	456.1
3361.681	458.1
3364.673	456.1
3367.662	446.1
3370.649	435.1
3373.633	423.1
3376.615	413.1
3379.595	405.1
3382.572	414.1
3385.547	389.1
3388.52	399.1
3391.49	387.1
3394.458	381.1
3397.424	373.1
3400.387	379.1
3403.348	378.1
3406.307	366.1
3409.263	356.1
3412.217	354.1
3415.168	355.1
3418.118	350.1
3421.065	337.1
3424.009	338.1
3426.951	331.1
3429.891	316.1
3432.829	305.1
3435.764	307.1
3438.697	286.1
3441.628	284.1
3444.557	287.1
3447.483	274.1
3450.407	253.1
3453.328	238.1
3456.247	246.1
3459.164	228.1
3462.079	220.1
3464.991	210.1
3467.902	201.1
3470.809	205.1
3473.715	185.1
3476.618	181.1
3479.519	171.1
3482.418	163.1
3485.315	154.1
3488.209	149.1
3491.101	144.1
3493.99	139.1
3496.878	132.1
3499.763	119.1
3502.646	108.1
3505.527	110.1
3508.405	106.1
3511.281	103.1
3514.155	93.1
3517.027	87.1
3519.897	73.1
3522.764	62.1
3525.629	58.1
3528.492	60.1
3531.352	42.1
3534.211	48.1
3537.067	28.1
3539.921	31.1
3542.773	24.1
3545.622	14.1
3548.469	14.1
3551.315	10.1
3554.157	8.1
3556.998	-6.9
3559.837	-6.9
3562.673	-8.9
3565.507	-9.9
3568.339	-17.9
3571.169	-25.9
3573.996	-24.9
3576.822	-18.9
3579.645	-27.9
3582.466	-28.9
3585.285	-37.9
3588.101	-32.9
3590.916	-42.9
3593.728	-44.9
3596.538	-46.9
3599.346	-49.9
3602.152	-51.9
3604.956	-52.9
3607.757	-47.9
3610.556	-59.9
3613.354	-58.9
3616.149	-72.9
3618.942	-69.9
3621.732	-68.9
3624.521	-75.9
3627.307	-75.9
3630.092	-75.9
3632.874	-70.9
3635.654	-78.9
3638.432	-75.9
3641.208	-78.9
3643.982	-86.9
3646.753	-93.9
3649.523	-88.9
3652.29	-92.9
3655.055	-90.9
3657.818	-89.9
3660.579	-90.9
3663.338	-92.9
3666.095	-96.9
3668.849	-104.9
3671.602	-104.9
3674.352	-98.9
3677.101	-99.9
3679.847	-102.9
3682.591	-100.9
3685.333	-104.9
3688.073	-102.9
3690.811	-108.9
3693.547	-112.9
3696.281	-109.9
3699.013	-111.9
3701.742	-112.9
3704.47	-111.9
3707.195	-103.9
3709.919	-113.9
3712.64	-117.9
3715.359	-121.9
3718.076	-110.9
3720.792	-118.9
3723.505	-117.9
3726.216	-117.9
3728.925	-119.9
3731.632	-113.9
3734.336	-127.9
3737.039	-115.9
3739.74	-126.9
3742.439	-130.9
3745.136	-116.9
3747.83	-124.9
3750.523	-119.9
3753.213	-129.9
3755.902	-121.9
3758.589	-125.9
3761.273	-121.9
3763.956	-119.9
3766.636	-124.9
3769.315	-115.9
3771.991	-122.9
3774.665	-126.9
3777.338	-119.9
3780.008	-124.9
3782.677	-124.9
3785.343	-123.9
3788.007	-128.9
3790.67	-125.9
3793.33	-121.9
3795.989	-125.9
3798.645	-123.9
3801.299	-125.9
3803.952	-127.9
3806.602	-121.9
3809.251	-127.9
3811.897	-130.9
3814.542	-129.9
3817.184	-119.9
3819.825	-125.9
3822.463	-130.9
3825.1	-123.9
3827.735	-128.9
3830.367	-130.9
3832.998	-128.9
3835.627	-126.9
3838.253	-122.9
3840.878	-126.9
3843.501	-122.9
3846.122	-131.9
3848.741	-130.9
3851.358	-132.9
3853.973	-134.9
3856.586	-123.9
3859.197	-137.9
3861.806	-128.9
3864.414	-131.9
3867.019	-129.9
3869.622	-129.9
3872.224	-126.9
3874.823	-111.9
3877.421	-107.9
3880.016	-83.9
3882.61	-72.9
3885.202	-70.9
3887.792	-86.9
3890.38	-109.9
3892.966	-124.9
3895.55	-121.9
3898.132	-128.9
3900.713	-123.9
3903.291	-133.9
3905.868	-131.9
3908.442	-129.9
3911.015	-131.9
3913.586	-130.9
3916.155	-132.9
3918.722	-135.9
3921.287	-127.9
3923.85	-127.9
3926.411	-132.9
3928.971	-131.9
3931.528	-135.9
3934.084	-129.9
3936.638	-125.9
3939.19	-131.9
3941.74	-131.9
3944.288	-128.9
3946.834	-122.9
3949.378	-133.9
3951.921	-131.9
3954.462	-139.9
3957	-133.9
3959.537	-125.9
3962.072	-129.9
3964.606	-125.9
3967.137	-127.9
3969.667	-131.9
3972.194	-132.9
3974.72	-132.9
3977.244	-132.9
3979.766	-131.9
3982.286	-130.9
3984.805	-131.9
3987.321	-122.9
3989.836	-121.9
3992.349	-132.9
3994.86	-132.9
3997.369	-130.9
3999.877	-127.9
4002.382	-123.9
4004.886	-128.9
4007.388	-130.9
4009.888	-124.9
4012.386	-133.9
4014.883	-131.9
4017.377	-129.9
4019.87	-127.9
4022.361	-132.9
4024.85	-126.9
4027.338	-125.9
4029.823	-127.9
4032.307	-129.9
4034.789	-131.9
4037.269	-131.9
4039.747	-129.9
4042.224	-122.9
4044.699	-127.9
4047.172	-126.9
4049.643	-127.9
4052.112	-128.9
4054.58	-131.9
4057.046	-128.9
4059.51	-127.9
4061.972	-126.9
4064.432	-131.9
4066.891	-123.9
4069.348	-126.9
4071.803	-133.9
4074.256	-133.9
4076.708	-129.9
4079.158	-127.9
4081.606	-124.9
4084.052	-124.9
4086.497	-126.9
4088.939	-123.9
4091.38	-127.9
4093.819	-125.9
4096.257	-137.9
4098.693	-132.9
4101.127	-133.9
4103.559	-133.9
4105.989	-15.9
4108.418	-16.9
4110.845	-16.9
4113.27	-13.9
4115.694	-21.9
4118.115	-9.9
4120.535	-132.9
4122.954	-132.9
4125.37	-124.9
4127.785	-126.9
4130.198	-127.9
4132.609	-127.9
4135.019	-135.9
4137.427	-142.9
4139.833	-137.9
4142.237	-135.9
