Data from 2018-2-8_conc=4_n=9_RamanShift_01.txt Node
Date: Mon Mar 12 15:36:28 IST 2018
User: aro
Spectrometer: QEPB0276
Trigger mode: 0
Integration Time (sec): 3.000000E1
Scans to average: 1
Electric dark correction enabled: true
Nonlinearity correction enabled: false
Boxcar width: 0
XAxis mode: Raman Shifts
Number of Pixels in Spectrum: 1044
>>>>>Begin Spectral Data<<<<<
160.701	22.6
166.742	52.6
172.777	129.6
178.805	397.6
184.826	1082.6
190.841	2345.6
196.849	3872.6
202.85	5038.6
208.845	5495.6
214.833	5502.6
220.815	5398.6
226.789	5382.6
232.758	5368.6
238.719	5380.6
244.674	5306.6
250.623	5269.6
256.565	5170.6
262.5	5074.6
268.429	5004.6
274.351	4967.6
280.267	4916.6
286.176	4870.6
292.079	4865.6
297.975	4847.6
303.865	4805.6
309.748	4804.6
315.625	4785.6
321.495	4756.6
327.359	4746.6
333.217	4737.6
339.068	4749.6
344.912	4770.6
350.751	4799.6
356.583	4794.6
362.408	4755.6
368.227	4806.6
374.04	4819.6
379.847	4836.6
385.647	4850.6
391.44	4880.6
397.228	4909.6
403.009	4916.6
408.784	4941.6
414.553	4981.6
420.315	4990.6
426.071	4979.6
431.821	4985.6
437.565	4995.6
443.302	4958.6
449.033	4953.6
454.758	4932.6
460.477	4892.6
466.189	4916.6
471.896	4866.6
477.596	4817.6
483.29	4808.6
488.978	4799.6
494.66	4784.6
500.335	4715.6
506.005	4565.6
511.668	4421.6
517.325	4285.6
522.977	4177.6
528.622	4093.6
534.261	4020.6
539.894	3987.6
545.521	3933.6
551.141	3904.6
556.756	3895.6
562.365	3862.6
567.968	3828.6
573.565	3803.6
579.155	3788.6
584.74	3779.6
590.319	3774.6
595.892	3767.6
601.459	3764.6
607.02	3735.6
612.575	3691.6
618.124	3659.6
623.667	3631.6
629.204	3594.6
634.735	3558.6
640.261	3519.6
645.781	3523.6
651.294	3520.6
656.802	3515.6
662.304	3494.6
667.8	3479.6
673.29	3480.6
678.775	3470.6
684.254	3424.6
689.726	3446.6
695.193	3421.6
700.655	3415.6
706.11	3382.6
711.56	3384.6
717.004	3352.6
722.442	3336.6
727.874	3333.6
733.301	3301.6
738.722	3298.6
744.137	3305.6
749.547	3290.6
754.951	3258.6
760.349	3298.6
765.741	3267.6
771.128	3325.6
776.509	3331.6
781.885	3339.6
787.254	3345.6
792.618	3352.6
797.977	3375.6
803.33	3338.6
808.677	3306.6
814.019	3256.6
819.355	3238.6
824.686	3242.6
830.011	3222.6
835.33	3203.6
840.644	3215.6
845.952	3185.6
851.255	3178.6
856.552	3162.6
861.844	3142.6
867.13	3126.6
872.41	3106.6
877.686	3095.6
882.955	3058.6
888.219	3046.6
893.478	3014.6
898.731	2959.6
903.979	2930.6
909.221	2887.6
914.458	2905.6
919.69	2881.6
924.916	2895.6
930.136	2905.6
935.351	2881.6
940.561	2899.6
945.766	2884.6
950.965	2888.6
956.158	2857.6
961.347	2830.6
966.529	2818.6
971.707	2764.6
976.879	2716.6
982.046	2688.6
987.208	2687.6
992.364	2690.6
997.515	2692.6
1002.66	2722.6
1007.801	2741.6
1012.936	2757.6
1018.066	2760.6
1023.19	2751.6
1028.309	2757.6
1033.423	2784.6
1038.532	2757.6
1043.636	2744.6
1048.734	2696.6
1053.827	2678.6
1058.915	2651.6
1063.998	2623.6
1069.075	2638.6
1074.147	2600.6
1079.214	2610.6
1084.276	2637.6
1089.333	2658.6
1094.385	2648.6
1099.431	2633.6
1104.472	2635.6
1109.509	2651.6
1114.54	2624.6
1119.565	2557.6
1124.586	2537.6
1129.602	2504.6
1134.613	2492.6
1139.618	2471.6
1144.619	2458.6
1149.614	2451.6
1154.604	2483.6
1159.589	2471.6
1164.57	2488.6
1169.545	2498.6
1174.515	2493.6
1179.48	2470.6
1184.44	2451.6
1189.395	2451.6
1194.345	2426.6
1199.29	2403.6
1204.23	2397.6
1209.165	2407.6
1214.095	2418.6
1219.021	2433.6
1223.941	2451.6
1228.856	2450.6
1233.766	2455.6
1238.672	2463.6
1243.572	2459.6
1248.467	2445.6
1253.358	2413.6
1258.244	2374.6
1263.124	2348.6
1268	2318.6
1272.871	2293.6
1277.737	2275.6
1282.599	2265.6
1287.455	2264.6
1292.306	2253.6
1297.153	2268.6
1301.995	2276.6
1306.832	2284.6
1311.664	2300.6
1316.491	2313.6
1321.314	2303.6
1326.132	2290.6
1330.945	2258.6
1335.753	2230.6
1340.556	2218.6
1345.354	2169.6
1350.148	2150.6
1354.937	2128.6
1359.722	2080.6
1364.501	2054.6
1369.276	2034.6
1374.046	2010.6
1378.811	1944.6
1383.572	1937.6
1388.327	1945.6
1393.079	1942.6
1397.825	1937.6
1402.567	1950.6
1407.304	1949.6
1412.036	1949.6
1416.764	1953.6
1421.487	1968.6
1426.205	1947.6
1430.919	1958.6
1435.628	1951.6
1440.333	1996.6
1445.032	2020.6
1449.727	2043.6
1454.418	2036.6
1459.104	2020.6
1463.785	1978.6
1468.462	1974.6
1473.134	1952.6
1477.802	1898.6
1482.465	1840.6
1487.123	1824.6
1491.777	1790.6
1496.426	1792.6
1501.071	1757.6
1505.711	1736.6
1510.347	1765.6
1514.978	1774.6
1519.604	1754.6
1524.226	1746.6
1528.844	1746.6
1533.457	1737.6
1538.065	1722.6
1542.669	1733.6
1547.269	1705.6
1551.864	1705.6
1556.454	1740.6
1561.041	1754.6
1565.622	1759.6
1570.199	1756.6
1574.772	1766.6
1579.34	1814.6
1583.904	1815.6
1588.464	1835.6
1593.019	1856.6
1597.569	1824.6
1602.115	1847.6
1606.657	1853.6
1611.195	1837.6
1615.728	1837.6
1620.256	1830.6
1624.78	1848.6
1629.3	1846.6
1633.816	1838.6
1638.327	1848.6
1642.834	1855.6
1647.336	1875.6
1651.834	1882.6
1656.328	1887.6
1660.817	1878.6
1665.302	1834.6
1669.783	1819.6
1674.259	1773.6
1678.732	1752.6
1683.199	1691.6
1687.663	1629.6
1692.122	1598.6
1696.577	1532.6
1701.028	1470.6
1705.474	1415.6
1709.917	1366.6
1714.355	1339.6
1718.788	1326.6
1723.218	1328.6
1727.643	1323.6
1732.064	1311.6
1736.481	1293.6
1740.893	1270.6
1745.301	1244.6
1749.705	1227.6
1754.105	1200.6
1758.501	1179.6
1762.893	1172.6
1767.28	1141.6
1771.663	1142.6
1776.042	1128.6
1780.417	1113.6
1784.787	1098.6
1789.154	1084.6
1793.516	1089.6
1797.874	1070.6
1802.228	1055.6
1806.578	1062.6
1810.924	1043.6
1815.266	1011.6
1819.603	1036.6
1823.937	1022.6
1828.266	1024.6
1832.591	1020.6
1836.913	1010.6
1841.23	1043.6
1845.543	1019.6
1849.852	1012.6
1854.156	999.6
1858.457	1035.6
1862.754	1011.6
1867.047	1007.6
1871.335	1014.6
1875.62	1013.6
1879.9	1006.6
1884.177	1003.6
1888.449	1001.6
1892.718	984.6
1896.982	986.6
1901.243	959.6
1905.499	941.6
1909.752	946.6
1914	923.6
1918.245	925.6
1922.485	908.6
1926.722	902.6
1930.954	899.6
1935.183	889.6
1939.408	872.6
1943.628	871.6
1947.845	875.6
1952.058	868.6
1956.267	872.6
1960.472	840.6
1964.673	836.6
1968.87	846.6
1973.063	834.6
1977.252	820.6
1981.438	827.6
1985.619	817.6
1989.797	829.6
1993.971	842.6
1998.14	837.6
2002.306	827.6
2006.469	842.6
2010.627	838.6
2014.781	841.6
2018.932	826.6
2023.078	834.6
2027.221	826.6
2031.36	824.6
2035.495	807.6
2039.627	798.6
2043.754	781.6
2047.878	782.6
2051.998	778.6
2056.114	778.6
2060.226	767.6
2064.334	765.6
2068.439	767.6
2072.54	759.6
2076.637	753.6
2080.73	757.6
2084.82	747.6
2088.906	750.6
2092.988	737.6
2097.066	739.6
2101.14	719.6
2105.211	725.6
2109.278	708.6
2113.342	693.6
2117.401	695.6
2121.457	692.6
2125.509	684.6
2129.558	683.6
2133.602	690.6
2137.643	697.6
2141.681	694.6
2145.714	676.6
2149.744	681.6
2153.77	672.6
2157.793	666.6
2161.812	672.6
2165.827	668.6
2169.838	654.6
2173.846	645.6
2177.851	627.6
2181.851	612.6
2185.848	621.6
2189.841	624.6
2193.831	613.6
2197.817	605.6
2201.799	603.6
2205.778	591.6
2209.753	595.6
2213.725	596.6
2217.693	590.6
2221.657	594.6
2225.618	592.6
2229.575	584.6
2233.529	588.6
2237.479	591.6
2241.425	577.6
2245.368	563.6
2249.307	549.6
2253.243	541.6
2257.175	537.6
2261.104	531.6
2265.029	518.6
2268.95	527.6
2272.868	506.6
2276.783	500.6
2280.694	510.6
2284.601	485.6
2288.505	485.6
2292.405	477.6
2296.302	481.6
2300.195	467.6
2304.085	452.6
2307.971	448.6
2311.854	453.6
2315.734	437.6
2319.609	432.6
2323.482	432.6
2327.351	431.6
2331.216	432.6
2335.078	446.6
2338.937	435.6
2342.792	410.6
2346.643	417.6
2350.492	402.6
2354.336	412.6
2358.178	412.6
2362.015	413.6
2365.85	423.6
2369.681	425.6
2373.508	420.6
2377.333	417.6
2381.153	417.6
2384.971	422.6
2388.785	408.6
2392.595	417.6
2396.402	402.6
2400.206	397.6
2404.007	407.6
2407.804	392.6
2411.597	393.6
2415.388	381.6
2419.174	391.6
2422.958	376.6
2426.738	388.6
2430.515	375.6
2434.289	379.6
2438.059	367.6
2441.825	354.6
2445.589	366.6
2449.349	358.6
2453.106	361.6
2456.859	348.6
2460.61	363.6
2464.356	345.6
2468.1	340.6
2471.84	337.6
2475.577	334.6
2479.311	328.6
2483.041	327.6
2486.768	328.6
2490.492	326.6
2494.213	329.6
2497.93	321.6
2501.644	326.6
2505.355	321.6
2509.062	321.6
2512.766	315.6
2516.467	302.6
2520.165	311.6
2523.859	306.6
2527.551	298.6
2531.239	299.6
2534.923	283.6
2538.605	289.6
2542.283	276.6
2545.958	279.6
2549.63	271.6
2553.299	265.6
2556.964	276.6
2560.626	270.6
2564.285	266.6
2567.941	258.6
2571.594	260.6
2575.243	255.6
2578.89	255.6
2582.533	246.6
2586.173	249.6
2589.809	233.6
2593.443	242.6
2597.073	247.6
2600.701	233.6
2604.325	230.6
2607.946	238.6
2611.564	238.6
2615.178	229.6
2618.79	233.6
2622.398	230.6
2626.004	224.6
2629.606	231.6
2633.205	215.6
2636.801	220.6
2640.394	216.6
2643.983	211.6
2647.57	217.6
2651.153	206.6
2654.734	208.6
2658.311	205.6
2661.885	195.6
2665.456	200.6
2669.025	209.6
2672.589	202.6
2676.151	194.6
2679.71	206.6
2683.266	189.6
2686.819	189.6
2690.368	177.6
2693.915	178.6
2697.458	178.6
2700.999	177.6
2704.536	172.6
2708.071	169.6
2711.602	164.6
2715.13	162.6
2718.656	158.6
2722.178	158.6
2725.697	152.6
2729.214	153.6
2732.727	160.6
2736.237	159.6
2739.744	148.6
2743.249	145.6
2746.75	134.6
2750.248	137.6
2753.743	132.6
2757.236	138.6
2760.725	135.6
2764.211	136.6
2767.695	127.6
2771.175	121.6
2774.652	116.6
2778.127	123.6
2781.598	116.6
2785.067	132.6
2788.532	126.6
2791.995	124.6
2795.455	133.6
2798.911	123.6
2802.365	128.6
2805.816	125.6
2809.264	126.6
2812.709	126.6
2816.151	132.6
2819.59	125.6
2823.026	128.6
2826.46	121.6
2829.89	126.6
2833.318	125.6
2836.742	130.6
2840.164	126.6
2843.583	139.6
2846.999	132.6
2850.412	134.6
2853.822	123.6
2857.229	130.6
2860.634	140.6
2864.035	143.6
2867.434	146.6
2870.83	158.6
2874.223	165.6
2877.613	161.6
2881	181.6
2884.385	179.6
2887.766	168.6
2891.145	171.6
2894.521	175.6
2897.894	180.6
2901.264	177.6
2904.631	171.6
2907.996	183.6
2911.358	179.6
2914.717	188.6
2918.073	192.6
2921.426	202.6
2924.777	205.6
2928.124	201.6
2931.469	213.6
2934.811	226.6
2938.15	223.6
2941.487	230.6
2944.821	228.6
2948.152	233.6
2951.48	228.6
2954.805	235.6
2958.128	231.6
2961.447	213.6
2964.765	235.6
2968.079	219.6
2971.39	228.6
2974.699	223.6
2978.005	221.6
2981.308	232.6
2984.609	221.6
2987.907	233.6
2991.202	232.6
2994.494	242.6
2997.784	238.6
3001.07	252.6
3004.355	248.6
3007.636	250.6
3010.915	256.6
3014.191	261.6
3017.464	263.6
3020.734	266.6
3024.002	267.6
3027.267	276.6
3030.53	273.6
3033.789	277.6
3037.046	292.6
3040.301	287.6
3043.552	312.6
3046.801	316.6
3050.048	323.6
3053.291	331.6
3056.532	347.6
3059.771	365.6
3063.006	369.6
3066.239	383.6
3069.469	398.6
3072.697	403.6
3075.922	408.6
3079.144	428.6
3082.364	440.6
3085.581	449.6
3088.795	460.6
3092.007	470.6
3095.216	475.6
3098.423	484.6
3101.627	488.6
3104.828	508.6
3108.026	524.6
3111.222	526.6
3114.416	533.6
3117.607	550.6
3120.795	572.6
3123.98	574.6
3127.163	596.6
3130.344	609.6
3133.521	599.6
3136.696	644.6
3139.869	640.6
3143.039	654.6
3146.206	661.6
3149.371	679.6
3152.533	682.6
3155.693	695.6
3158.85	690.6
3162.005	698.6
3165.157	708.6
3168.306	703.6
3171.453	702.6
3174.597	702.6
3177.739	710.6
3180.878	732.6
3184.014	732.6
3187.149	741.6
3190.28	723.6
3193.409	729.6
3196.536	721.6
3199.659	733.6
3202.781	746.6
3205.9	758.6
3209.016	759.6
3212.13	747.6
3215.241	727.6
3218.35	734.6
3221.456	718.6
3224.56	712.6
3227.661	720.6
3230.76	708.6
3233.856	692.6
3236.95	681.6
3240.041	667.6
3243.13	645.6
3246.216	645.6
3249.3	634.6
3252.382	634.6
3255.46	626.6
3258.537	634.6
3261.611	616.6
3264.682	607.6
3267.751	615.6
3270.818	613.6
3273.882	604.6
3276.943	601.6
3280.002	594.6
3283.059	586.6
3286.113	592.6
3289.165	591.6
3292.214	573.6
3295.261	565.6
3298.306	556.6
3301.348	557.6
3304.387	550.6
3307.425	545.6
3310.459	534.6
3313.492	525.6
3316.521	519.6
3319.549	518.6
3322.574	521.6
3325.597	514.6
3328.617	514.6
3331.635	507.6
3334.65	504.6
3337.663	506.6
3340.674	499.6
3343.682	502.6
3346.688	492.6
3349.691	502.6
3352.692	493.6
3355.691	495.6
3358.687	486.6
3361.681	491.6
3364.673	480.6
3367.662	475.6
3370.649	459.6
3373.633	456.6
3376.615	444.6
3379.595	439.6
3382.572	432.6
3385.547	427.6
3388.52	423.6
3391.49	410.6
3394.458	401.6
3397.424	396.6
3400.387	396.6
3403.348	393.6
3406.307	384.6
3409.263	381.6
3412.217	389.6
3415.168	371.6
3418.118	367.6
3421.065	363.6
3424.009	359.6
3426.951	343.6
3429.891	334.6
3432.829	333.6
3435.764	328.6
3438.697	324.6
3441.628	303.6
3444.557	305.6
3447.483	286.6
3450.407	280.6
3453.328	267.6
3456.247	252.6
3459.164	243.6
3462.079	234.6
3464.991	228.6
3467.902	228.6
3470.809	217.6
3473.715	201.6
3476.618	181.6
3479.519	184.6
3482.418	170.6
3485.315	163.6
3488.209	152.6
3491.101	152.6
3493.99	156.6
3496.878	145.6
3499.763	134.6
3502.646	122.6
3505.527	104.6
3508.405	114.6
3511.281	97.6
3514.155	99.6
3517.027	94.6
3519.897	74.6
3522.764	75.6
3525.629	68.6
3528.492	50.6
3531.352	48.6
3534.211	45.6
3537.067	33.6
3539.921	32.6
3542.773	25.6
3545.622	15.6
3548.469	12.6
3551.315	7.6
3554.157	-4.4
3556.998	-10.4
3559.837	-10.4
3562.673	-13.4
3565.507	-9.4
3568.339	-26.4
3571.169	-24.4
3573.996	-31.4
3576.822	-30.4
3579.645	-32.4
3582.466	-34.4
3585.285	-45.4
3588.101	-32.4
3590.916	-47.4
3593.728	-60.4
3596.538	-49.4
3599.346	-60.4
3602.152	-59.4
3604.956	-65.4
3607.757	-64.4
3610.556	-71.4
3613.354	-65.4
3616.149	-81.4
3618.942	-79.4
3621.732	-78.4
3624.521	-82.4
3627.307	-78.4
3630.092	-83.4
3632.874	-82.4
3635.654	-89.4
3638.432	-87.4
3641.208	-89.4
3643.982	-96.4
3646.753	-100.4
3649.523	-103.4
3652.29	-94.4
3655.055	-95.4
3657.818	-101.4
3660.579	-99.4
3663.338	-101.4
3666.095	-106.4
3668.849	-111.4
3671.602	-113.4
3674.352	-111.4
3677.101	-120.4
3679.847	-118.4
3682.591	-116.4
3685.333	-111.4
3688.073	-119.4
3690.811	-121.4
3693.547	-127.4
3696.281	-126.4
3699.013	-129.4
3701.742	-122.4
3704.47	-123.4
3707.195	-119.4
3709.919	-127.4
3712.64	-128.4
3715.359	-132.4
3718.076	-131.4
3720.792	-129.4
3723.505	-131.4
3726.216	-126.4
3728.925	-134.4
3731.632	-133.4
3734.336	-138.4
3737.039	-131.4
3739.74	-141.4
3742.439	-141.4
3745.136	-128.4
3747.83	-140.4
3750.523	-136.4
3753.213	-131.4
3755.902	-135.4
3758.589	-146.4
3761.273	-134.4
3763.956	-134.4
3766.636	-137.4
3769.315	-127.4
3771.991	-127.4
3774.665	-142.4
3777.338	-133.4
3780.008	-139.4
3782.677	-141.4
3785.343	-139.4
3788.007	-142.4
3790.67	-142.4
3793.33	-135.4
3795.989	-139.4
3798.645	-138.4
3801.299	-138.4
3803.952	-147.4
3806.602	-139.4
3809.251	-140.4
3811.897	-143.4
3814.542	-143.4
3817.184	-131.4
3819.825	-141.4
3822.463	-143.4
3825.1	-139.4
3827.735	-143.4
3830.367	-138.4
3832.998	-145.4
3835.627	-138.4
3838.253	-138.4
3840.878	-141.4
3843.501	-137.4
3846.122	-147.4
3848.741	-150.4
3851.358	-144.4
3853.973	-145.4
3856.586	-135.4
3859.197	-148.4
3861.806	-140.4
3864.414	-146.4
3867.019	-138.4
3869.622	-143.4
3872.224	-130.4
3874.823	-121.4
3877.421	-106.4
3880.016	-81.4
3882.61	-60.4
3885.202	-60.4
3887.792	-80.4
3890.38	-107.4
3892.966	-131.4
3895.55	-135.4
3898.132	-140.4
3900.713	-141.4
3903.291	-144.4
3905.868	-148.4
3908.442	-143.4
3911.015	-145.4
3913.586	-144.4
3916.155	-143.4
3918.722	-145.4
3921.287	-140.4
3923.85	-144.4
3926.411	-145.4
3928.971	-142.4
3931.528	-148.4
3934.084	-141.4
3936.638	-137.4
3939.19	-146.4
3941.74	-152.4
3944.288	-143.4
3946.834	-143.4
3949.378	-143.4
3951.921	-144.4
3954.462	-152.4
3957	-143.4
3959.537	-138.4
3962.072	-144.4
3964.606	-145.4
3967.137	-141.4
3969.667	-145.4
3972.194	-150.4
3974.72	-147.4
3977.244	-144.4
3979.766	-147.4
3982.286	-141.4
3984.805	-147.4
3987.321	-146.4
3989.836	-137.4
3992.349	-147.4
3994.86	-144.4
3997.369	-149.4
3999.877	-142.4
4002.382	-142.4
4004.886	-148.4
4007.388	-136.4
4009.888	-140.4
4012.386	-142.4
4014.883	-140.4
4017.377	-138.4
4019.87	-141.4
4022.361	-144.4
4024.85	-142.4
4027.338	-144.4
4029.823	-139.4
4032.307	-135.4
4034.789	-145.4
4037.269	-142.4
4039.747	-140.4
4042.224	-140.4
4044.699	-148.4
4047.172	-142.4
4049.643	-140.4
4052.112	-138.4
4054.58	-142.4
4057.046	-140.4
4059.51	-149.4
4061.972	-140.4
4064.432	-143.4
4066.891	-144.4
4069.348	-139.4
4071.803	-145.4
4074.256	-142.4
4076.708	-141.4
4079.158	-143.4
4081.606	-141.4
4084.052	-150.4
4086.497	-142.4
4088.939	-135.4
4091.38	-143.4
4093.819	-140.4
4096.257	-151.4
4098.693	-145.4
4101.127	-150.4
4103.559	-148.4
4105.989	10.6
4108.418	14.6
4110.845	11.6
4113.27	3.6
4115.694	-3.4
4118.115	-1.4
4120.535	-148.4
4122.954	-150.4
4125.37	-146.4
4127.785	-143.4
4130.198	-143.4
4132.609	-134.4
4135.019	-147.4
4137.427	-151.4
4139.833	-150.4
4142.237	-153.4
