Data from 2018-2-8_conc=6_n=2_RamanShift_01.txt Node
Date: Mon Mar 12 16:26:28 IST 2018
User: aro
Spectrometer: QEPB0276
Trigger mode: 0
Integration Time (sec): 3.000000E1
Scans to average: 1
Electric dark correction enabled: true
Nonlinearity correction enabled: false
Boxcar width: 0
XAxis mode: Raman Shifts
Number of Pixels in Spectrum: 1044
>>>>>Begin Spectral Data<<<<<
160.701	15.6
166.742	52.6
172.777	114.6
178.805	345.6
184.826	925.6
190.841	1966.6
196.849	3257.6
202.85	4230.6
208.845	4624.6
214.833	4623.6
220.815	4538.6
226.789	4514.6
232.758	4549.6
238.719	4518.6
244.674	4513.6
250.623	4461.6
256.565	4403.6
262.5	4341.6
268.429	4268.6
274.351	4223.6
280.267	4225.6
286.176	4183.6
292.079	4191.6
297.975	4185.6
303.865	4153.6
309.748	4147.6
315.625	4165.6
321.495	4132.6
327.359	4128.6
333.217	4117.6
339.068	4150.6
344.912	4163.6
350.751	4178.6
356.583	4165.6
362.408	4169.6
368.227	4180.6
374.04	4207.6
379.847	4239.6
385.647	4245.6
391.44	4230.6
397.228	4284.6
403.009	4324.6
408.784	4299.6
414.553	4342.6
420.315	4341.6
426.071	4380.6
431.821	4348.6
437.565	4348.6
443.302	4327.6
449.033	4306.6
454.758	4281.6
460.477	4256.6
466.189	4262.6
471.896	4226.6
477.596	4204.6
483.29	4166.6
488.978	4203.6
494.66	4169.6
500.335	4103.6
506.005	3973.6
511.668	3825.6
517.325	3683.6
522.977	3611.6
528.622	3498.6
534.261	3447.6
539.894	3390.6
545.521	3362.6
551.141	3329.6
556.756	3331.6
562.365	3277.6
567.968	3250.6
573.565	3253.6
579.155	3232.6
584.74	3202.6
590.319	3195.6
595.892	3199.6
601.459	3194.6
607.02	3193.6
612.575	3160.6
618.124	3137.6
623.667	3094.6
629.204	3066.6
634.735	3031.6
640.261	3037.6
645.781	2989.6
651.294	3012.6
656.802	3001.6
662.304	2980.6
667.8	2967.6
673.29	2962.6
678.775	2933.6
684.254	2943.6
689.726	2929.6
695.193	2915.6
700.655	2885.6
706.11	2880.6
711.56	2859.6
717.004	2846.6
722.442	2838.6
727.874	2817.6
733.301	2809.6
738.722	2815.6
744.137	2792.6
749.547	2790.6
754.951	2787.6
760.349	2809.6
765.741	2786.6
771.128	2784.6
776.509	2832.6
781.885	2868.6
787.254	2872.6
792.618	2879.6
797.977	2856.6
803.33	2828.6
808.677	2797.6
814.019	2824.6
819.355	2777.6
824.686	2770.6
830.011	2730.6
835.33	2722.6
840.644	2730.6
845.952	2729.6
851.255	2698.6
856.552	2692.6
861.844	2665.6
867.13	2662.6
872.41	2647.6
877.686	2618.6
882.955	2601.6
888.219	2579.6
893.478	2549.6
898.731	2494.6
903.979	2461.6
909.221	2475.6
914.458	2450.6
919.69	2456.6
924.916	2457.6
930.136	2457.6
935.351	2433.6
940.561	2461.6
945.766	2446.6
950.965	2461.6
956.158	2418.6
961.347	2411.6
966.529	2379.6
971.707	2320.6
976.879	2290.6
982.046	2282.6
987.208	2281.6
992.364	2276.6
997.515	2281.6
1002.66	2302.6
1007.801	2325.6
1012.936	2336.6
1018.066	2330.6
1023.19	2339.6
1028.309	2349.6
1033.423	2357.6
1038.532	2335.6
1043.636	2332.6
1048.734	2293.6
1053.827	2272.6
1058.915	2257.6
1063.998	2215.6
1069.075	2228.6
1074.147	2221.6
1079.214	2223.6
1084.276	2226.6
1089.333	2238.6
1094.385	2257.6
1099.431	2242.6
1104.472	2245.6
1109.509	2236.6
1114.54	2206.6
1119.565	2155.6
1124.586	2135.6
1129.602	2117.6
1134.613	2089.6
1139.618	2083.6
1144.619	2091.6
1149.614	2077.6
1154.604	2085.6
1159.589	2094.6
1164.57	2092.6
1169.545	2093.6
1174.515	2111.6
1179.48	2108.6
1184.44	2092.6
1189.395	2044.6
1194.345	2056.6
1199.29	2047.6
1204.23	2026.6
1209.165	2029.6
1214.095	2046.6
1219.021	2043.6
1223.941	2078.6
1228.856	2079.6
1233.766	2081.6
1238.672	2085.6
1243.572	2085.6
1248.467	2073.6
1253.358	2026.6
1258.244	2015.6
1263.124	1986.6
1268	1937.6
1272.871	1922.6
1277.737	1918.6
1282.599	1900.6
1287.455	1891.6
1292.306	1891.6
1297.153	1903.6
1301.995	1923.6
1306.832	1914.6
1311.664	1949.6
1316.491	1944.6
1321.314	1929.6
1326.132	1942.6
1330.945	1916.6
1335.753	1890.6
1340.556	1866.6
1345.354	1824.6
1350.148	1805.6
1354.937	1795.6
1359.722	1769.6
1364.501	1727.6
1369.276	1701.6
1374.046	1678.6
1378.811	1675.6
1383.572	1650.6
1388.327	1652.6
1393.079	1637.6
1397.825	1633.6
1402.567	1648.6
1407.304	1637.6
1412.036	1658.6
1416.764	1632.6
1421.487	1652.6
1426.205	1647.6
1430.919	1636.6
1435.628	1667.6
1440.333	1686.6
1445.032	1697.6
1449.727	1705.6
1454.418	1712.6
1459.104	1724.6
1463.785	1698.6
1468.462	1672.6
1473.134	1646.6
1477.802	1603.6
1482.465	1561.6
1487.123	1543.6
1491.777	1523.6
1496.426	1498.6
1501.071	1512.6
1505.711	1490.6
1510.347	1497.6
1514.978	1498.6
1519.604	1495.6
1524.226	1506.6
1528.844	1489.6
1533.457	1469.6
1538.065	1476.6
1542.669	1461.6
1547.269	1453.6
1551.864	1461.6
1556.454	1467.6
1561.041	1496.6
1565.622	1480.6
1570.199	1489.6
1574.772	1515.6
1579.34	1511.6
1583.904	1528.6
1588.464	1551.6
1593.019	1569.6
1597.569	1567.6
1602.115	1558.6
1606.657	1544.6
1611.195	1539.6
1615.728	1528.6
1620.256	1547.6
1624.78	1552.6
1629.3	1551.6
1633.816	1556.6
1638.327	1569.6
1642.834	1553.6
1647.336	1585.6
1651.834	1586.6
1656.328	1587.6
1660.817	1554.6
1665.302	1552.6
1669.783	1537.6
1674.259	1507.6
1678.732	1470.6
1683.199	1449.6
1687.663	1404.6
1692.122	1366.6
1696.577	1293.6
1701.028	1259.6
1705.474	1204.6
1709.917	1170.6
1714.355	1141.6
1718.788	1147.6
1723.218	1130.6
1727.643	1136.6
1732.064	1118.6
1736.481	1122.6
1740.893	1097.6
1745.301	1064.6
1749.705	1049.6
1754.105	1038.6
1758.501	1008.6
1762.893	1002.6
1767.28	990.6
1771.663	980.6
1776.042	973.6
1780.417	967.6
1784.787	963.6
1789.154	959.6
1793.516	947.6
1797.874	918.6
1802.228	924.6
1806.578	922.6
1810.924	901.6
1815.266	894.6
1819.603	894.6
1823.937	885.6
1828.266	880.6
1832.591	886.6
1836.913	871.6
1841.23	875.6
1845.543	877.6
1849.852	882.6
1854.156	875.6
1858.457	872.6
1862.754	886.6
1867.047	872.6
1871.335	879.6
1875.62	874.6
1879.9	875.6
1884.177	865.6
1888.449	865.6
1892.718	860.6
1896.982	861.6
1901.243	838.6
1905.499	834.6
1909.752	814.6
1914	800.6
1918.245	815.6
1922.485	787.6
1926.722	792.6
1930.954	790.6
1935.183	783.6
1939.408	780.6
1943.628	778.6
1947.845	770.6
1952.058	753.6
1956.267	761.6
1960.472	753.6
1964.673	728.6
1968.87	723.6
1973.063	727.6
1977.252	708.6
1981.438	725.6
1985.619	713.6
1989.797	718.6
1993.971	723.6
1998.14	726.6
2002.306	707.6
2006.469	721.6
2010.627	720.6
2014.781	724.6
2018.932	702.6
2023.078	713.6
2027.221	724.6
2031.36	715.6
2035.495	697.6
2039.627	687.6
2043.754	680.6
2047.878	679.6
2051.998	671.6
2056.114	675.6
2060.226	681.6
2064.334	672.6
2068.439	669.6
2072.54	663.6
2076.637	678.6
2080.73	655.6
2084.82	672.6
2088.906	647.6
2092.988	641.6
2097.066	631.6
2101.14	625.6
2105.211	627.6
2109.278	612.6
2113.342	603.6
2117.401	590.6
2121.457	594.6
2125.509	599.6
2129.558	589.6
2133.602	610.6
2137.643	593.6
2141.681	594.6
2145.714	581.6
2149.744	586.6
2153.77	570.6
2157.793	581.6
2161.812	578.6
2165.827	569.6
2169.838	563.6
2173.846	550.6
2177.851	533.6
2181.851	533.6
2185.848	524.6
2189.841	514.6
2193.831	531.6
2197.817	513.6
2201.799	508.6
2205.778	506.6
2209.753	506.6
2213.725	511.6
2217.693	507.6
2221.657	500.6
2225.618	504.6
2229.575	507.6
2233.529	493.6
2237.479	495.6
2241.425	497.6
2245.368	473.6
2249.307	475.6
2253.243	462.6
2257.175	442.6
2261.104	446.6
2265.029	443.6
2268.95	449.6
2272.868	431.6
2276.783	424.6
2280.694	415.6
2284.601	420.6
2288.505	424.6
2292.405	408.6
2296.302	404.6
2300.195	404.6
2304.085	400.6
2307.971	375.6
2311.854	386.6
2315.734	367.6
2319.609	360.6
2323.482	362.6
2327.351	365.6
2331.216	372.6
2335.078	389.6
2338.937	366.6
2342.792	351.6
2346.643	342.6
2350.492	343.6
2354.336	342.6
2358.178	352.6
2362.015	353.6
2365.85	350.6
2369.681	346.6
2373.508	345.6
2377.333	348.6
2381.153	340.6
2384.971	350.6
2388.785	357.6
2392.595	343.6
2396.402	327.6
2400.206	343.6
2404.007	342.6
2407.804	320.6
2411.597	318.6
2415.388	325.6
2419.174	321.6
2422.958	317.6
2426.738	314.6
2430.515	311.6
2434.289	318.6
2438.059	317.6
2441.825	305.6
2445.589	305.6
2449.349	301.6
2453.106	302.6
2456.859	300.6
2460.61	285.6
2464.356	284.6
2468.1	279.6
2471.84	273.6
2475.577	282.6
2479.311	268.6
2483.041	274.6
2486.768	272.6
2490.492	262.6
2494.213	274.6
2497.93	262.6
2501.644	269.6
2505.355	257.6
2509.062	255.6
2512.766	259.6
2516.467	254.6
2520.165	245.6
2523.859	257.6
2527.551	249.6
2531.239	234.6
2534.923	234.6
2538.605	235.6
2542.283	235.6
2545.958	233.6
2549.63	230.6
2553.299	217.6
2556.964	229.6
2560.626	224.6
2564.285	222.6
2567.941	219.6
2571.594	215.6
2575.243	219.6
2578.89	210.6
2582.533	204.6
2586.173	207.6
2589.809	191.6
2593.443	208.6
2597.073	198.6
2600.701	194.6
2604.325	187.6
2607.946	186.6
2611.564	187.6
2615.178	185.6
2618.79	187.6
2622.398	192.6
2626.004	185.6
2629.606	180.6
2633.205	182.6
2636.801	170.6
2640.394	179.6
2643.983	170.6
2647.57	178.6
2651.153	174.6
2654.734	173.6
2658.311	161.6
2661.885	150.6
2665.456	159.6
2669.025	158.6
2672.589	160.6
2676.151	158.6
2679.71	157.6
2683.266	154.6
2686.819	149.6
2690.368	142.6
2693.915	138.6
2697.458	143.6
2700.999	146.6
2704.536	140.6
2708.071	130.6
2711.602	127.6
2715.13	134.6
2718.656	123.6
2722.178	124.6
2725.697	123.6
2729.214	115.6
2732.727	133.6
2736.237	121.6
2739.744	120.6
2743.249	121.6
2746.75	114.6
2750.248	115.6
2753.743	104.6
2757.236	105.6
2760.725	113.6
2764.211	104.6
2767.695	106.6
2771.175	99.6
2774.652	95.6
2778.127	95.6
2781.598	102.6
2785.067	109.6
2788.532	106.6
2791.995	106.6
2795.455	93.6
2798.911	93.6
2802.365	102.6
2805.816	106.6
2809.264	98.6
2812.709	104.6
2816.151	100.6
2819.59	110.6
2823.026	102.6
2826.46	89.6
2829.89	98.6
2833.318	98.6
2836.742	114.6
2840.164	103.6
2843.583	107.6
2846.999	110.6
2850.412	95.6
2853.822	102.6
2857.229	107.6
2860.634	109.6
2864.035	114.6
2867.434	116.6
2870.83	128.6
2874.223	126.6
2877.613	131.6
2881	143.6
2884.385	142.6
2887.766	133.6
2891.145	131.6
2894.521	144.6
2897.894	144.6
2901.264	130.6
2904.631	135.6
2907.996	145.6
2911.358	150.6
2914.717	149.6
2918.073	147.6
2921.426	158.6
2924.777	156.6
2928.124	160.6
2931.469	159.6
2934.811	159.6
2938.15	168.6
2941.487	172.6
2944.821	170.6
2948.152	180.6
2951.48	170.6
2954.805	183.6
2958.128	182.6
2961.447	179.6
2964.765	175.6
2968.079	174.6
2971.39	178.6
2974.699	183.6
2978.005	176.6
2981.308	184.6
2984.609	174.6
2987.907	180.6
2991.202	188.6
2994.494	182.6
2997.784	176.6
3001.07	196.6
3004.355	206.6
3007.636	201.6
3010.915	203.6
3014.191	208.6
3017.464	212.6
3020.734	207.6
3024.002	208.6
3027.267	209.6
3030.53	221.6
3033.789	224.6
3037.046	232.6
3040.301	233.6
3043.552	231.6
3046.801	247.6
3050.048	261.6
3053.291	256.6
3056.532	271.6
3059.771	289.6
3063.006	290.6
3066.239	296.6
3069.469	320.6
3072.697	314.6
3075.922	337.6
3079.144	339.6
3082.364	352.6
3085.581	368.6
3088.795	356.6
3092.007	372.6
3095.216	378.6
3098.423	387.6
3101.627	392.6
3104.828	394.6
3108.026	410.6
3111.222	422.6
3114.416	430.6
3117.607	432.6
3120.795	450.6
3123.98	459.6
3127.163	482.6
3130.344	485.6
3133.521	495.6
3136.696	513.6
3139.869	510.6
3143.039	521.6
3146.206	528.6
3149.371	534.6
3152.533	545.6
3155.693	550.6
3158.85	551.6
3162.005	557.6
3165.157	560.6
3168.306	560.6
3171.453	576.6
3174.597	565.6
3177.739	588.6
3180.878	570.6
3184.014	576.6
3187.149	580.6
3190.28	579.6
3193.409	588.6
3196.536	582.6
3199.659	602.6
3202.781	595.6
3205.9	587.6
3209.016	603.6
3212.13	595.6
3215.241	579.6
3218.35	586.6
3221.456	576.6
3224.56	564.6
3227.661	569.6
3230.76	562.6
3233.856	557.6
3236.95	540.6
3240.041	538.6
3243.13	523.6
3246.216	515.6
3249.3	507.6
3252.382	506.6
3255.46	498.6
3258.537	512.6
3261.611	486.6
3264.682	475.6
3267.751	485.6
3270.818	489.6
3273.882	483.6
3276.943	475.6
3280.002	471.6
3283.059	475.6
3286.113	469.6
3289.165	474.6
3292.214	458.6
3295.261	446.6
3298.306	438.6
3301.348	438.6
3304.387	415.6
3307.425	420.6
3310.459	426.6
3313.492	426.6
3316.521	408.6
3319.549	406.6
3322.574	404.6
3325.597	399.6
3328.617	398.6
3331.635	396.6
3334.65	391.6
3337.663	397.6
3340.674	413.6
3343.682	401.6
3346.688	396.6
3349.691	398.6
3352.692	396.6
3355.691	384.6
3358.687	397.6
3361.681	381.6
3364.673	378.6
3367.662	377.6
3370.649	361.6
3373.633	361.6
3376.615	343.6
3379.595	347.6
3382.572	343.6
3385.547	346.6
3388.52	337.6
3391.49	329.6
3394.458	325.6
3397.424	306.6
3400.387	303.6
3403.348	304.6
3406.307	294.6
3409.263	303.6
3412.217	292.6
3415.168	302.6
3418.118	287.6
3421.065	277.6
3424.009	268.6
3426.951	274.6
3429.891	262.6
3432.829	249.6
3435.764	258.6
3438.697	242.6
3441.628	236.6
3444.557	234.6
3447.483	229.6
3450.407	196.6
3453.328	193.6
3456.247	188.6
3459.164	195.6
3462.079	177.6
3464.991	178.6
3467.902	168.6
3470.809	166.6
3473.715	150.6
3476.618	145.6
3479.519	137.6
3482.418	131.6
3485.315	127.6
3488.209	116.6
3491.101	116.6
3493.99	107.6
3496.878	98.6
3499.763	94.6
3502.646	93.6
3505.527	88.6
3508.405	78.6
3511.281	77.6
3514.155	68.6
3517.027	60.6
3519.897	51.6
3522.764	46.6
3525.629	36.6
3528.492	34.6
3531.352	31.6
3534.211	20.6
3537.067	17.6
3539.921	16.6
3542.773	8.6
3545.622	1.6
3548.469	-1.4
3551.315	8.6
3554.157	-7.4
3556.998	-12.4
3559.837	-12.4
3562.673	-14.4
3565.507	-19.4
3568.339	-27.4
3571.169	-30.4
3573.996	-36.4
3576.822	-31.4
3579.645	-43.4
3582.466	-39.4
3585.285	-43.4
3588.101	-40.4
3590.916	-54.4
3593.728	-53.4
3596.538	-57.4
3599.346	-55.4
3602.152	-56.4
3604.956	-62.4
3607.757	-56.4
3610.556	-67.4
3613.354	-67.4
3616.149	-74.4
3618.942	-75.4
3621.732	-78.4
3624.521	-72.4
3627.307	-70.4
3630.092	-79.4
3632.874	-71.4
3635.654	-83.4
3638.432	-79.4
3641.208	-81.4
3643.982	-82.4
3646.753	-84.4
3649.523	-87.4
3652.29	-89.4
3655.055	-85.4
3657.818	-91.4
3660.579	-87.4
3663.338	-93.4
3666.095	-94.4
3668.849	-98.4
3671.602	-99.4
3674.352	-96.4
3677.101	-106.4
3679.847	-104.4
3682.591	-104.4
3685.333	-102.4
3688.073	-102.4
3690.811	-104.4
3693.547	-116.4
3696.281	-114.4
3699.013	-111.4
3701.742	-112.4
3704.47	-113.4
3707.195	-107.4
3709.919	-109.4
3712.64	-112.4
3715.359	-117.4
3718.076	-119.4
3720.792	-119.4
3723.505	-119.4
3726.216	-110.4
3728.925	-119.4
3731.632	-111.4
3734.336	-121.4
3737.039	-116.4
3739.74	-119.4
3742.439	-130.4
3745.136	-114.4
3747.83	-127.4
3750.523	-119.4
3753.213	-117.4
3755.902	-117.4
3758.589	-129.4
3761.273	-122.4
3763.956	-119.4
3766.636	-122.4
3769.315	-117.4
3771.991	-121.4
3774.665	-120.4
3777.338	-117.4
3780.008	-118.4
3782.677	-122.4
3785.343	-126.4
3788.007	-127.4
3790.67	-122.4
3793.33	-116.4
3795.989	-116.4
3798.645	-122.4
3801.299	-120.4
3803.952	-128.4
3806.602	-123.4
3809.251	-133.4
3811.897	-125.4
3814.542	-119.4
3817.184	-116.4
3819.825	-122.4
3822.463	-122.4
3825.1	-126.4
3827.735	-125.4
3830.367	-128.4
3832.998	-125.4
3835.627	-124.4
3838.253	-120.4
3840.878	-125.4
3843.501	-120.4
3846.122	-124.4
3848.741	-132.4
3851.358	-120.4
3853.973	-126.4
3856.586	-120.4
3859.197	-131.4
3861.806	-121.4
3864.414	-123.4
3867.019	-123.4
3869.622	-125.4
3872.224	-116.4
3874.823	-107.4
3877.421	-94.4
3880.016	-65.4
3882.61	-45.4
3885.202	-48.4
3887.792	-57.4
3890.38	-83.4
3892.966	-105.4
3895.55	-114.4
3898.132	-122.4
3900.713	-122.4
3903.291	-128.4
3905.868	-127.4
3908.442	-117.4
3911.015	-127.4
3913.586	-127.4
3916.155	-130.4
3918.722	-124.4
3921.287	-127.4
3923.85	-126.4
3926.411	-132.4
3928.971	-132.4
3931.528	-131.4
3934.084	-128.4
3936.638	-118.4
3939.19	-131.4
3941.74	-128.4
3944.288	-127.4
3946.834	-122.4
3949.378	-128.4
3951.921	-125.4
3954.462	-133.4
3957	-124.4
3959.537	-123.4
3962.072	-128.4
3964.606	-124.4
3967.137	-125.4
3969.667	-126.4
3972.194	-127.4
3974.72	-126.4
3977.244	-126.4
3979.766	-128.4
3982.286	-123.4
3984.805	-129.4
3987.321	-131.4
3989.836	-119.4
3992.349	-126.4
3994.86	-126.4
3997.369	-132.4
3999.877	-130.4
4002.382	-123.4
4004.886	-128.4
4007.388	-126.4
4009.888	-128.4
4012.386	-126.4
4014.883	-124.4
4017.377	-131.4
4019.87	-126.4
4022.361	-132.4
4024.85	-130.4
4027.338	-124.4
4029.823	-124.4
4032.307	-118.4
4034.789	-130.4
4037.269	-126.4
4039.747	-123.4
4042.224	-119.4
4044.699	-131.4
4047.172	-121.4
4049.643	-119.4
4052.112	-124.4
4054.58	-126.4
4057.046	-128.4
4059.51	-132.4
4061.972	-123.4
4064.432	-125.4
4066.891	-119.4
4069.348	-123.4
4071.803	-129.4
4074.256	-124.4
4076.708	-123.4
4079.158	-125.4
4081.606	-117.4
4084.052	-131.4
4086.497	-119.4
4088.939	-118.4
4091.38	-124.4
4093.819	-127.4
4096.257	-132.4
4098.693	-125.4
4101.127	-127.4
4103.559	-129.4
4105.989	24.6
4108.418	7.6
4110.845	11.6
4113.27	13.6
4115.694	10.6
4118.115	7.6
4120.535	-133.4
4122.954	-130.4
4125.37	-122.4
4127.785	-125.4
4130.198	-122.4
4132.609	-125.4
4135.019	-129.4
4137.427	-134.4
4139.833	-132.4
4142.237	-132.4
