Data from 2018-2-8_conc=3_n=1_RamanShift_03.txt Node
Date: Mon Mar 12 14:29:28 IST 2018
User: aro
Spectrometer: QEPB0276
Trigger mode: 0
Integration Time (sec): 3.000000E1
Scans to average: 1
Electric dark correction enabled: true
Nonlinearity correction enabled: false
Boxcar width: 0
XAxis mode: Raman Shifts
Number of Pixels in Spectrum: 1044
>>>>>Begin Spectral Data<<<<<
160.701	11.1
166.742	46.1
172.777	131.1
178.805	397.1
184.826	1094.1
190.841	2317.1
196.849	3901.1
202.85	5098.1
208.845	5534.1
214.833	5603.1
220.815	5502.1
226.789	5476.1
232.758	5498.1
238.719	5458.1
244.674	5452.1
250.623	5375.1
256.565	5300.1
262.5	5242.1
268.429	5125.1
274.351	5089.1
280.267	5050.1
286.176	5020.1
292.079	5016.1
297.975	4986.1
303.865	5005.1
309.748	4958.1
315.625	4927.1
321.495	4951.1
327.359	4961.1
333.217	4937.1
339.068	4928.1
344.912	4965.1
350.751	4956.1
356.583	4980.1
362.408	4971.1
368.227	4956.1
374.04	4979.1
379.847	5004.1
385.647	5016.1
391.44	5044.1
397.228	5055.1
403.009	5095.1
408.784	5103.1
414.553	5129.1
420.315	5133.1
426.071	5142.1
431.821	5121.1
437.565	5141.1
443.302	5121.1
449.033	5114.1
454.758	5074.1
460.477	5055.1
466.189	5043.1
471.896	4982.1
477.596	4980.1
483.29	4983.1
488.978	4932.1
494.66	4914.1
500.335	4896.1
506.005	4784.1
511.668	4609.1
517.325	4469.1
522.977	4340.1
528.622	4304.1
534.261	4236.1
539.894	4172.1
545.521	4137.1
551.141	4140.1
556.756	4104.1
562.365	4068.1
567.968	4052.1
573.565	4030.1
579.155	3993.1
584.74	3974.1
590.319	3969.1
595.892	3956.1
601.459	3911.1
607.02	3935.1
612.575	3894.1
618.124	3870.1
623.667	3825.1
629.204	3805.1
634.735	3780.1
640.261	3758.1
645.781	3739.1
651.294	3729.1
656.802	3691.1
662.304	3695.1
667.8	3701.1
673.29	3709.1
678.775	3700.1
684.254	3688.1
689.726	3661.1
695.193	3631.1
700.655	3608.1
706.11	3589.1
711.56	3572.1
717.004	3559.1
722.442	3557.1
727.874	3526.1
733.301	3507.1
738.722	3494.1
744.137	3467.1
749.547	3496.1
754.951	3485.1
760.349	3457.1
765.741	3496.1
771.128	3484.1
776.509	3507.1
781.885	3537.1
787.254	3512.1
792.618	3550.1
797.977	3517.1
803.33	3481.1
808.677	3475.1
814.019	3460.1
819.355	3427.1
824.686	3392.1
830.011	3373.1
835.33	3390.1
840.644	3402.1
845.952	3372.1
851.255	3365.1
856.552	3354.1
861.844	3330.1
867.13	3311.1
872.41	3298.1
877.686	3287.1
882.955	3244.1
888.219	3227.1
893.478	3187.1
898.731	3133.1
903.979	3127.1
909.221	3053.1
914.458	3055.1
919.69	3046.1
924.916	3059.1
930.136	3064.1
935.351	3097.1
940.561	3075.1
945.766	3048.1
950.965	3059.1
956.158	3011.1
961.347	2999.1
966.529	2965.1
971.707	2922.1
976.879	2893.1
982.046	2849.1
987.208	2855.1
992.364	2854.1
997.515	2838.1
1002.66	2858.1
1007.801	2915.1
1012.936	2933.1
1018.066	2930.1
1023.19	2919.1
1028.309	2943.1
1033.423	2934.1
1038.532	2919.1
1043.636	2871.1
1048.734	2839.1
1053.827	2828.1
1058.915	2796.1
1063.998	2736.1
1069.075	2780.1
1074.147	2763.1
1079.214	2763.1
1084.276	2782.1
1089.333	2805.1
1094.385	2787.1
1099.431	2822.1
1104.472	2803.1
1109.509	2798.1
1114.54	2756.1
1119.565	2718.1
1124.586	2669.1
1129.602	2664.1
1134.613	2608.1
1139.618	2609.1
1144.619	2599.1
1149.614	2609.1
1154.604	2635.1
1159.589	2614.1
1164.57	2622.1
1169.545	2644.1
1174.515	2616.1
1179.48	2603.1
1184.44	2598.1
1189.395	2555.1
1194.345	2552.1
1199.29	2540.1
1204.23	2525.1
1209.165	2549.1
1214.095	2563.1
1219.021	2579.1
1223.941	2566.1
1228.856	2595.1
1233.766	2605.1
1238.672	2588.1
1243.572	2598.1
1248.467	2556.1
1253.358	2537.1
1258.244	2506.1
1263.124	2461.1
1268	2436.1
1272.871	2394.1
1277.737	2392.1
1282.599	2368.1
1287.455	2353.1
1292.306	2383.1
1297.153	2383.1
1301.995	2404.1
1306.832	2421.1
1311.664	2450.1
1316.491	2421.1
1321.314	2418.1
1326.132	2415.1
1330.945	2353.1
1335.753	2335.1
1340.556	2309.1
1345.354	2281.1
1350.148	2245.1
1354.937	2205.1
1359.722	2153.1
1364.501	2126.1
1369.276	2094.1
1374.046	2069.1
1378.811	2039.1
1383.572	2022.1
1388.327	2022.1
1393.079	2018.1
1397.825	2027.1
1402.567	2039.1
1407.304	2021.1
1412.036	2030.1
1416.764	2038.1
1421.487	2048.1
1426.205	2057.1
1430.919	2055.1
1435.628	2046.1
1440.333	2078.1
1445.032	2079.1
1449.727	2097.1
1454.418	2111.1
1459.104	2116.1
1463.785	2076.1
1468.462	2057.1
1473.134	2003.1
1477.802	1970.1
1482.465	1935.1
1487.123	1863.1
1491.777	1862.1
1496.426	1847.1
1501.071	1817.1
1505.711	1820.1
1510.347	1812.1
1514.978	1809.1
1519.604	1783.1
1524.226	1799.1
1528.844	1789.1
1533.457	1774.1
1538.065	1772.1
1542.669	1772.1
1547.269	1744.1
1551.864	1772.1
1556.454	1783.1
1561.041	1788.1
1565.622	1810.1
1570.199	1835.1
1574.772	1842.1
1579.34	1872.1
1583.904	1868.1
1588.464	1898.1
1593.019	1886.1
1597.569	1897.1
1602.115	1893.1
1606.657	1885.1
1611.195	1886.1
1615.728	1868.1
1620.256	1869.1
1624.78	1889.1
1629.3	1872.1
1633.816	1879.1
1638.327	1906.1
1642.834	1900.1
1647.336	1912.1
1651.834	1926.1
1656.328	1912.1
1660.817	1894.1
1665.302	1877.1
1669.783	1857.1
1674.259	1806.1
1678.732	1764.1
1683.199	1722.1
1687.663	1660.1
1692.122	1608.1
1696.577	1558.1
1701.028	1475.1
1705.474	1411.1
1709.917	1379.1
1714.355	1348.1
1718.788	1340.1
1723.218	1346.1
1727.643	1350.1
1732.064	1334.1
1736.481	1338.1
1740.893	1287.1
1745.301	1290.1
1749.705	1249.1
1754.105	1220.1
1758.501	1199.1
1762.893	1201.1
1767.28	1176.1
1771.663	1173.1
1776.042	1163.1
1780.417	1146.1
1784.787	1109.1
1789.154	1122.1
1793.516	1112.1
1797.874	1101.1
1802.228	1073.1
1806.578	1069.1
1810.924	1073.1
1815.266	1041.1
1819.603	1039.1
1823.937	1043.1
1828.266	1030.1
1832.591	1040.1
1836.913	1037.1
1841.23	1038.1
1845.543	1045.1
1849.852	1032.1
1854.156	1041.1
1858.457	1049.1
1862.754	1024.1
1867.047	1044.1
1871.335	1045.1
1875.62	1038.1
1879.9	1038.1
1884.177	1022.1
1888.449	1012.1
1892.718	1007.1
1896.982	973.1
1901.243	957.1
1905.499	963.1
1909.752	950.1
1914	941.1
1918.245	945.1
1922.485	918.1
1926.722	911.1
1930.954	904.1
1935.183	901.1
1939.408	884.1
1943.628	894.1
1947.845	885.1
1952.058	889.1
1956.267	861.1
1960.472	863.1
1964.673	841.1
1968.87	846.1
1973.063	831.1
1977.252	835.1
1981.438	839.1
1985.619	834.1
1989.797	830.1
1993.971	835.1
1998.14	850.1
2002.306	846.1
2006.469	842.1
2010.627	840.1
2014.781	854.1
2018.932	843.1
2023.078	850.1
2027.221	846.1
2031.36	841.1
2035.495	814.1
2039.627	801.1
2043.754	784.1
2047.878	798.1
2051.998	787.1
2056.114	778.1
2060.226	780.1
2064.334	772.1
2068.439	772.1
2072.54	764.1
2076.637	772.1
2080.73	757.1
2084.82	768.1
2088.906	758.1
2092.988	746.1
2097.066	741.1
2101.14	715.1
2105.211	723.1
2109.278	707.1
2113.342	698.1
2117.401	700.1
2121.457	687.1
2125.509	676.1
2129.558	684.1
2133.602	682.1
2137.643	685.1
2141.681	677.1
2145.714	685.1
2149.744	680.1
2153.77	695.1
2157.793	675.1
2161.812	675.1
2165.827	669.1
2169.838	653.1
2173.846	645.1
2177.851	647.1
2181.851	623.1
2185.848	616.1
2189.841	625.1
2193.831	625.1
2197.817	598.1
2201.799	610.1
2205.778	606.1
2209.753	592.1
2213.725	591.1
2217.693	593.1
2221.657	604.1
2225.618	592.1
2229.575	592.1
2233.529	596.1
2237.479	578.1
2241.425	585.1
2245.368	553.1
2249.307	554.1
2253.243	549.1
2257.175	533.1
2261.104	544.1
2265.029	525.1
2268.95	522.1
2272.868	522.1
2276.783	495.1
2280.694	499.1
2284.601	495.1
2288.505	498.1
2292.405	492.1
2296.302	483.1
2300.195	471.1
2304.085	469.1
2307.971	465.1
2311.854	453.1
2315.734	443.1
2319.609	438.1
2323.482	441.1
2327.351	445.1
2331.216	446.1
2335.078	464.1
2338.937	439.1
2342.792	431.1
2346.643	424.1
2350.492	419.1
2354.336	417.1
2358.178	426.1
2362.015	428.1
2365.85	436.1
2369.681	419.1
2373.508	431.1
2377.333	432.1
2381.153	427.1
2384.971	431.1
2388.785	425.1
2392.595	417.1
2396.402	417.1
2400.206	420.1
2404.007	415.1
2407.804	404.1
2411.597	404.1
2415.388	387.1
2419.174	395.1
2422.958	393.1
2426.738	406.1
2430.515	390.1
2434.289	392.1
2438.059	381.1
2441.825	379.1
2445.589	376.1
2449.349	367.1
2453.106	373.1
2456.859	367.1
2460.61	375.1
2464.356	351.1
2468.1	347.1
2471.84	344.1
2475.577	346.1
2479.311	336.1
2483.041	341.1
2486.768	346.1
2490.492	332.1
2494.213	336.1
2497.93	332.1
2501.644	321.1
2505.355	322.1
2509.062	319.1
2512.766	330.1
2516.467	314.1
2520.165	311.1
2523.859	313.1
2527.551	301.1
2531.239	298.1
2534.923	292.1
2538.605	285.1
2542.283	291.1
2545.958	274.1
2549.63	282.1
2553.299	276.1
2556.964	270.1
2560.626	273.1
2564.285	260.1
2567.941	269.1
2571.594	273.1
2575.243	262.1
2578.89	252.1
2582.533	253.1
2586.173	242.1
2589.809	238.1
2593.443	246.1
2597.073	248.1
2600.701	228.1
2604.325	232.1
2607.946	233.1
2611.564	234.1
2615.178	234.1
2618.79	228.1
2622.398	237.1
2626.004	231.1
2629.606	229.1
2633.205	225.1
2636.801	222.1
2640.394	207.1
2643.983	218.1
2647.57	216.1
2651.153	219.1
2654.734	210.1
2658.311	203.1
2661.885	200.1
2665.456	205.1
2669.025	200.1
2672.589	197.1
2676.151	193.1
2679.71	194.1
2683.266	198.1
2686.819	188.1
2690.368	188.1
2693.915	184.1
2697.458	173.1
2700.999	168.1
2704.536	175.1
2708.071	161.1
2711.602	162.1
2715.13	164.1
2718.656	154.1
2722.178	152.1
2725.697	151.1
2729.214	146.1
2732.727	152.1
2736.237	157.1
2739.744	147.1
2743.249	146.1
2746.75	141.1
2750.248	142.1
2753.743	141.1
2757.236	124.1
2760.725	128.1
2764.211	126.1
2767.695	131.1
2771.175	114.1
2774.652	122.1
2778.127	121.1
2781.598	122.1
2785.067	121.1
2788.532	129.1
2791.995	122.1
2795.455	123.1
2798.911	126.1
2802.365	130.1
2805.816	127.1
2809.264	117.1
2812.709	129.1
2816.151	132.1
2819.59	131.1
2823.026	123.1
2826.46	127.1
2829.89	127.1
2833.318	116.1
2836.742	132.1
2840.164	124.1
2843.583	128.1
2846.999	128.1
2850.412	129.1
2853.822	133.1
2857.229	125.1
2860.634	135.1
2864.035	143.1
2867.434	143.1
2870.83	155.1
2874.223	152.1
2877.613	165.1
2881	172.1
2884.385	167.1
2887.766	164.1
2891.145	163.1
2894.521	163.1
2897.894	173.1
2901.264	189.1
2904.631	168.1
2907.996	179.1
2911.358	170.1
2914.717	168.1
2918.073	187.1
2921.426	189.1
2924.777	193.1
2928.124	200.1
2931.469	203.1
2934.811	206.1
2938.15	204.1
2941.487	216.1
2944.821	213.1
2948.152	214.1
2951.48	226.1
2954.805	228.1
2958.128	210.1
2961.447	202.1
2964.765	214.1
2968.079	209.1
2971.39	214.1
2974.699	216.1
2978.005	222.1
2981.308	227.1
2984.609	221.1
2987.907	207.1
2991.202	227.1
2994.494	223.1
2997.784	215.1
3001.07	226.1
3004.355	244.1
3007.636	235.1
3010.915	244.1
3014.191	236.1
3017.464	249.1
3020.734	245.1
3024.002	247.1
3027.267	253.1
3030.53	267.1
3033.789	270.1
3037.046	275.1
3040.301	278.1
3043.552	301.1
3046.801	301.1
3050.048	311.1
3053.291	318.1
3056.532	325.1
3059.771	343.1
3063.006	343.1
3066.239	361.1
3069.469	360.1
3072.697	374.1
3075.922	385.1
3079.144	403.1
3082.364	416.1
3085.581	417.1
3088.795	432.1
3092.007	430.1
3095.216	429.1
3098.423	456.1
3101.627	470.1
3104.828	473.1
3108.026	478.1
3111.222	507.1
3114.416	513.1
3117.607	517.1
3120.795	532.1
3123.98	539.1
3127.163	544.1
3130.344	572.1
3133.521	587.1
3136.696	593.1
3139.869	588.1
3143.039	610.1
3146.206	607.1
3149.371	626.1
3152.533	642.1
3155.693	631.1
3158.85	662.1
3162.005	666.1
3165.157	659.1
3168.306	656.1
3171.453	643.1
3174.597	663.1
3177.739	667.1
3180.878	671.1
3184.014	681.1
3187.149	682.1
3190.28	671.1
3193.409	678.1
3196.536	673.1
3199.659	694.1
3202.781	684.1
3205.9	697.1
3209.016	694.1
3212.13	690.1
3215.241	682.1
3218.35	660.1
3221.456	674.1
3224.56	668.1
3227.661	657.1
3230.76	648.1
3233.856	636.1
3236.95	626.1
3240.041	624.1
3243.13	606.1
3246.216	610.1
3249.3	594.1
3252.382	597.1
3255.46	589.1
3258.537	577.1
3261.611	567.1
3264.682	569.1
3267.751	561.1
3270.818	558.1
3273.882	542.1
3276.943	550.1
3280.002	553.1
3283.059	561.1
3286.113	543.1
3289.165	534.1
3292.214	537.1
3295.261	526.1
3298.306	516.1
3301.348	509.1
3304.387	506.1
3307.425	506.1
3310.459	491.1
3313.492	502.1
3316.521	485.1
3319.549	490.1
3322.574	467.1
3325.597	469.1
3328.617	481.1
3331.635	477.1
3334.65	475.1
3337.663	456.1
3340.674	460.1
3343.682	462.1
3346.688	455.1
3349.691	468.1
3352.692	454.1
3355.691	456.1
3358.687	443.1
3361.681	457.1
3364.673	436.1
3367.662	426.1
3370.649	428.1
3373.633	428.1
3376.615	409.1
3379.595	406.1
3382.572	399.1
3385.547	396.1
3388.52	389.1
3391.49	388.1
3394.458	378.1
3397.424	367.1
3400.387	368.1
3403.348	365.1
3406.307	351.1
3409.263	348.1
3412.217	346.1
3415.168	349.1
3418.118	337.1
3421.065	332.1
3424.009	329.1
3426.951	325.1
3429.891	316.1
3432.829	298.1
3435.764	305.1
3438.697	284.1
3441.628	281.1
3444.557	271.1
3447.483	255.1
3450.407	247.1
3453.328	235.1
3456.247	237.1
3459.164	225.1
3462.079	213.1
3464.991	199.1
3467.902	195.1
3470.809	198.1
3473.715	180.1
3476.618	172.1
3479.519	165.1
3482.418	158.1
3485.315	151.1
3488.209	135.1
3491.101	135.1
3493.99	135.1
3496.878	126.1
3499.763	116.1
3502.646	109.1
3505.527	101.1
3508.405	98.1
3511.281	88.1
3514.155	77.1
3517.027	70.1
3519.897	67.1
3522.764	63.1
3525.629	52.1
3528.492	40.1
3531.352	38.1
3534.211	31.1
3537.067	17.1
3539.921	15.1
3542.773	17.1
3545.622	7.1
3548.469	4.1
3551.315	-0.9
3554.157	-1.9
3556.998	-19.9
3559.837	-16.9
3562.673	-19.9
3565.507	-23.9
3568.339	-25.9
3571.169	-41.9
3573.996	-28.9
3576.822	-32.9
3579.645	-35.9
3582.466	-38.9
3585.285	-46.9
3588.101	-44.9
3590.916	-57.9
3593.728	-62.9
3596.538	-60.9
3599.346	-58.9
3602.152	-55.9
3604.956	-65.9
3607.757	-67.9
3610.556	-74.9
3613.354	-74.9
3616.149	-77.9
3618.942	-83.9
3621.732	-79.9
3624.521	-74.9
3627.307	-79.9
3630.092	-83.9
3632.874	-83.9
3635.654	-88.9
3638.432	-91.9
3641.208	-96.9
3643.982	-96.9
3646.753	-97.9
3649.523	-97.9
3652.29	-95.9
3655.055	-100.9
3657.818	-104.9
3660.579	-99.9
3663.338	-102.9
3666.095	-105.9
3668.849	-110.9
3671.602	-111.9
3674.352	-111.9
3677.101	-118.9
3679.847	-113.9
3682.591	-116.9
3685.333	-110.9
3688.073	-113.9
3690.811	-119.9
3693.547	-123.9
3696.281	-122.9
3699.013	-122.9
3701.742	-129.9
3704.47	-128.9
3707.195	-119.9
3709.919	-123.9
3712.64	-121.9
3715.359	-131.9
3718.076	-124.9
3720.792	-128.9
3723.505	-133.9
3726.216	-130.9
3728.925	-128.9
3731.632	-127.9
3734.336	-136.9
3737.039	-131.9
3739.74	-134.9
3742.439	-130.9
3745.136	-129.9
3747.83	-139.9
3750.523	-133.9
3753.213	-132.9
3755.902	-129.9
3758.589	-132.9
3761.273	-128.9
3763.956	-132.9
3766.636	-137.9
3769.315	-131.9
3771.991	-129.9
3774.665	-144.9
3777.338	-125.9
3780.008	-134.9
3782.677	-136.9
3785.343	-136.9
3788.007	-136.9
3790.67	-142.9
3793.33	-141.9
3795.989	-137.9
3798.645	-131.9
3801.299	-138.9
3803.952	-143.9
3806.602	-137.9
3809.251	-144.9
3811.897	-142.9
3814.542	-142.9
3817.184	-134.9
3819.825	-136.9
3822.463	-135.9
3825.1	-137.9
3827.735	-142.9
3830.367	-141.9
3832.998	-146.9
3835.627	-143.9
3838.253	-137.9
3840.878	-136.9
3843.501	-137.9
3846.122	-136.9
3848.741	-141.9
3851.358	-140.9
3853.973	-140.9
3856.586	-139.9
3859.197	-147.9
3861.806	-130.9
3864.414	-136.9
3867.019	-128.9
3869.622	-135.9
3872.224	-132.9
3874.823	-120.9
3877.421	-100.9
3880.016	-75.9
3882.61	-52.9
3885.202	-47.9
3887.792	-78.9
3890.38	-102.9
3892.966	-128.9
3895.55	-136.9
3898.132	-133.9
3900.713	-138.9
3903.291	-146.9
3905.868	-141.9
3908.442	-138.9
3911.015	-143.9
3913.586	-143.9
3916.155	-144.9
3918.722	-143.9
3921.287	-139.9
3923.85	-138.9
3926.411	-142.9
3928.971	-141.9
3931.528	-145.9
3934.084	-142.9
3936.638	-141.9
3939.19	-144.9
3941.74	-144.9
3944.288	-143.9
3946.834	-139.9
3949.378	-142.9
3951.921	-143.9
3954.462	-153.9
3957	-144.9
3959.537	-136.9
3962.072	-136.9
3964.606	-135.9
3967.137	-137.9
3969.667	-143.9
3972.194	-146.9
3974.72	-141.9
3977.244	-145.9
3979.766	-142.9
3982.286	-135.9
3984.805	-140.9
3987.321	-141.9
3989.836	-135.9
3992.349	-145.9
3994.86	-140.9
3997.369	-137.9
3999.877	-139.9
4002.382	-132.9
4004.886	-146.9
4007.388	-140.9
4009.888	-140.9
4012.386	-138.9
4014.883	-138.9
4017.377	-139.9
4019.87	-138.9
4022.361	-138.9
4024.85	-140.9
4027.338	-137.9
4029.823	-140.9
4032.307	-142.9
4034.789	-143.9
4037.269	-141.9
4039.747	-141.9
4042.224	-137.9
4044.699	-140.9
4047.172	-138.9
4049.643	-139.9
4052.112	-138.9
4054.58	-142.9
4057.046	-138.9
4059.51	-137.9
4061.972	-141.9
4064.432	-140.9
4066.891	-143.9
4069.348	-141.9
4071.803	-143.9
4074.256	-146.9
4076.708	-136.9
4079.158	-135.9
4081.606	-135.9
4084.052	-139.9
4086.497	-140.9
4088.939	-133.9
4091.38	-142.9
4093.819	-142.9
4096.257	-147.9
4098.693	-144.9
4101.127	-147.9
4103.559	-144.9
4105.989	2.1
4108.418	-7.9
4110.845	-9.9
4113.27	-9.9
4115.694	-8.9
4118.115	-4.9
4120.535	-143.9
4122.954	-141.9
4125.37	-138.9
4127.785	-141.9
4130.198	-143.9
4132.609	-138.9
4135.019	-146.9
4137.427	-148.9
4139.833	-143.9
4142.237	-145.9
