Data from 2018-2-8_conc=3_n=10_RamanShift_01.txt Node
Date: Mon Mar 12 14:58:58 IST 2018
User: aro
Spectrometer: QEPB0276
Trigger mode: 0
Integration Time (sec): 3.000000E1
Scans to average: 1
Electric dark correction enabled: true
Nonlinearity correction enabled: false
Boxcar width: 0
XAxis mode: Raman Shifts
Number of Pixels in Spectrum: 1044
>>>>>Begin Spectral Data<<<<<
160.701	20.4
166.742	52.4
172.777	120.4
178.805	351.4
184.826	966.4
190.841	2063.4
196.849	3417.4
202.85	4456.4
208.845	4872.4
214.833	4872.4
220.815	4821.4
226.789	4818.4
232.758	4796.4
238.719	4801.4
244.674	4779.4
250.623	4691.4
256.565	4627.4
262.5	4564.4
268.429	4521.4
274.351	4494.4
280.267	4425.4
286.176	4428.4
292.079	4382.4
297.975	4392.4
303.865	4340.4
309.748	4362.4
315.625	4335.4
321.495	4328.4
327.359	4360.4
333.217	4340.4
339.068	4348.4
344.912	4371.4
350.751	4363.4
356.583	4404.4
362.408	4370.4
368.227	4374.4
374.04	4394.4
379.847	4425.4
385.647	4440.4
391.44	4451.4
397.228	4465.4
403.009	4501.4
408.784	4516.4
414.553	4532.4
420.315	4566.4
426.071	4577.4
431.821	4540.4
437.565	4572.4
443.302	4515.4
449.033	4510.4
454.758	4486.4
460.477	4475.4
466.189	4460.4
471.896	4444.4
477.596	4396.4
483.29	4378.4
488.978	4389.4
494.66	4370.4
500.335	4316.4
506.005	4185.4
511.668	4006.4
517.325	3912.4
522.977	3806.4
528.622	3707.4
534.261	3631.4
539.894	3603.4
545.521	3551.4
551.141	3546.4
556.756	3508.4
562.365	3469.4
567.968	3471.4
573.565	3430.4
579.155	3412.4
584.74	3414.4
590.319	3402.4
595.892	3382.4
601.459	3383.4
607.02	3367.4
612.575	3362.4
618.124	3312.4
623.667	3273.4
629.204	3242.4
634.735	3229.4
640.261	3187.4
645.781	3152.4
651.294	3176.4
656.802	3151.4
662.304	3151.4
667.8	3136.4
673.29	3104.4
678.775	3135.4
684.254	3106.4
689.726	3095.4
695.193	3101.4
700.655	3072.4
706.11	3066.4
711.56	3049.4
717.004	3020.4
722.442	2997.4
727.874	2994.4
733.301	2973.4
738.722	2982.4
744.137	2935.4
749.547	2939.4
754.951	2953.4
760.349	2964.4
765.741	2966.4
771.128	2990.4
776.509	3021.4
781.885	3017.4
787.254	3030.4
792.618	3019.4
797.977	3032.4
803.33	2999.4
808.677	2976.4
814.019	2978.4
819.355	2941.4
824.686	2909.4
830.011	2887.4
835.33	2887.4
840.644	2879.4
845.952	2856.4
851.255	2866.4
856.552	2855.4
861.844	2838.4
867.13	2826.4
872.41	2798.4
877.686	2783.4
882.955	2736.4
888.219	2739.4
893.478	2697.4
898.731	2644.4
903.979	2624.4
909.221	2610.4
914.458	2612.4
919.69	2578.4
924.916	2600.4
930.136	2617.4
935.351	2597.4
940.561	2582.4
945.766	2583.4
950.965	2571.4
956.158	2569.4
961.347	2539.4
966.529	2513.4
971.707	2475.4
976.879	2457.4
982.046	2416.4
987.208	2428.4
992.364	2404.4
997.515	2421.4
1002.66	2458.4
1007.801	2481.4
1012.936	2471.4
1018.066	2490.4
1023.19	2498.4
1028.309	2488.4
1033.423	2506.4
1038.532	2484.4
1043.636	2477.4
1048.734	2426.4
1053.827	2389.4
1058.915	2384.4
1063.998	2343.4
1069.075	2359.4
1074.147	2364.4
1079.214	2369.4
1084.276	2369.4
1089.333	2387.4
1094.385	2373.4
1099.431	2360.4
1104.472	2375.4
1109.509	2378.4
1114.54	2335.4
1119.565	2315.4
1124.586	2293.4
1129.602	2227.4
1134.613	2226.4
1139.618	2200.4
1144.619	2225.4
1149.614	2210.4
1154.604	2228.4
1159.589	2247.4
1164.57	2231.4
1169.545	2236.4
1174.515	2251.4
1179.48	2221.4
1184.44	2226.4
1189.395	2202.4
1194.345	2181.4
1199.29	2150.4
1204.23	2169.4
1209.165	2167.4
1214.095	2185.4
1219.021	2181.4
1223.941	2210.4
1228.856	2229.4
1233.766	2208.4
1238.672	2209.4
1243.572	2190.4
1248.467	2203.4
1253.358	2184.4
1258.244	2158.4
1263.124	2105.4
1268	2071.4
1272.871	2037.4
1277.737	2024.4
1282.599	2029.4
1287.455	2031.4
1292.306	2037.4
1297.153	2019.4
1301.995	2028.4
1306.832	2055.4
1311.664	2063.4
1316.491	2091.4
1321.314	2071.4
1326.132	2054.4
1330.945	2030.4
1335.753	1996.4
1340.556	1985.4
1345.354	1944.4
1350.148	1894.4
1354.937	1889.4
1359.722	1862.4
1364.501	1835.4
1369.276	1807.4
1374.046	1770.4
1378.811	1756.4
1383.572	1730.4
1388.327	1742.4
1393.079	1724.4
1397.825	1741.4
1402.567	1735.4
1407.304	1739.4
1412.036	1734.4
1416.764	1725.4
1421.487	1738.4
1426.205	1758.4
1430.919	1732.4
1435.628	1766.4
1440.333	1775.4
1445.032	1789.4
1449.727	1796.4
1454.418	1817.4
1459.104	1789.4
1463.785	1783.4
1468.462	1756.4
1473.134	1731.4
1477.802	1692.4
1482.465	1657.4
1487.123	1618.4
1491.777	1596.4
1496.426	1594.4
1501.071	1550.4
1505.711	1570.4
1510.347	1554.4
1514.978	1567.4
1519.604	1556.4
1524.226	1565.4
1528.844	1548.4
1533.457	1556.4
1538.065	1528.4
1542.669	1530.4
1547.269	1526.4
1551.864	1523.4
1556.454	1541.4
1561.041	1573.4
1565.622	1559.4
1570.199	1572.4
1574.772	1586.4
1579.34	1608.4
1583.904	1621.4
1588.464	1637.4
1593.019	1642.4
1597.569	1676.4
1602.115	1641.4
1606.657	1620.4
1611.195	1639.4
1615.728	1625.4
1620.256	1621.4
1624.78	1615.4
1629.3	1641.4
1633.816	1637.4
1638.327	1655.4
1642.834	1648.4
1647.336	1667.4
1651.834	1654.4
1656.328	1650.4
1660.817	1656.4
1665.302	1645.4
1669.783	1608.4
1674.259	1575.4
1678.732	1536.4
1683.199	1509.4
1687.663	1444.4
1692.122	1397.4
1696.577	1371.4
1701.028	1304.4
1705.474	1252.4
1709.917	1197.4
1714.355	1193.4
1718.788	1179.4
1723.218	1178.4
1727.643	1174.4
1732.064	1175.4
1736.481	1149.4
1740.893	1126.4
1745.301	1124.4
1749.705	1082.4
1754.105	1066.4
1758.501	1056.4
1762.893	1025.4
1767.28	1005.4
1771.663	1020.4
1776.042	1011.4
1780.417	993.4
1784.787	1003.4
1789.154	969.4
1793.516	987.4
1797.874	968.4
1802.228	946.4
1806.578	954.4
1810.924	928.4
1815.266	908.4
1819.603	924.4
1823.937	917.4
1828.266	908.4
1832.591	906.4
1836.913	908.4
1841.23	918.4
1845.543	915.4
1849.852	902.4
1854.156	908.4
1858.457	928.4
1862.754	904.4
1867.047	915.4
1871.335	918.4
1875.62	909.4
1879.9	899.4
1884.177	896.4
1888.449	891.4
1892.718	883.4
1896.982	884.4
1901.243	858.4
1905.499	845.4
1909.752	830.4
1914	833.4
1918.245	832.4
1922.485	813.4
1926.722	800.4
1930.954	799.4
1935.183	809.4
1939.408	800.4
1943.628	816.4
1947.845	784.4
1952.058	775.4
1956.267	776.4
1960.472	781.4
1964.673	752.4
1968.87	753.4
1973.063	736.4
1977.252	735.4
1981.438	742.4
1985.619	753.4
1989.797	735.4
1993.971	736.4
1998.14	750.4
2002.306	725.4
2006.469	746.4
2010.627	750.4
2014.781	754.4
2018.932	743.4
2023.078	750.4
2027.221	741.4
2031.36	726.4
2035.495	731.4
2039.627	710.4
2043.754	690.4
2047.878	691.4
2051.998	678.4
2056.114	701.4
2060.226	686.4
2064.334	684.4
2068.439	688.4
2072.54	675.4
2076.637	696.4
2080.73	666.4
2084.82	669.4
2088.906	675.4
2092.988	658.4
2097.066	665.4
2101.14	648.4
2105.211	650.4
2109.278	624.4
2113.342	617.4
2117.401	608.4
2121.457	606.4
2125.509	609.4
2129.558	609.4
2133.602	603.4
2137.643	610.4
2141.681	621.4
2145.714	597.4
2149.744	597.4
2153.77	595.4
2157.793	592.4
2161.812	591.4
2165.827	589.4
2169.838	573.4
2173.846	568.4
2177.851	563.4
2181.851	551.4
2185.848	549.4
2189.841	555.4
2193.831	552.4
2197.817	536.4
2201.799	527.4
2205.778	527.4
2209.753	530.4
2213.725	535.4
2217.693	526.4
2221.657	523.4
2225.618	532.4
2229.575	520.4
2233.529	526.4
2237.479	508.4
2241.425	509.4
2245.368	499.4
2249.307	495.4
2253.243	479.4
2257.175	469.4
2261.104	476.4
2265.029	468.4
2268.95	466.4
2272.868	451.4
2276.783	445.4
2280.694	437.4
2284.601	434.4
2288.505	428.4
2292.405	420.4
2296.302	424.4
2300.195	415.4
2304.085	412.4
2307.971	402.4
2311.854	408.4
2315.734	383.4
2319.609	384.4
2323.482	383.4
2327.351	389.4
2331.216	395.4
2335.078	410.4
2338.937	382.4
2342.792	375.4
2346.643	376.4
2350.492	361.4
2354.336	370.4
2358.178	369.4
2362.015	367.4
2365.85	374.4
2369.681	369.4
2373.508	375.4
2377.333	357.4
2381.153	368.4
2384.971	361.4
2388.785	360.4
2392.595	357.4
2396.402	349.4
2400.206	356.4
2404.007	354.4
2407.804	352.4
2411.597	344.4
2415.388	345.4
2419.174	346.4
2422.958	333.4
2426.738	345.4
2430.515	332.4
2434.289	344.4
2438.059	332.4
2441.825	319.4
2445.589	331.4
2449.349	313.4
2453.106	319.4
2456.859	316.4
2460.61	313.4
2464.356	306.4
2468.1	300.4
2471.84	298.4
2475.577	292.4
2479.311	292.4
2483.041	281.4
2486.768	296.4
2490.492	293.4
2494.213	289.4
2497.93	291.4
2501.644	280.4
2505.355	282.4
2509.062	272.4
2512.766	282.4
2516.467	262.4
2520.165	275.4
2523.859	261.4
2527.551	259.4
2531.239	244.4
2534.923	246.4
2538.605	241.4
2542.283	250.4
2545.958	252.4
2549.63	250.4
2553.299	241.4
2556.964	252.4
2560.626	231.4
2564.285	226.4
2567.941	228.4
2571.594	231.4
2575.243	223.4
2578.89	222.4
2582.533	219.4
2586.173	214.4
2589.809	206.4
2593.443	218.4
2597.073	206.4
2600.701	205.4
2604.325	200.4
2607.946	200.4
2611.564	203.4
2615.178	201.4
2618.79	196.4
2622.398	196.4
2626.004	192.4
2629.606	183.4
2633.205	189.4
2636.801	186.4
2640.394	184.4
2643.983	192.4
2647.57	185.4
2651.153	186.4
2654.734	185.4
2658.311	173.4
2661.885	175.4
2665.456	168.4
2669.025	169.4
2672.589	170.4
2676.151	168.4
2679.71	170.4
2683.266	160.4
2686.819	166.4
2690.368	154.4
2693.915	161.4
2697.458	152.4
2700.999	158.4
2704.536	150.4
2708.071	150.4
2711.602	143.4
2715.13	141.4
2718.656	146.4
2722.178	138.4
2725.697	125.4
2729.214	127.4
2732.727	127.4
2736.237	138.4
2739.744	127.4
2743.249	127.4
2746.75	127.4
2750.248	120.4
2753.743	111.4
2757.236	120.4
2760.725	112.4
2764.211	110.4
2767.695	105.4
2771.175	106.4
2774.652	95.4
2778.127	107.4
2781.598	95.4
2785.067	102.4
2788.532	105.4
2791.995	106.4
2795.455	112.4
2798.911	111.4
2802.365	105.4
2805.816	113.4
2809.264	105.4
2812.709	110.4
2816.151	110.4
2819.59	117.4
2823.026	99.4
2826.46	107.4
2829.89	100.4
2833.318	99.4
2836.742	105.4
2840.164	110.4
2843.583	110.4
2846.999	112.4
2850.412	108.4
2853.822	112.4
2857.229	111.4
2860.634	114.4
2864.035	116.4
2867.434	125.4
2870.83	134.4
2874.223	135.4
2877.613	140.4
2881	151.4
2884.385	143.4
2887.766	145.4
2891.145	141.4
2894.521	141.4
2897.894	148.4
2901.264	154.4
2904.631	155.4
2907.996	153.4
2911.358	153.4
2914.717	150.4
2918.073	161.4
2921.426	167.4
2924.777	167.4
2928.124	180.4
2931.469	179.4
2934.811	179.4
2938.15	187.4
2941.487	183.4
2944.821	191.4
2948.152	194.4
2951.48	194.4
2954.805	192.4
2958.128	191.4
2961.447	180.4
2964.765	189.4
2968.079	187.4
2971.39	185.4
2974.699	196.4
2978.005	181.4
2981.308	198.4
2984.609	188.4
2987.907	192.4
2991.202	198.4
2994.494	198.4
2997.784	202.4
3001.07	201.4
3004.355	216.4
3007.636	216.4
3010.915	199.4
3014.191	212.4
3017.464	219.4
3020.734	213.4
3024.002	218.4
3027.267	232.4
3030.53	237.4
3033.789	239.4
3037.046	243.4
3040.301	249.4
3043.552	259.4
3046.801	271.4
3050.048	435.4
3053.291	333.4
3056.532	293.4
3059.771	309.4
3063.006	299.4
3066.239	319.4
3069.469	332.4
3072.697	342.4
3075.922	352.4
3079.144	353.4
3082.364	357.4
3085.581	380.4
3088.795	377.4
3092.007	379.4
3095.216	396.4
3098.423	405.4
3101.627	431.4
3104.828	428.4
3108.026	423.4
3111.222	449.4
3114.416	445.4
3117.607	466.4
3120.795	464.4
3123.98	481.4
3127.163	492.4
3130.344	511.4
3133.521	519.4
3136.696	527.4
3139.869	536.4
3143.039	543.4
3146.206	539.4
3149.371	556.4
3152.533	577.4
3155.693	578.4
3158.85	575.4
3162.005	582.4
3165.157	576.4
3168.306	572.4
3171.453	584.4
3174.597	597.4
3177.739	600.4
3180.878	601.4
3184.014	612.4
3187.149	597.4
3190.28	606.4
3193.409	615.4
3196.536	613.4
3199.659	618.4
3202.781	615.4
3205.9	625.4
3209.016	618.4
3212.13	625.4
3215.241	618.4
3218.35	599.4
3221.456	606.4
3224.56	607.4
3227.661	584.4
3230.76	582.4
3233.856	578.4
3236.95	579.4
3240.041	558.4
3243.13	538.4
3246.216	551.4
3249.3	525.4
3252.382	528.4
3255.46	523.4
3258.537	531.4
3261.611	513.4
3264.682	503.4
3267.751	495.4
3270.818	504.4
3273.882	490.4
3276.943	503.4
3280.002	492.4
3283.059	494.4
3286.113	495.4
3289.165	490.4
3292.214	481.4
3295.261	469.4
3298.306	459.4
3301.348	463.4
3304.387	443.4
3307.425	456.4
3310.459	446.4
3313.492	431.4
3316.521	442.4
3319.549	424.4
3322.574	426.4
3325.597	431.4
3328.617	422.4
3331.635	424.4
3334.65	425.4
3337.663	400.4
3340.674	409.4
3343.682	421.4
3346.688	407.4
3349.691	421.4
3352.692	407.4
3355.691	407.4
3358.687	406.4
3361.681	408.4
3364.673	405.4
3367.662	396.4
3370.649	388.4
3373.633	378.4
3376.615	379.4
3379.595	369.4
3382.572	366.4
3385.547	352.4
3388.52	357.4
3391.49	348.4
3394.458	340.4
3397.424	330.4
3400.387	326.4
3403.348	326.4
3406.307	306.4
3409.263	312.4
3412.217	313.4
3415.168	313.4
3418.118	304.4
3421.065	291.4
3424.009	291.4
3426.951	294.4
3429.891	287.4
3432.829	277.4
3435.764	265.4
3438.697	254.4
3441.628	256.4
3444.557	254.4
3447.483	236.4
3450.407	224.4
3453.328	226.4
3456.247	211.4
3459.164	192.4
3462.079	196.4
3464.991	187.4
3467.902	178.4
3470.809	176.4
3473.715	162.4
3476.618	160.4
3479.519	135.4
3482.418	140.4
3485.315	130.4
3488.209	118.4
3491.101	121.4
3493.99	129.4
3496.878	122.4
3499.763	109.4
3502.646	92.4
3505.527	89.4
3508.405	89.4
3511.281	79.4
3514.155	73.4
3517.027	74.4
3519.897	52.4
3522.764	49.4
3525.629	48.4
3528.492	37.4
3531.352	35.4
3534.211	24.4
3537.067	11.4
3539.921	19.4
3542.773	16.4
3545.622	2.4
3548.469	0.4
3551.315	4.4
3554.157	-5.6
3556.998	-16.6
3559.837	-9.6
3562.673	-14.6
3565.507	-17.6
3568.339	-23.6
3571.169	-33.6
3573.996	-35.6
3576.822	-33.6
3579.645	-32.6
3582.466	-30.6
3585.285	-40.6
3588.101	-34.6
3590.916	-47.6
3593.728	-54.6
3596.538	-51.6
3599.346	-55.6
3602.152	-62.6
3604.956	-57.6
3607.757	-51.6
3610.556	-66.6
3613.354	-63.6
3616.149	-80.6
3618.942	-79.6
3621.732	-76.6
3624.521	-77.6
3627.307	-74.6
3630.092	-75.6
3632.874	-75.6
3635.654	-81.6
3638.432	-85.6
3641.208	-87.6
3643.982	-92.6
3646.753	-92.6
3649.523	-84.6
3652.29	-88.6
3655.055	-86.6
3657.818	-91.6
3660.579	-96.6
3663.338	-99.6
3666.095	-103.6
3668.849	-100.6
3671.602	-101.6
3674.352	-100.6
3677.101	-102.6
3679.847	-103.6
3682.591	-104.6
3685.333	-104.6
3688.073	-105.6
3690.811	-109.6
3693.547	-116.6
3696.281	-107.6
3699.013	-107.6
3701.742	-114.6
3704.47	-113.6
3707.195	-111.6
3709.919	-117.6
3712.64	-109.6
3715.359	-117.6
3718.076	-111.6
3720.792	-118.6
3723.505	-120.6
3726.216	-115.6
3728.925	-125.6
3731.632	-118.6
3734.336	-126.6
3737.039	-121.6
3739.74	-121.6
3742.439	-127.6
3745.136	-118.6
3747.83	-132.6
3750.523	-122.6
3753.213	-120.6
3755.902	-125.6
3758.589	-126.6
3761.273	-118.6
3763.956	-122.6
3766.636	-122.6
3769.315	-120.6
3771.991	-123.6
3774.665	-123.6
3777.338	-118.6
3780.008	-124.6
3782.677	-126.6
3785.343	-127.6
3788.007	-129.6
3790.67	-128.6
3793.33	-120.6
3795.989	-124.6
3798.645	-119.6
3801.299	-124.6
3803.952	-131.6
3806.602	-123.6
3809.251	-132.6
3811.897	-133.6
3814.542	-126.6
3817.184	-122.6
3819.825	-123.6
3822.463	-126.6
3825.1	-123.6
3827.735	-129.6
3830.367	-134.6
3832.998	-131.6
3835.627	-126.6
3838.253	-121.6
3840.878	-129.6
3843.501	-126.6
3846.122	-128.6
3848.741	-133.6
3851.358	-127.6
3853.973	-135.6
3856.586	-125.6
3859.197	-133.6
3861.806	-123.6
3864.414	-127.6
3867.019	-124.6
3869.622	-131.6
3872.224	-113.6
3874.823	-110.6
3877.421	-97.6
3880.016	-67.6
3882.61	-47.6
3885.202	-48.6
3887.792	-67.6
3890.38	-99.6
3892.966	-118.6
3895.55	-124.6
3898.132	-128.6
3900.713	-128.6
3903.291	-132.6
3905.868	-129.6
3908.442	-128.6
3911.015	-138.6
3913.586	-129.6
3916.155	-132.6
3918.722	-129.6
3921.287	-127.6
3923.85	-133.6
3926.411	-131.6
3928.971	-132.6
3931.528	-137.6
3934.084	-128.6
3936.638	-125.6
3939.19	-133.6
3941.74	-134.6
3944.288	-133.6
3946.834	-128.6
3949.378	-135.6
3951.921	-130.6
3954.462	-137.6
3957	-130.6
3959.537	-124.6
3962.072	-130.6
3964.606	-123.6
3967.137	-127.6
3969.667	-130.6
3972.194	-137.6
3974.72	-133.6
3977.244	-132.6
3979.766	-133.6
3982.286	-130.6
3984.805	-128.6
3987.321	-128.6
3989.836	-124.6
3992.349	-132.6
3994.86	-131.6
3997.369	-128.6
3999.877	-127.6
4002.382	-121.6
4004.886	-126.6
4007.388	-130.6
4009.888	-129.6
4012.386	-132.6
4014.883	-133.6
4017.377	-125.6
4019.87	-126.6
4022.361	-126.6
4024.85	-130.6
4027.338	-123.6
4029.823	-128.6
4032.307	-130.6
4034.789	-133.6
4037.269	-131.6
4039.747	-126.6
4042.224	-123.6
4044.699	-129.6
4047.172	-125.6
4049.643	-121.6
4052.112	-131.6
4054.58	-131.6
4057.046	-130.6
4059.51	-131.6
4061.972	-125.6
4064.432	-125.6
4066.891	-121.6
4069.348	-127.6
4071.803	-134.6
4074.256	-131.6
4076.708	-128.6
4079.158	-129.6
4081.606	-121.6
4084.052	-123.6
4086.497	-126.6
4088.939	-119.6
4091.38	-133.6
4093.819	-128.6
4096.257	-134.6
4098.693	-133.6
4101.127	-135.6
4103.559	-128.6
4105.989	12.4
4108.418	10.4
4110.845	4.4
4113.27	5.4
4115.694	0.4
4118.115	3.4
4120.535	-131.6
4122.954	-132.6
4125.37	-124.6
4127.785	-127.6
4130.198	-128.6
4132.609	-126.6
4135.019	-134.6
4137.427	-135.6
4139.833	-135.6
4142.237	-138.6
