Data from 2018-2-8_conc=4_n=3_RamanShift_05.txt Node
Date: Mon Mar 12 15:16:58 IST 2018
User: aro
Spectrometer: QEPB0276
Trigger mode: 0
Integration Time (sec): 3.000000E1
Scans to average: 1
Electric dark correction enabled: true
Nonlinearity correction enabled: false
Boxcar width: 0
XAxis mode: Raman Shifts
Number of Pixels in Spectrum: 1044
>>>>>Begin Spectral Data<<<<<
160.701	14.4
166.742	48.4
172.777	145.4
178.805	443.4
184.826	1209.4
190.841	2599.4
196.849	4306.4
202.85	5675.4
208.845	6205.4
214.833	6181.4
220.815	6098.4
226.789	6082.4
232.758	6081.4
238.719	6067.4
244.674	6045.4
250.623	5946.4
256.565	5884.4
262.5	5776.4
268.429	5729.4
274.351	5671.4
280.267	5625.4
286.176	5587.4
292.079	5559.4
297.975	5519.4
303.865	5524.4
309.748	5519.4
315.625	5482.4
321.495	5474.4
327.359	5472.4
333.217	5469.4
339.068	5468.4
344.912	5479.4
350.751	5454.4
356.583	5478.4
362.408	5476.4
368.227	5523.4
374.04	5499.4
379.847	5526.4
385.647	5541.4
391.44	5574.4
397.228	5609.4
403.009	5620.4
408.784	5627.4
414.553	5653.4
420.315	5669.4
426.071	5701.4
431.821	5692.4
437.565	5682.4
443.302	5654.4
449.033	5660.4
454.758	5659.4
460.477	5594.4
466.189	5581.4
471.896	5518.4
477.596	5523.4
483.29	5518.4
488.978	5504.4
494.66	5477.4
500.335	5396.4
506.005	5270.4
511.668	5152.4
517.325	5005.4
522.977	4900.4
528.622	4811.4
534.261	4737.4
539.894	4697.4
545.521	4653.4
551.141	4622.4
556.756	4600.4
562.365	4574.4
567.968	4546.4
573.565	4526.4
579.155	4507.4
584.74	4467.4
590.319	4432.4
595.892	4426.4
601.459	4445.4
607.02	4424.4
612.575	4375.4
618.124	4340.4
623.667	4311.4
629.204	4245.4
634.735	4228.4
640.261	4243.4
645.781	4191.4
651.294	4193.4
656.802	4188.4
662.304	4142.4
667.8	4119.4
673.29	4148.4
678.775	4117.4
684.254	4135.4
689.726	4095.4
695.193	4112.4
700.655	4049.4
706.11	4053.4
711.56	4038.4
717.004	3999.4
722.442	4001.4
727.874	3972.4
733.301	3943.4
738.722	3934.4
744.137	3919.4
749.547	3910.4
754.951	3916.4
760.349	3914.4
765.741	3926.4
771.128	3914.4
776.509	3970.4
781.885	3965.4
787.254	3980.4
792.618	3981.4
797.977	3944.4
803.33	3919.4
808.677	3904.4
814.019	3860.4
819.355	3836.4
824.686	3830.4
830.011	3786.4
835.33	3815.4
840.644	3793.4
845.952	3784.4
851.255	3778.4
856.552	3748.4
861.844	3745.4
867.13	3743.4
872.41	3702.4
877.686	3661.4
882.955	3666.4
888.219	3629.4
893.478	3580.4
898.731	3537.4
903.979	3484.4
909.221	3473.4
914.458	3452.4
919.69	3432.4
924.916	3454.4
930.136	3469.4
935.351	3458.4
940.561	3457.4
945.766	3440.4
950.965	3445.4
956.158	3401.4
961.347	3362.4
966.529	3335.4
971.707	3300.4
976.879	3254.4
982.046	3213.4
987.208	3212.4
992.364	3167.4
997.515	3205.4
1002.66	3237.4
1007.801	3242.4
1012.936	3290.4
1018.066	3314.4
1023.19	3281.4
1028.309	3301.4
1033.423	3302.4
1038.532	3272.4
1043.636	3240.4
1048.734	3201.4
1053.827	3185.4
1058.915	3135.4
1063.998	3123.4
1069.075	3104.4
1074.147	3102.4
1079.214	3093.4
1084.276	3136.4
1089.333	3147.4
1094.385	3167.4
1099.431	3150.4
1104.472	3142.4
1109.509	3124.4
1114.54	3080.4
1119.565	3058.4
1124.586	3004.4
1129.602	2958.4
1134.613	2944.4
1139.618	2915.4
1144.619	2920.4
1149.614	2903.4
1154.604	2932.4
1159.589	2927.4
1164.57	2940.4
1169.545	2954.4
1174.515	2961.4
1179.48	2930.4
1184.44	2925.4
1189.395	2871.4
1194.345	2873.4
1199.29	2813.4
1204.23	2834.4
1209.165	2868.4
1214.095	2855.4
1219.021	2852.4
1223.941	2896.4
1228.856	2904.4
1233.766	2909.4
1238.672	2921.4
1243.572	2916.4
1248.467	2883.4
1253.358	2851.4
1258.244	2801.4
1263.124	2764.4
1268	2701.4
1272.871	2677.4
1277.737	2674.4
1282.599	2650.4
1287.455	2663.4
1292.306	2649.4
1297.153	2657.4
1301.995	2675.4
1306.832	2686.4
1311.664	2723.4
1316.491	2722.4
1321.314	2712.4
1326.132	2675.4
1330.945	2673.4
1335.753	2623.4
1340.556	2585.4
1345.354	2520.4
1350.148	2500.4
1354.937	2484.4
1359.722	2411.4
1364.501	2411.4
1369.276	2345.4
1374.046	2339.4
1378.811	2287.4
1383.572	2274.4
1388.327	2259.4
1393.079	2279.4
1397.825	2264.4
1402.567	2271.4
1407.304	2286.4
1412.036	2287.4
1416.764	2283.4
1421.487	2273.4
1426.205	2285.4
1430.919	2304.4
1435.628	2289.4
1440.333	2322.4
1445.032	2335.4
1449.727	2350.4
1454.418	2362.4
1459.104	2369.4
1463.785	2319.4
1468.462	2294.4
1473.134	2252.4
1477.802	2210.4
1482.465	2169.4
1487.123	2113.4
1491.777	2076.4
1496.426	2054.4
1501.071	2042.4
1505.711	2028.4
1510.347	2017.4
1514.978	2030.4
1519.604	2027.4
1524.226	2048.4
1528.844	2026.4
1533.457	1989.4
1538.065	1974.4
1542.669	1970.4
1547.269	1989.4
1551.864	1988.4
1556.454	1999.4
1561.041	2033.4
1565.622	2038.4
1570.199	2024.4
1574.772	2064.4
1579.34	2071.4
1583.904	2094.4
1588.464	2114.4
1593.019	2125.4
1597.569	2139.4
1602.115	2149.4
1606.657	2132.4
1611.195	2126.4
1615.728	2080.4
1620.256	2101.4
1624.78	2129.4
1629.3	2128.4
1633.816	2109.4
1638.327	2110.4
1642.834	2128.4
1647.336	2140.4
1651.834	2150.4
1656.328	2142.4
1660.817	2138.4
1665.302	2121.4
1669.783	2077.4
1674.259	2018.4
1678.732	1993.4
1683.199	1926.4
1687.663	1850.4
1692.122	1794.4
1696.577	1729.4
1701.028	1666.4
1705.474	1602.4
1709.917	1562.4
1714.355	1525.4
1718.788	1505.4
1723.218	1534.4
1727.643	1510.4
1732.064	1504.4
1736.481	1487.4
1740.893	1464.4
1745.301	1428.4
1749.705	1407.4
1754.105	1357.4
1758.501	1339.4
1762.893	1327.4
1767.28	1311.4
1771.663	1294.4
1776.042	1303.4
1780.417	1284.4
1784.787	1257.4
1789.154	1258.4
1793.516	1236.4
1797.874	1231.4
1802.228	1225.4
1806.578	1206.4
1810.924	1198.4
1815.266	1165.4
1819.603	1177.4
1823.937	1171.4
1828.266	1169.4
1832.591	1165.4
1836.913	1163.4
1841.23	1170.4
1845.543	1170.4
1849.852	1131.4
1854.156	1165.4
1858.457	1174.4
1862.754	1160.4
1867.047	1168.4
1871.335	1172.4
1875.62	1179.4
1879.9	1164.4
1884.177	1152.4
1888.449	1134.4
1892.718	1120.4
1896.982	1099.4
1901.243	1085.4
1905.499	1090.4
1909.752	1070.4
1914	1057.4
1918.245	1055.4
1922.485	1023.4
1926.722	1016.4
1930.954	1025.4
1935.183	999.4
1939.408	996.4
1943.628	1001.4
1947.845	997.4
1952.058	978.4
1956.267	976.4
1960.472	975.4
1964.673	961.4
1968.87	942.4
1973.063	955.4
1977.252	939.4
1981.438	943.4
1985.619	939.4
1989.797	939.4
1993.971	949.4
1998.14	940.4
2002.306	939.4
2006.469	956.4
2010.627	957.4
2014.781	962.4
2018.932	956.4
2023.078	954.4
2027.221	927.4
2031.36	930.4
2035.495	915.4
2039.627	911.4
2043.754	894.4
2047.878	886.4
2051.998	873.4
2056.114	866.4
2060.226	860.4
2064.334	868.4
2068.439	868.4
2072.54	860.4
2076.637	867.4
2080.73	857.4
2084.82	849.4
2088.906	849.4
2092.988	841.4
2097.066	840.4
2101.14	806.4
2105.211	816.4
2109.278	795.4
2113.342	793.4
2117.401	787.4
2121.457	783.4
2125.509	754.4
2129.558	755.4
2133.602	779.4
2137.643	783.4
2141.681	763.4
2145.714	762.4
2149.744	753.4
2153.77	773.4
2157.793	769.4
2161.812	758.4
2165.827	741.4
2169.838	740.4
2173.846	719.4
2177.851	718.4
2181.851	691.4
2185.848	704.4
2189.841	687.4
2193.831	684.4
2197.817	682.4
2201.799	674.4
2205.778	673.4
2209.753	680.4
2213.725	663.4
2217.693	670.4
2221.657	674.4
2225.618	659.4
2229.575	677.4
2233.529	658.4
2237.479	665.4
2241.425	654.4
2245.368	647.4
2249.307	633.4
2253.243	612.4
2257.175	595.4
2261.104	602.4
2265.029	576.4
2268.95	582.4
2272.868	571.4
2276.783	571.4
2280.694	554.4
2284.601	563.4
2288.505	565.4
2292.405	541.4
2296.302	535.4
2300.195	535.4
2304.085	527.4
2307.971	510.4
2311.854	523.4
2315.734	500.4
2319.609	500.4
2323.482	495.4
2327.351	486.4
2331.216	500.4
2335.078	508.4
2338.937	489.4
2342.792	468.4
2346.643	464.4
2350.492	470.4
2354.336	475.4
2358.178	471.4
2362.015	469.4
2365.85	473.4
2369.681	479.4
2373.508	474.4
2377.333	472.4
2381.153	470.4
2384.971	481.4
2388.785	475.4
2392.595	467.4
2396.402	449.4
2400.206	446.4
2404.007	456.4
2407.804	452.4
2411.597	444.4
2415.388	441.4
2419.174	442.4
2422.958	429.4
2426.738	424.4
2430.515	436.4
2434.289	426.4
2438.059	424.4
2441.825	421.4
2445.589	425.4
2449.349	408.4
2453.106	407.4
2456.859	404.4
2460.61	399.4
2464.356	388.4
2468.1	390.4
2471.84	384.4
2475.577	386.4
2479.311	360.4
2483.041	370.4
2486.768	364.4
2490.492	375.4
2494.213	371.4
2497.93	370.4
2501.644	361.4
2505.355	344.4
2509.062	351.4
2512.766	352.4
2516.467	344.4
2520.165	338.4
2523.859	341.4
2527.551	332.4
2531.239	324.4
2534.923	306.4
2538.605	301.4
2542.283	321.4
2545.958	316.4
2549.63	320.4
2553.299	305.4
2556.964	303.4
2560.626	291.4
2564.285	293.4
2567.941	296.4
2571.594	292.4
2575.243	286.4
2578.89	284.4
2582.533	279.4
2586.173	269.4
2589.809	277.4
2593.443	271.4
2597.073	266.4
2600.701	253.4
2604.325	265.4
2607.946	258.4
2611.564	264.4
2615.178	263.4
2618.79	255.4
2622.398	262.4
2626.004	250.4
2629.606	252.4
2633.205	248.4
2636.801	252.4
2640.394	244.4
2643.983	235.4
2647.57	238.4
2651.153	228.4
2654.734	229.4
2658.311	225.4
2661.885	219.4
2665.456	227.4
2669.025	230.4
2672.589	220.4
2676.151	215.4
2679.71	219.4
2683.266	214.4
2686.819	211.4
2690.368	208.4
2693.915	192.4
2697.458	192.4
2700.999	196.4
2704.536	191.4
2708.071	183.4
2711.602	193.4
2715.13	194.4
2718.656	181.4
2722.178	171.4
2725.697	170.4
2729.214	165.4
2732.727	173.4
2736.237	169.4
2739.744	161.4
2743.249	165.4
2746.75	166.4
2750.248	154.4
2753.743	143.4
2757.236	140.4
2760.725	148.4
2764.211	148.4
2767.695	142.4
2771.175	130.4
2774.652	125.4
2778.127	136.4
2781.598	134.4
2785.067	124.4
2788.532	130.4
2791.995	143.4
2795.455	141.4
2798.911	135.4
2802.365	152.4
2805.816	135.4
2809.264	138.4
2812.709	152.4
2816.151	142.4
2819.59	149.4
2823.026	148.4
2826.46	142.4
2829.89	139.4
2833.318	143.4
2836.742	139.4
2840.164	143.4
2843.583	139.4
2846.999	145.4
2850.412	148.4
2853.822	151.4
2857.229	140.4
2860.634	152.4
2864.035	158.4
2867.434	157.4
2870.83	169.4
2874.223	177.4
2877.613	184.4
2881	185.4
2884.385	193.4
2887.766	188.4
2891.145	186.4
2894.521	186.4
2897.894	202.4
2901.264	192.4
2904.631	189.4
2907.996	200.4
2911.358	198.4
2914.717	208.4
2918.073	203.4
2921.426	212.4
2924.777	219.4
2928.124	221.4
2931.469	224.4
2934.811	238.4
2938.15	238.4
2941.487	247.4
2944.821	245.4
2948.152	252.4
2951.48	245.4
2954.805	250.4
2958.128	231.4
2961.447	234.4
2964.765	257.4
2968.079	243.4
2971.39	238.4
2974.699	246.4
2978.005	243.4
2981.308	239.4
2984.609	238.4
2987.907	241.4
2991.202	252.4
2994.494	258.4
2997.784	254.4
3001.07	266.4
3004.355	264.4
3007.636	266.4
3010.915	272.4
3014.191	277.4
3017.464	282.4
3020.734	285.4
3024.002	273.4
3027.267	296.4
3030.53	298.4
3033.789	298.4
3037.046	309.4
3040.301	308.4
3043.552	329.4
3046.801	344.4
3050.048	349.4
3053.291	352.4
3056.532	373.4
3059.771	384.4
3063.006	395.4
3066.239	413.4
3069.469	427.4
3072.697	424.4
3075.922	443.4
3079.144	451.4
3082.364	469.4
3085.581	476.4
3088.795	488.4
3092.007	491.4
3095.216	502.4
3098.423	518.4
3101.627	526.4
3104.828	539.4
3108.026	534.4
3111.222	557.4
3114.416	585.4
3117.607	581.4
3120.795	595.4
3123.98	608.4
3127.163	618.4
3130.344	644.4
3133.521	640.4
3136.696	668.4
3139.869	681.4
3143.039	684.4
3146.206	696.4
3149.371	725.4
3152.533	715.4
3155.693	732.4
3158.85	718.4
3162.005	739.4
3165.157	745.4
3168.306	750.4
3171.453	746.4
3174.597	754.4
3177.739	759.4
3180.878	766.4
3184.014	773.4
3187.149	765.4
3190.28	760.4
3193.409	771.4
3196.536	763.4
3199.659	768.4
3202.781	780.4
3205.9	780.4
3209.016	787.4
3212.13	785.4
3215.241	776.4
3218.35	769.4
3221.456	755.4
3224.56	750.4
3227.661	743.4
3230.76	742.4
3233.856	719.4
3236.95	712.4
3240.041	705.4
3243.13	686.4
3246.216	679.4
3249.3	670.4
3252.382	667.4
3255.46	668.4
3258.537	660.4
3261.611	652.4
3264.682	627.4
3267.751	647.4
3270.818	630.4
3273.882	636.4
3276.943	616.4
3280.002	625.4
3283.059	619.4
3286.113	625.4
3289.165	614.4
3292.214	601.4
3295.261	585.4
3298.306	587.4
3301.348	586.4
3304.387	577.4
3307.425	565.4
3310.459	568.4
3313.492	558.4
3316.521	555.4
3319.549	552.4
3322.574	546.4
3325.597	535.4
3328.617	536.4
3331.635	536.4
3334.65	537.4
3337.663	513.4
3340.674	526.4
3343.682	528.4
3346.688	517.4
3349.691	527.4
3352.692	517.4
3355.691	520.4
3358.687	505.4
3361.681	513.4
3364.673	505.4
3367.662	493.4
3370.649	489.4
3373.633	466.4
3376.615	471.4
3379.595	459.4
3382.572	465.4
3385.547	454.4
3388.52	434.4
3391.49	432.4
3394.458	433.4
3397.424	420.4
3400.387	422.4
3403.348	412.4
3406.307	390.4
3409.263	396.4
3412.217	388.4
3415.168	397.4
3418.118	396.4
3421.065	374.4
3424.009	375.4
3426.951	364.4
3429.891	359.4
3432.829	345.4
3435.764	330.4
3438.697	334.4
3441.628	316.4
3444.557	313.4
3447.483	299.4
3450.407	282.4
3453.328	275.4
3456.247	261.4
3459.164	252.4
3462.079	248.4
3464.991	225.4
3467.902	225.4
3470.809	224.4
3473.715	203.4
3476.618	204.4
3479.519	188.4
3482.418	182.4
3485.315	172.4
3488.209	167.4
3491.101	163.4
3493.99	150.4
3496.878	148.4
3499.763	129.4
3502.646	125.4
3505.527	116.4
3508.405	115.4
3511.281	113.4
3514.155	101.4
3517.027	95.4
3519.897	76.4
3522.764	76.4
3525.629	63.4
3528.492	55.4
3531.352	61.4
3534.211	40.4
3537.067	32.4
3539.921	33.4
3542.773	19.4
3545.622	12.4
3548.469	6.4
3551.315	-0.6
3554.157	1.4
3556.998	-9.6
3559.837	-11.6
3562.673	-11.6
3565.507	-20.6
3568.339	-22.6
3571.169	-33.6
3573.996	-32.6
3576.822	-24.6
3579.645	-34.6
3582.466	-35.6
3585.285	-49.6
3588.101	-39.6
3590.916	-57.6
3593.728	-66.6
3596.538	-59.6
3599.346	-63.6
3602.152	-66.6
3604.956	-66.6
3607.757	-70.6
3610.556	-75.6
3613.354	-76.6
3616.149	-81.6
3618.942	-84.6
3621.732	-83.6
3624.521	-87.6
3627.307	-89.6
3630.092	-86.6
3632.874	-91.6
3635.654	-98.6
3638.432	-86.6
3641.208	-94.6
3643.982	-102.6
3646.753	-105.6
3649.523	-105.6
3652.29	-103.6
3655.055	-101.6
3657.818	-106.6
3660.579	-105.6
3663.338	-107.6
3666.095	-110.6
3668.849	-114.6
3671.602	-120.6
3674.352	-120.6
3677.101	-123.6
3679.847	-122.6
3682.591	-119.6
3685.333	-119.6
3688.073	-123.6
3690.811	-126.6
3693.547	-137.6
3696.281	-134.6
3699.013	-133.6
3701.742	-132.6
3704.47	-133.6
3707.195	-131.6
3709.919	-138.6
3712.64	-129.6
3715.359	-143.6
3718.076	-138.6
3720.792	-139.6
3723.505	-141.6
3726.216	-134.6
3728.925	-142.6
3731.632	-139.6
3734.336	-148.6
3737.039	-141.6
3739.74	-140.6
3742.439	-149.6
3745.136	-138.6
3747.83	-145.6
3750.523	-145.6
3753.213	-151.6
3755.902	-149.6
3758.589	-151.6
3761.273	-138.6
3763.956	-142.6
3766.636	-143.6
3769.315	-141.6
3771.991	-145.6
3774.665	-149.6
3777.338	-138.6
3780.008	-147.6
3782.677	-150.6
3785.343	-149.6
3788.007	-154.6
3790.67	-151.6
3793.33	-150.6
3795.989	-146.6
3798.645	-143.6
3801.299	-149.6
3803.952	-153.6
3806.602	-140.6
3809.251	-158.6
3811.897	-153.6
3814.542	-155.6
3817.184	-147.6
3819.825	-152.6
3822.463	-152.6
3825.1	-148.6
3827.735	-152.6
3830.367	-150.6
3832.998	-152.6
3835.627	-154.6
3838.253	-151.6
3840.878	-151.6
3843.501	-143.6
3846.122	-152.6
3848.741	-154.6
3851.358	-149.6
3853.973	-153.6
3856.586	-146.6
3859.197	-155.6
3861.806	-147.6
3864.414	-148.6
3867.019	-149.6
3869.622	-152.6
3872.224	-137.6
3874.823	-135.6
3877.421	-114.6
3880.016	-94.6
3882.61	-69.6
3885.202	-65.6
3887.792	-85.6
3890.38	-118.6
3892.966	-141.6
3895.55	-145.6
3898.132	-150.6
3900.713	-152.6
3903.291	-152.6
3905.868	-151.6
3908.442	-151.6
3911.015	-156.6
3913.586	-157.6
3916.155	-159.6
3918.722	-153.6
3921.287	-151.6
3923.85	-154.6
3926.411	-154.6
3928.971	-154.6
3931.528	-158.6
3934.084	-152.6
3936.638	-152.6
3939.19	-156.6
3941.74	-154.6
3944.288	-155.6
3946.834	-154.6
3949.378	-153.6
3951.921	-153.6
3954.462	-161.6
3957	-154.6
3959.537	-150.6
3962.072	-151.6
3964.606	-146.6
3967.137	-151.6
3969.667	-152.6
3972.194	-159.6
3974.72	-151.6
3977.244	-156.6
3979.766	-155.6
3982.286	-151.6
3984.805	-155.6
3987.321	-149.6
3989.836	-145.6
3992.349	-155.6
3994.86	-154.6
3997.369	-150.6
3999.877	-153.6
4002.382	-145.6
4004.886	-157.6
4007.388	-152.6
4009.888	-151.6
4012.386	-151.6
4014.883	-158.6
4017.377	-151.6
4019.87	-152.6
4022.361	-154.6
4024.85	-148.6
4027.338	-149.6
4029.823	-151.6
4032.307	-152.6
4034.789	-150.6
4037.269	-156.6
4039.747	-148.6
4042.224	-151.6
4044.699	-150.6
4047.172	-151.6
4049.643	-150.6
4052.112	-154.6
4054.58	-153.6
4057.046	-153.6
4059.51	-149.6
4061.972	-150.6
4064.432	-149.6
4066.891	-154.6
4069.348	-147.6
4071.803	-156.6
4074.256	-153.6
4076.708	-149.6
4079.158	-152.6
4081.606	-146.6
4084.052	-153.6
4086.497	-149.6
4088.939	-141.6
4091.38	-152.6
4093.819	-149.6
4096.257	-162.6
4098.693	-159.6
4101.127	-159.6
4103.559	-154.6
4105.989	-0.6
4108.418	-1.6
4110.845	-4.6
4113.27	-2.6
4115.694	-5.6
4118.115	-8.6
4120.535	-153.6
4122.954	-158.6
4125.37	-150.6
4127.785	-153.6
4130.198	-149.6
4132.609	-149.6
4135.019	-159.6
4137.427	-164.6
4139.833	-164.6
4142.237	-162.6
