Data from 2018-2-8_conc=5_n=5_RamanShift_04.txt Node
Date: Mon Mar 12 16:05:58 IST 2018
User: aro
Spectrometer: QEPB0276
Trigger mode: 0
Integration Time (sec): 3.000000E1
Scans to average: 1
Electric dark correction enabled: true
Nonlinearity correction enabled: false
Boxcar width: 0
XAxis mode: Raman Shifts
Number of Pixels in Spectrum: 1044
>>>>>Begin Spectral Data<<<<<
160.701	11.2
166.742	34.2
172.777	98.2
178.805	311.2
184.826	836.2
190.841	1779.2
196.849	2977.2
202.85	3912.2
208.845	4232.2
214.833	4262.2
220.815	4212.2
226.789	4203.2
232.758	4211.2
238.719	4225.2
244.674	4204.2
250.623	4145.2
256.565	4091.2
262.5	4068.2
268.429	4000.2
274.351	3960.2
280.267	3936.2
286.176	3957.2
292.079	3924.2
297.975	3892.2
303.865	3871.2
309.748	3873.2
315.625	3864.2
321.495	3864.2
327.359	3854.2
333.217	3887.2
339.068	3879.2
344.912	3867.2
350.751	3852.2
356.583	3885.2
362.408	3894.2
368.227	3901.2
374.04	3908.2
379.847	3934.2
385.647	3957.2
391.44	3977.2
397.228	3995.2
403.009	4014.2
408.784	4025.2
414.553	4006.2
420.315	4053.2
426.071	4050.2
431.821	4073.2
437.565	4019.2
443.302	4018.2
449.033	3977.2
454.758	3983.2
460.477	3975.2
466.189	3955.2
471.896	3938.2
477.596	3914.2
483.29	3890.2
488.978	3898.2
494.66	3878.2
500.335	3807.2
506.005	3732.2
511.668	3588.2
517.325	3477.2
522.977	3380.2
528.622	3309.2
534.261	3267.2
539.894	3200.2
545.521	3190.2
551.141	3176.2
556.756	3145.2
562.365	3099.2
567.968	3087.2
573.565	3064.2
579.155	3033.2
584.74	3048.2
590.319	3037.2
595.892	2993.2
601.459	3016.2
607.02	3003.2
612.575	2996.2
618.124	2970.2
623.667	2909.2
629.204	2908.2
634.735	2868.2
640.261	2863.2
645.781	2841.2
651.294	2835.2
656.802	2839.2
662.304	2819.2
667.8	2787.2
673.29	2800.2
678.775	2793.2
684.254	2800.2
689.726	2767.2
695.193	2772.2
700.655	2750.2
706.11	2741.2
711.56	2720.2
717.004	2693.2
722.442	2697.2
727.874	2671.2
733.301	2658.2
738.722	2663.2
744.137	2660.2
749.547	2660.2
754.951	2637.2
760.349	2634.2
765.741	2655.2
771.128	2641.2
776.509	2671.2
781.885	2722.2
787.254	2716.2
792.618	2735.2
797.977	2684.2
803.33	2704.2
808.677	2656.2
814.019	2651.2
819.355	2611.2
824.686	2619.2
830.011	2580.2
835.33	2583.2
840.644	2601.2
845.952	2588.2
851.255	2589.2
856.552	2560.2
861.844	2555.2
867.13	2518.2
872.41	2507.2
877.686	2489.2
882.955	2453.2
888.219	2426.2
893.478	2416.2
898.731	2403.2
903.979	2336.2
909.221	2346.2
914.458	2311.2
919.69	2325.2
924.916	2336.2
930.136	2354.2
935.351	2337.2
940.561	2339.2
945.766	2337.2
950.965	2340.2
956.158	2326.2
961.347	2292.2
966.529	2259.2
971.707	2217.2
976.879	2198.2
982.046	2162.2
987.208	2169.2
992.364	2173.2
997.515	2168.2
1002.66	2186.2
1007.801	2215.2
1012.936	2245.2
1018.066	2234.2
1023.19	2228.2
1028.309	2243.2
1033.423	2237.2
1038.532	2201.2
1043.636	2185.2
1048.734	2183.2
1053.827	2157.2
1058.915	2142.2
1063.998	2132.2
1069.075	2114.2
1074.147	2110.2
1079.214	2116.2
1084.276	2130.2
1089.333	2122.2
1094.385	2139.2
1099.431	2132.2
1104.472	2139.2
1109.509	2118.2
1114.54	2096.2
1119.565	2099.2
1124.586	2036.2
1129.602	2014.2
1134.613	2013.2
1139.618	1999.2
1144.619	2005.2
1149.614	2009.2
1154.604	1997.2
1159.589	1991.2
1164.57	1998.2
1169.545	2001.2
1174.515	2012.2
1179.48	2009.2
1184.44	1980.2
1189.395	1971.2
1194.345	1946.2
1199.29	1947.2
1204.23	1927.2
1209.165	1942.2
1214.095	1960.2
1219.021	1962.2
1223.941	1987.2
1228.856	1981.2
1233.766	1988.2
1238.672	2011.2
1243.572	1970.2
1248.467	1963.2
1253.358	1945.2
1258.244	1905.2
1263.124	1902.2
1268	1840.2
1272.871	1838.2
1277.737	1825.2
1282.599	1832.2
1287.455	1820.2
1292.306	1811.2
1297.153	1816.2
1301.995	1843.2
1306.832	1844.2
1311.664	1872.2
1316.491	1863.2
1321.314	1847.2
1326.132	1848.2
1330.945	1808.2
1335.753	1804.2
1340.556	1769.2
1345.354	1740.2
1350.148	1726.2
1354.937	1699.2
1359.722	1668.2
1364.501	1646.2
1369.276	1611.2
1374.046	1587.2
1378.811	1568.2
1383.572	1570.2
1388.327	1555.2
1393.079	1555.2
1397.825	1560.2
1402.567	1548.2
1407.304	1540.2
1412.036	1556.2
1416.764	1556.2
1421.487	1567.2
1426.205	1574.2
1430.919	1553.2
1435.628	1576.2
1440.333	1597.2
1445.032	1600.2
1449.727	1616.2
1454.418	1643.2
1459.104	1619.2
1463.785	1600.2
1468.462	1581.2
1473.134	1546.2
1477.802	1496.2
1482.465	1481.2
1487.123	1450.2
1491.777	1435.2
1496.426	1435.2
1501.071	1406.2
1505.711	1401.2
1510.347	1420.2
1514.978	1375.2
1519.604	1390.2
1524.226	1407.2
1528.844	1394.2
1533.457	1371.2
1538.065	1365.2
1542.669	1361.2
1547.269	1347.2
1551.864	1363.2
1556.454	1366.2
1561.041	1402.2
1565.622	1398.2
1570.199	1408.2
1574.772	1430.2
1579.34	1433.2
1583.904	1449.2
1588.464	1451.2
1593.019	1458.2
1597.569	1452.2
1602.115	1451.2
1606.657	1467.2
1611.195	1457.2
1615.728	1442.2
1620.256	1439.2
1624.78	1448.2
1629.3	1453.2
1633.816	1449.2
1638.327	1428.2
1642.834	1450.2
1647.336	1458.2
1651.834	1465.2
1656.328	1458.2
1660.817	1480.2
1665.302	1459.2
1669.783	1428.2
1674.259	1401.2
1678.732	1374.2
1683.199	1325.2
1687.663	1305.2
1692.122	1232.2
1696.577	1198.2
1701.028	1166.2
1705.474	1113.2
1709.917	1084.2
1714.355	1055.2
1718.788	1055.2
1723.218	1057.2
1727.643	1066.2
1732.064	1047.2
1736.481	1035.2
1740.893	1004.2
1745.301	988.2
1749.705	989.2
1754.105	960.2
1758.501	947.2
1762.893	932.2
1767.28	916.2
1771.663	908.2
1776.042	904.2
1780.417	891.2
1784.787	889.2
1789.154	869.2
1793.516	868.2
1797.874	850.2
1802.228	855.2
1806.578	834.2
1810.924	818.2
1815.266	820.2
1819.603	818.2
1823.937	815.2
1828.266	819.2
1832.591	806.2
1836.913	809.2
1841.23	820.2
1845.543	820.2
1849.852	812.2
1854.156	817.2
1858.457	830.2
1862.754	817.2
1867.047	822.2
1871.335	824.2
1875.62	804.2
1879.9	823.2
1884.177	809.2
1888.449	802.2
1892.718	803.2
1896.982	783.2
1901.243	759.2
1905.499	762.2
1909.752	763.2
1914	747.2
1918.245	743.2
1922.485	718.2
1926.722	724.2
1930.954	722.2
1935.183	713.2
1939.408	707.2
1943.628	712.2
1947.845	705.2
1952.058	703.2
1956.267	686.2
1960.472	690.2
1964.673	675.2
1968.87	674.2
1973.063	658.2
1977.252	652.2
1981.438	671.2
1985.619	672.2
1989.797	660.2
1993.971	668.2
1998.14	682.2
2002.306	651.2
2006.469	667.2
2010.627	666.2
2014.781	671.2
2018.932	670.2
2023.078	672.2
2027.221	667.2
2031.36	660.2
2035.495	646.2
2039.627	636.2
2043.754	622.2
2047.878	620.2
2051.998	616.2
2056.114	611.2
2060.226	613.2
2064.334	611.2
2068.439	609.2
2072.54	611.2
2076.637	599.2
2080.73	598.2
2084.82	598.2
2088.906	595.2
2092.988	581.2
2097.066	581.2
2101.14	574.2
2105.211	569.2
2109.278	569.2
2113.342	558.2
2117.401	559.2
2121.457	552.2
2125.509	544.2
2129.558	552.2
2133.602	551.2
2137.643	535.2
2141.681	535.2
2145.714	548.2
2149.744	543.2
2153.77	536.2
2157.793	530.2
2161.812	540.2
2165.827	531.2
2169.838	516.2
2173.846	515.2
2177.851	500.2
2181.851	496.2
2185.848	489.2
2189.841	489.2
2193.831	491.2
2197.817	472.2
2201.799	474.2
2205.778	483.2
2209.753	480.2
2213.725	478.2
2217.693	470.2
2221.657	471.2
2225.618	469.2
2229.575	467.2
2233.529	466.2
2237.479	460.2
2241.425	455.2
2245.368	444.2
2249.307	439.2
2253.243	434.2
2257.175	417.2
2261.104	427.2
2265.029	419.2
2268.95	423.2
2272.868	407.2
2276.783	407.2
2280.694	400.2
2284.601	389.2
2288.505	393.2
2292.405	378.2
2296.302	395.2
2300.195	381.2
2304.085	369.2
2307.971	352.2
2311.854	364.2
2315.734	352.2
2319.609	356.2
2323.482	346.2
2327.351	354.2
2331.216	363.2
2335.078	370.2
2338.937	362.2
2342.792	344.2
2346.643	334.2
2350.492	327.2
2354.336	336.2
2358.178	338.2
2362.015	338.2
2365.85	340.2
2369.681	343.2
2373.508	341.2
2377.333	338.2
2381.153	331.2
2384.971	343.2
2388.785	341.2
2392.595	334.2
2396.402	322.2
2400.206	330.2
2404.007	327.2
2407.804	335.2
2411.597	331.2
2415.388	326.2
2419.174	323.2
2422.958	319.2
2426.738	312.2
2430.515	319.2
2434.289	312.2
2438.059	310.2
2441.825	302.2
2445.589	315.2
2449.349	305.2
2453.106	296.2
2456.859	286.2
2460.61	296.2
2464.356	291.2
2468.1	279.2
2471.84	279.2
2475.577	288.2
2479.311	269.2
2483.041	277.2
2486.768	273.2
2490.492	263.2
2494.213	272.2
2497.93	268.2
2501.644	264.2
2505.355	263.2
2509.062	256.2
2512.766	266.2
2516.467	248.2
2520.165	254.2
2523.859	259.2
2527.551	252.2
2531.239	239.2
2534.923	241.2
2538.605	232.2
2542.283	231.2
2545.958	230.2
2549.63	235.2
2553.299	238.2
2556.964	233.2
2560.626	227.2
2564.285	221.2
2567.941	212.2
2571.594	216.2
2575.243	213.2
2578.89	210.2
2582.533	212.2
2586.173	210.2
2589.809	199.2
2593.443	194.2
2597.073	200.2
2600.701	189.2
2604.325	190.2
2607.946	187.2
2611.564	186.2
2615.178	183.2
2618.79	196.2
2622.398	189.2
2626.004	180.2
2629.606	192.2
2633.205	174.2
2636.801	177.2
2640.394	177.2
2643.983	180.2
2647.57	178.2
2651.153	172.2
2654.734	168.2
2658.311	162.2
2661.885	159.2
2665.456	169.2
2669.025	165.2
2672.589	170.2
2676.151	167.2
2679.71	160.2
2683.266	154.2
2686.819	151.2
2690.368	160.2
2693.915	143.2
2697.458	153.2
2700.999	147.2
2704.536	142.2
2708.071	140.2
2711.602	138.2
2715.13	138.2
2718.656	131.2
2722.178	127.2
2725.697	126.2
2729.214	123.2
2732.727	128.2
2736.237	127.2
2739.744	121.2
2743.249	115.2
2746.75	112.2
2750.248	117.2
2753.743	114.2
2757.236	111.2
2760.725	114.2
2764.211	97.2
2767.695	103.2
2771.175	96.2
2774.652	98.2
2778.127	99.2
2781.598	93.2
2785.067	107.2
2788.532	102.2
2791.995	102.2
2795.455	106.2
2798.911	95.2
2802.365	98.2
2805.816	100.2
2809.264	93.2
2812.709	110.2
2816.151	108.2
2819.59	110.2
2823.026	103.2
2826.46	95.2
2829.89	101.2
2833.318	97.2
2836.742	106.2
2840.164	109.2
2843.583	109.2
2846.999	112.2
2850.412	108.2
2853.822	100.2
2857.229	107.2
2860.634	118.2
2864.035	112.2
2867.434	116.2
2870.83	129.2
2874.223	129.2
2877.613	135.2
2881	128.2
2884.385	135.2
2887.766	127.2
2891.145	126.2
2894.521	136.2
2897.894	144.2
2901.264	138.2
2904.631	136.2
2907.996	136.2
2911.358	135.2
2914.717	141.2
2918.073	141.2
2921.426	143.2
2924.777	157.2
2928.124	157.2
2931.469	159.2
2934.811	158.2
2938.15	157.2
2941.487	172.2
2944.821	165.2
2948.152	164.2
2951.48	170.2
2954.805	179.2
2958.128	174.2
2961.447	158.2
2964.765	164.2
2968.079	163.2
2971.39	156.2
2974.699	166.2
2978.005	170.2
2981.308	171.2
2984.609	170.2
2987.907	168.2
2991.202	167.2
2994.494	171.2
2997.784	175.2
3001.07	175.2
3004.355	182.2
3007.636	175.2
3010.915	186.2
3014.191	180.2
3017.464	180.2
3020.734	176.2
3024.002	184.2
3027.267	196.2
3030.53	199.2
3033.789	204.2
3037.046	217.2
3040.301	205.2
3043.552	218.2
3046.801	224.2
3050.048	224.2
3053.291	232.2
3056.532	249.2
3059.771	267.2
3063.006	264.2
3066.239	268.2
3069.469	276.2
3072.697	270.2
3075.922	295.2
3079.144	301.2
3082.364	313.2
3085.581	327.2
3088.795	325.2
3092.007	335.2
3095.216	333.2
3098.423	343.2
3101.627	345.2
3104.828	349.2
3108.026	367.2
3111.222	373.2
3114.416	381.2
3117.607	400.2
3120.795	392.2
3123.98	396.2
3127.163	415.2
3130.344	427.2
3133.521	427.2
3136.696	452.2
3139.869	451.2
3143.039	470.2
3146.206	464.2
3149.371	486.2
3152.533	466.2
3155.693	485.2
3158.85	488.2
3162.005	496.2
3165.157	485.2
3168.306	490.2
3171.453	491.2
3174.597	495.2
3177.739	503.2
3180.878	498.2
3184.014	516.2
3187.149	506.2
3190.28	503.2
3193.409	510.2
3196.536	500.2
3199.659	506.2
3202.781	508.2
3205.9	501.2
3209.016	515.2
3212.13	514.2
3215.241	510.2
3218.35	502.2
3221.456	498.2
3224.56	491.2
3227.661	479.2
3230.76	479.2
3233.856	471.2
3236.95	470.2
3240.041	465.2
3243.13	443.2
3246.216	443.2
3249.3	445.2
3252.382	444.2
3255.46	436.2
3258.537	422.2
3261.611	419.2
3264.682	417.2
3267.751	420.2
3270.818	408.2
3273.882	397.2
3276.943	413.2
3280.002	397.2
3283.059	403.2
3286.113	401.2
3289.165	388.2
3292.214	396.2
3295.261	373.2
3298.306	379.2
3301.348	370.2
3304.387	364.2
3307.425	363.2
3310.459	368.2
3313.492	359.2
3316.521	356.2
3319.549	351.2
3322.574	351.2
3325.597	354.2
3328.617	352.2
3331.635	338.2
3334.65	343.2
3337.663	331.2
3340.674	346.2
3343.682	335.2
3346.688	328.2
3349.691	341.2
3352.692	336.2
3355.691	330.2
3358.687	328.2
3361.681	338.2
3364.673	329.2
3367.662	315.2
3370.649	309.2
3373.633	298.2
3376.615	297.2
3379.595	293.2
3382.572	298.2
3385.547	296.2
3388.52	288.2
3391.49	271.2
3394.458	281.2
3397.424	271.2
3400.387	258.2
3403.348	272.2
3406.307	256.2
3409.263	268.2
3412.217	257.2
3415.168	253.2
3418.118	246.2
3421.065	237.2
3424.009	234.2
3426.951	234.2
3429.891	235.2
3432.829	227.2
3435.764	213.2
3438.697	209.2
3441.628	198.2
3444.557	199.2
3447.483	195.2
3450.407	182.2
3453.328	168.2
3456.247	174.2
3459.164	154.2
3462.079	159.2
3464.991	145.2
3467.902	139.2
3470.809	144.2
3473.715	129.2
3476.618	119.2
3479.519	114.2
3482.418	109.2
3485.315	109.2
3488.209	94.2
3491.101	100.2
3493.99	95.2
3496.878	89.2
3499.763	78.2
3502.646	78.2
3505.527	61.2
3508.405	62.2
3511.281	62.2
3514.155	52.2
3517.027	53.2
3519.897	46.2
3522.764	39.2
3525.629	32.2
3528.492	33.2
3531.352	20.2
3534.211	14.2
3537.067	22.2
3539.921	16.2
3542.773	14.2
3545.622	0.2
3548.469	-6.8
3551.315	-6.8
3554.157	-12.8
3556.998	-12.8
3559.837	-17.8
3562.673	-14.8
3565.507	-11.8
3568.339	-23.8
3571.169	-35.8
3573.996	-28.8
3576.822	-28.8
3579.645	-31.8
3582.466	-29.8
3585.285	-41.8
3588.101	-24.8
3590.916	-42.8
3593.728	-52.8
3596.538	-47.8
3599.346	-48.8
3602.152	-51.8
3604.956	-45.8
3607.757	-45.8
3610.556	-54.8
3613.354	-58.8
3616.149	-68.8
3618.942	-66.8
3621.732	-66.8
3624.521	-64.8
3627.307	-62.8
3630.092	-62.8
3632.874	-65.8
3635.654	-72.8
3638.432	-70.8
3641.208	-73.8
3643.982	-74.8
3646.753	-75.8
3649.523	-76.8
3652.29	-72.8
3655.055	-79.8
3657.818	-80.8
3660.579	-80.8
3663.338	-78.8
3666.095	-80.8
3668.849	-82.8
3671.602	-86.8
3674.352	-85.8
3677.101	-84.8
3679.847	-88.8
3682.591	-90.8
3685.333	-87.8
3688.073	-88.8
3690.811	-90.8
3693.547	-99.8
3696.281	-91.8
3699.013	-92.8
3701.742	-98.8
3704.47	-93.8
3707.195	-89.8
3709.919	-91.8
3712.64	-98.8
3715.359	-100.8
3718.076	-100.8
3720.792	-104.8
3723.505	-104.8
3726.216	-97.8
3728.925	-102.8
3731.632	-96.8
3734.336	-110.8
3737.039	-99.8
3739.74	-103.8
3742.439	-103.8
3745.136	-99.8
3747.83	-109.8
3750.523	-105.8
3753.213	-103.8
3755.902	-102.8
3758.589	-105.8
3761.273	-102.8
3763.956	-99.8
3766.636	-102.8
3769.315	-98.8
3771.991	-97.8
3774.665	-104.8
3777.338	-96.8
3780.008	-106.8
3782.677	-109.8
3785.343	-105.8
3788.007	-104.8
3790.67	-105.8
3793.33	-101.8
3795.989	-107.8
3798.645	-98.8
3801.299	-106.8
3803.952	-111.8
3806.602	-103.8
3809.251	-108.8
3811.897	-108.8
3814.542	-109.8
3817.184	-105.8
3819.825	-104.8
3822.463	-105.8
3825.1	-105.8
3827.735	-110.8
3830.367	-107.8
3832.998	-108.8
3835.627	-102.8
3838.253	-104.8
3840.878	-103.8
3843.501	-106.8
3846.122	-111.8
3848.741	-112.8
3851.358	-105.8
3853.973	-109.8
3856.586	-107.8
3859.197	-115.8
3861.806	-112.8
3864.414	-108.8
3867.019	-106.8
3869.622	-106.8
3872.224	-94.8
3874.823	-94.8
3877.421	-83.8
3880.016	-68.8
3882.61	-51.8
3885.202	-53.8
3887.792	-62.8
3890.38	-72.8
3892.966	-101.8
3895.55	-104.8
3898.132	-108.8
3900.713	-105.8
3903.291	-108.8
3905.868	-110.8
3908.442	-107.8
3911.015	-112.8
3913.586	-108.8
3916.155	-116.8
3918.722	-109.8
3921.287	-109.8
3923.85	-106.8
3926.411	-112.8
3928.971	-112.8
3931.528	-113.8
3934.084	-107.8
3936.638	-105.8
3939.19	-111.8
3941.74	-113.8
3944.288	-111.8
3946.834	-109.8
3949.378	-113.8
3951.921	-112.8
3954.462	-120.8
3957	-114.8
3959.537	-105.8
3962.072	-107.8
3964.606	-106.8
3967.137	-107.8
3969.667	-108.8
3972.194	-114.8
3974.72	-112.8
3977.244	-108.8
3979.766	-111.8
3982.286	-108.8
3984.805	-106.8
3987.321	-108.8
3989.836	-101.8
3992.349	-111.8
3994.86	-110.8
3997.369	-113.8
3999.877	-111.8
4002.382	-102.8
4004.886	-109.8
4007.388	-104.8
4009.888	-104.8
4012.386	-109.8
4014.883	-114.8
4017.377	-108.8
4019.87	-103.8
4022.361	-108.8
4024.85	-107.8
4027.338	-109.8
4029.823	-98.8
4032.307	-105.8
4034.789	-110.8
4037.269	-109.8
4039.747	-105.8
4042.224	-108.8
4044.699	-110.8
4047.172	-104.8
4049.643	-102.8
4052.112	-106.8
4054.58	-108.8
4057.046	-112.8
4059.51	-114.8
4061.972	-103.8
4064.432	-105.8
4066.891	-104.8
4069.348	-105.8
4071.803	-113.8
4074.256	-106.8
4076.708	-105.8
4079.158	-105.8
4081.606	-101.8
4084.052	-104.8
4086.497	-108.8
4088.939	-95.8
4091.38	-107.8
4093.819	-107.8
4096.257	-110.8
4098.693	-111.8
4101.127	-111.8
4103.559	-109.8
4105.989	-3.8
4108.418	-7.8
4110.845	-2.8
4113.27	-1.8
4115.694	-5.8
4118.115	-6.8
4120.535	-110.8
4122.954	-109.8
4125.37	-108.8
4127.785	-110.8
4130.198	-104.8
4132.609	-103.8
4135.019	-113.8
4137.427	-111.8
4139.833	-115.8
4142.237	-113.8
