Data from 2018-2-8_conc=0_n=6_RamanShift_04.txt Node
Date: Mon Mar 12 13:38:29 IST 2018
User: aro
Spectrometer: QEPB0276
Trigger mode: 0
Integration Time (sec): 3.000000E1
Scans to average: 1
Electric dark correction enabled: true
Nonlinearity correction enabled: false
Boxcar width: 0
XAxis mode: Raman Shifts
Number of Pixels in Spectrum: 1044
>>>>>Begin Spectral Data<<<<<
160.701	20.9
166.742	52.9
172.777	140.9
178.805	411.9
184.826	1109.9
190.841	2391.9
196.849	3988.9
202.85	5215.9
208.845	5682.9
214.833	5718.9
220.815	5615.9
226.789	5555.9
232.758	5606.9
238.719	5625.9
244.674	5594.9
250.623	5509.9
256.565	5438.9
262.5	5305.9
268.429	5269.9
274.351	5237.9
280.267	5195.9
286.176	5185.9
292.079	5138.9
297.975	5134.9
303.865	5091.9
309.748	5063.9
315.625	5051.9
321.495	5054.9
327.359	5056.9
333.217	5036.9
339.068	5052.9
344.912	5081.9
350.751	5082.9
356.583	5069.9
362.408	5097.9
368.227	5102.9
374.04	5086.9
379.847	5139.9
385.647	5141.9
391.44	5201.9
397.228	5174.9
403.009	5222.9
408.784	5259.9
414.553	5246.9
420.315	5298.9
426.071	5262.9
431.821	5270.9
437.565	5261.9
443.302	5269.9
449.033	5283.9
454.758	5245.9
460.477	5183.9
466.189	5146.9
471.896	5141.9
477.596	5132.9
483.29	5098.9
488.978	5091.9
494.66	5064.9
500.335	4979.9
506.005	4892.9
511.668	4726.9
517.325	4584.9
522.977	4477.9
528.622	4382.9
534.261	4310.9
539.894	4280.9
545.521	4249.9
551.141	4238.9
556.756	4177.9
562.365	4176.9
567.968	4140.9
573.565	4120.9
579.155	4089.9
584.74	4099.9
590.319	4041.9
595.892	4046.9
601.459	4059.9
607.02	4040.9
612.575	4004.9
618.124	3976.9
623.667	3935.9
629.204	3909.9
634.735	3864.9
640.261	3828.9
645.781	3819.9
651.294	3814.9
656.802	3804.9
662.304	3797.9
667.8	3792.9
673.29	3776.9
678.775	3754.9
684.254	3760.9
689.726	3738.9
695.193	3756.9
700.655	3684.9
706.11	3688.9
711.56	3663.9
717.004	3635.9
722.442	3634.9
727.874	3607.9
733.301	3599.9
738.722	3567.9
744.137	3589.9
749.547	3506.9
754.951	3559.9
760.349	3562.9
765.741	3571.9
771.128	3555.9
776.509	3590.9
781.885	3604.9
787.254	3631.9
792.618	3622.9
797.977	3622.9
803.33	3577.9
808.677	3559.9
814.019	3536.9
819.355	3515.9
824.686	3484.9
830.011	3458.9
835.33	3465.9
840.644	3457.9
845.952	3464.9
851.255	3439.9
856.552	3444.9
861.844	3430.9
867.13	3389.9
872.41	3398.9
877.686	3384.9
882.955	3372.9
888.219	3345.9
893.478	3290.9
898.731	3218.9
903.979	3176.9
909.221	3158.9
914.458	3141.9
919.69	3112.9
924.916	3154.9
930.136	3143.9
935.351	3125.9
940.561	3182.9
945.766	3145.9
950.965	3125.9
956.158	3093.9
961.347	3055.9
966.529	3038.9
971.707	2984.9
976.879	2952.9
982.046	2919.9
987.208	2922.9
992.364	2922.9
997.515	2904.9
1002.66	2934.9
1007.801	2974.9
1012.936	2971.9
1018.066	2992.9
1023.19	3004.9
1028.309	3015.9
1033.423	3019.9
1038.532	2983.9
1043.636	2961.9
1048.734	2938.9
1053.827	2903.9
1058.915	2875.9
1063.998	2846.9
1069.075	2849.9
1074.147	2849.9
1079.214	2876.9
1084.276	2861.9
1089.333	2884.9
1094.385	2893.9
1099.431	2862.9
1104.472	2883.9
1109.509	2873.9
1114.54	2811.9
1119.565	2782.9
1124.586	2746.9
1129.602	2721.9
1134.613	2693.9
1139.618	2686.9
1144.619	2676.9
1149.614	2667.9
1154.604	2656.9
1159.589	2687.9
1164.57	2690.9
1169.545	2691.9
1174.515	2697.9
1179.48	2662.9
1184.44	2654.9
1189.395	2618.9
1194.345	2607.9
1199.29	2598.9
1204.23	2597.9
1209.165	2593.9
1214.095	2619.9
1219.021	2614.9
1223.941	2649.9
1228.856	2645.9
1233.766	2669.9
1238.672	2657.9
1243.572	2674.9
1248.467	2626.9
1253.358	2618.9
1258.244	2572.9
1263.124	2533.9
1268	2484.9
1272.871	2471.9
1277.737	2437.9
1282.599	2421.9
1287.455	2428.9
1292.306	2430.9
1297.153	2445.9
1301.995	2465.9
1306.832	2454.9
1311.664	2506.9
1316.491	2490.9
1321.314	2498.9
1326.132	2462.9
1330.945	2432.9
1335.753	2413.9
1340.556	2355.9
1345.354	2309.9
1350.148	2282.9
1354.937	2237.9
1359.722	2215.9
1364.501	2163.9
1369.276	2131.9
1374.046	2100.9
1378.811	2072.9
1383.572	2039.9
1388.327	2049.9
1393.079	2045.9
1397.825	2067.9
1402.567	2092.9
1407.304	2066.9
1412.036	2078.9
1416.764	2083.9
1421.487	2099.9
1426.205	2079.9
1430.919	2098.9
1435.628	2096.9
1440.333	2134.9
1445.032	2135.9
1449.727	2156.9
1454.418	2176.9
1459.104	2161.9
1463.785	2130.9
1468.462	2090.9
1473.134	2046.9
1477.802	1992.9
1482.465	1949.9
1487.123	1910.9
1491.777	1898.9
1496.426	1862.9
1501.071	1859.9
1505.711	1835.9
1510.347	1833.9
1514.978	1839.9
1519.604	1821.9
1524.226	1832.9
1528.844	1813.9
1533.457	1804.9
1538.065	1787.9
1542.669	1768.9
1547.269	1787.9
1551.864	1800.9
1556.454	1818.9
1561.041	1836.9
1565.622	1856.9
1570.199	1839.9
1574.772	1854.9
1579.34	1900.9
1583.904	1925.9
1588.464	1919.9
1593.019	1922.9
1597.569	1928.9
1602.115	1942.9
1606.657	1919.9
1611.195	1918.9
1615.728	1907.9
1620.256	1915.9
1624.78	1887.9
1629.3	1904.9
1633.816	1904.9
1638.327	1899.9
1642.834	1942.9
1647.336	1940.9
1651.834	1944.9
1656.328	1942.9
1660.817	1926.9
1665.302	1903.9
1669.783	1867.9
1674.259	1853.9
1678.732	1805.9
1683.199	1731.9
1687.663	1695.9
1692.122	1616.9
1696.577	1552.9
1701.028	1487.9
1705.474	1433.9
1709.917	1375.9
1714.355	1343.9
1718.788	1350.9
1723.218	1359.9
1727.643	1351.9
1732.064	1339.9
1736.481	1337.9
1740.893	1290.9
1745.301	1284.9
1749.705	1256.9
1754.105	1214.9
1758.501	1229.9
1762.893	1193.9
1767.28	1199.9
1771.663	1164.9
1776.042	1165.9
1780.417	1141.9
1784.787	1132.9
1789.154	1124.9
1793.516	1105.9
1797.874	1083.9
1802.228	1066.9
1806.578	1049.9
1810.924	1050.9
1815.266	1035.9
1819.603	1050.9
1823.937	1022.9
1828.266	1037.9
1832.591	1037.9
1836.913	1045.9
1841.23	1042.9
1845.543	1037.9
1849.852	1036.9
1854.156	1026.9
1858.457	1049.9
1862.754	1043.9
1867.047	1033.9
1871.335	1042.9
1875.62	1035.9
1879.9	1039.9
1884.177	1026.9
1888.449	1016.9
1892.718	1005.9
1896.982	989.9
1901.243	956.9
1905.499	955.9
1909.752	951.9
1914	924.9
1918.245	923.9
1922.485	908.9
1926.722	902.9
1930.954	890.9
1935.183	891.9
1939.408	889.9
1943.628	894.9
1947.845	878.9
1952.058	856.9
1956.267	855.9
1960.472	848.9
1964.673	835.9
1968.87	834.9
1973.063	836.9
1977.252	818.9
1981.438	825.9
1985.619	809.9
1989.797	820.9
1993.971	824.9
1998.14	836.9
2002.306	836.9
2006.469	858.9
2010.627	845.9
2014.781	841.9
2018.932	837.9
2023.078	843.9
2027.221	829.9
2031.36	821.9
2035.495	804.9
2039.627	799.9
2043.754	782.9
2047.878	785.9
2051.998	781.9
2056.114	770.9
2060.226	772.9
2064.334	759.9
2068.439	764.9
2072.54	768.9
2076.637	765.9
2080.73	770.9
2084.82	752.9
2088.906	738.9
2092.988	743.9
2097.066	737.9
2101.14	716.9
2105.211	712.9
2109.278	700.9
2113.342	689.9
2117.401	676.9
2121.457	682.9
2125.509	673.9
2129.558	676.9
2133.602	669.9
2137.643	678.9
2141.681	674.9
2145.714	669.9
2149.744	668.9
2153.77	679.9
2157.793	668.9
2161.812	661.9
2165.827	653.9
2169.838	658.9
2173.846	634.9
2177.851	625.9
2181.851	630.9
2185.848	611.9
2189.841	621.9
2193.831	600.9
2197.817	605.9
2201.799	599.9
2205.778	607.9
2209.753	593.9
2213.725	582.9
2217.693	599.9
2221.657	582.9
2225.618	591.9
2229.575	585.9
2233.529	586.9
2237.479	586.9
2241.425	578.9
2245.368	563.9
2249.307	562.9
2253.243	545.9
2257.175	534.9
2261.104	532.9
2265.029	529.9
2268.95	516.9
2272.868	519.9
2276.783	516.9
2280.694	504.9
2284.601	498.9
2288.505	498.9
2292.405	485.9
2296.302	488.9
2300.195	483.9
2304.085	471.9
2307.971	455.9
2311.854	452.9
2315.734	439.9
2319.609	439.9
2323.482	438.9
2327.351	428.9
2331.216	447.9
2335.078	454.9
2338.937	447.9
2342.792	430.9
2346.643	423.9
2350.492	419.9
2354.336	415.9
2358.178	421.9
2362.015	427.9
2365.85	441.9
2369.681	428.9
2373.508	429.9
2377.333	418.9
2381.153	419.9
2384.971	424.9
2388.785	422.9
2392.595	417.9
2396.402	418.9
2400.206	422.9
2404.007	410.9
2407.804	428.9
2411.597	405.9
2415.388	406.9
2419.174	401.9
2422.958	395.9
2426.738	403.9
2430.515	393.9
2434.289	400.9
2438.059	389.9
2441.825	381.9
2445.589	384.9
2449.349	360.9
2453.106	368.9
2456.859	374.9
2460.61	360.9
2464.356	366.9
2468.1	354.9
2471.84	344.9
2475.577	344.9
2479.311	328.9
2483.041	333.9
2486.768	339.9
2490.492	336.9
2494.213	342.9
2497.93	342.9
2501.644	333.9
2505.355	310.9
2509.062	319.9
2512.766	321.9
2516.467	312.9
2520.165	306.9
2523.859	300.9
2527.551	304.9
2531.239	294.9
2534.923	298.9
2538.605	286.9
2542.283	282.9
2545.958	278.9
2549.63	278.9
2553.299	270.9
2556.964	281.9
2560.626	281.9
2564.285	269.9
2567.941	267.9
2571.594	258.9
2575.243	268.9
2578.89	248.9
2582.533	245.9
2586.173	250.9
2589.809	246.9
2593.443	246.9
2597.073	235.9
2600.701	238.9
2604.325	229.9
2607.946	235.9
2611.564	226.9
2615.178	229.9
2618.79	235.9
2622.398	234.9
2626.004	226.9
2629.606	222.9
2633.205	225.9
2636.801	212.9
2640.394	219.9
2643.983	221.9
2647.57	211.9
2651.153	204.9
2654.734	202.9
2658.311	198.9
2661.885	204.9
2665.456	199.9
2669.025	198.9
2672.589	191.9
2676.151	196.9
2679.71	186.9
2683.266	188.9
2686.819	191.9
2690.368	180.9
2693.915	179.9
2697.458	179.9
2700.999	177.9
2704.536	168.9
2708.071	161.9
2711.602	163.9
2715.13	167.9
2718.656	163.9
2722.178	151.9
2725.697	153.9
2729.214	147.9
2732.727	147.9
2736.237	142.9
2739.744	141.9
2743.249	143.9
2746.75	142.9
2750.248	135.9
2753.743	123.9
2757.236	126.9
2760.725	125.9
2764.211	114.9
2767.695	115.9
2771.175	108.9
2774.652	111.9
2778.127	118.9
2781.598	115.9
2785.067	122.9
2788.532	119.9
2791.995	112.9
2795.455	115.9
2798.911	111.9
2802.365	120.9
2805.816	126.9
2809.264	120.9
2812.709	122.9
2816.151	127.9
2819.59	121.9
2823.026	121.9
2826.46	123.9
2829.89	114.9
2833.318	118.9
2836.742	129.9
2840.164	127.9
2843.583	126.9
2846.999	129.9
2850.412	120.9
2853.822	122.9
2857.229	127.9
2860.634	138.9
2864.035	138.9
2867.434	143.9
2870.83	153.9
2874.223	166.9
2877.613	170.9
2881	175.9
2884.385	175.9
2887.766	161.9
2891.145	169.9
2894.521	173.9
2897.894	174.9
2901.264	182.9
2904.631	171.9
2907.996	185.9
2911.358	176.9
2914.717	173.9
2918.073	185.9
2921.426	195.9
2924.777	210.9
2928.124	205.9
2931.469	215.9
2934.811	212.9
2938.15	229.9
2941.487	236.9
2944.821	221.9
2948.152	220.9
2951.48	227.9
2954.805	234.9
2958.128	211.9
2961.447	215.9
2964.765	205.9
2968.079	211.9
2971.39	209.9
2974.699	221.9
2978.005	212.9
2981.308	219.9
2984.609	216.9
2987.907	204.9
2991.202	227.9
2994.494	222.9
2997.784	215.9
3001.07	227.9
3004.355	236.9
3007.636	240.9
3010.915	231.9
3014.191	232.9
3017.464	244.9
3020.734	243.9
3024.002	239.9
3027.267	251.9
3030.53	255.9
3033.789	263.9
3037.046	268.9
3040.301	268.9
3043.552	278.9
3046.801	299.9
3050.048	299.9
3053.291	312.9
3056.532	322.9
3059.771	334.9
3063.006	339.9
3066.239	356.9
3069.469	372.9
3072.697	378.9
3075.922	383.9
3079.144	398.9
3082.364	404.9
3085.581	418.9
3088.795	429.9
3092.007	423.9
3095.216	449.9
3098.423	453.9
3101.627	464.9
3104.828	462.9
3108.026	482.9
3111.222	493.9
3114.416	509.9
3117.607	506.9
3120.795	529.9
3123.98	543.9
3127.163	555.9
3130.344	569.9
3133.521	571.9
3136.696	577.9
3139.869	590.9
3143.039	608.9
3146.206	619.9
3149.371	628.9
3152.533	644.9
3155.693	640.9
3158.85	647.9
3162.005	653.9
3165.157	649.9
3168.306	653.9
3171.453	650.9
3174.597	657.9
3177.739	666.9
3180.878	667.9
3184.014	679.9
3187.149	674.9
3190.28	668.9
3193.409	666.9
3196.536	661.9
3199.659	686.9
3202.781	680.9
3205.9	682.9
3209.016	688.9
3212.13	676.9
3215.241	681.9
3218.35	676.9
3221.456	666.9
3224.56	660.9
3227.661	649.9
3230.76	630.9
3233.856	628.9
3236.95	620.9
3240.041	605.9
3243.13	596.9
3246.216	586.9
3249.3	583.9
3252.382	579.9
3255.46	583.9
3258.537	572.9
3261.611	567.9
3264.682	547.9
3267.751	555.9
3270.818	542.9
3273.882	551.9
3276.943	534.9
3280.002	535.9
3283.059	537.9
3286.113	540.9
3289.165	527.9
3292.214	520.9
3295.261	506.9
3298.306	505.9
3301.348	501.9
3304.387	501.9
3307.425	499.9
3310.459	476.9
3313.492	489.9
3316.521	476.9
3319.549	470.9
3322.574	469.9
3325.597	459.9
3328.617	461.9
3331.635	463.9
3334.65	464.9
3337.663	443.9
3340.674	454.9
3343.682	453.9
3346.688	448.9
3349.691	463.9
3352.692	456.9
3355.691	448.9
3358.687	442.9
3361.681	438.9
3364.673	441.9
3367.662	426.9
3370.649	424.9
3373.633	419.9
3376.615	407.9
3379.595	393.9
3382.572	402.9
3385.547	391.9
3388.52	382.9
3391.49	382.9
3394.458	369.9
3397.424	355.9
3400.387	350.9
3403.348	353.9
3406.307	344.9
3409.263	352.9
3412.217	333.9
3415.168	342.9
3418.118	325.9
3421.065	324.9
3424.009	336.9
3426.951	306.9
3429.891	309.9
3432.829	297.9
3435.764	290.9
3438.697	279.9
3441.628	264.9
3444.557	266.9
3447.483	260.9
3450.407	239.9
3453.328	229.9
3456.247	218.9
3459.164	207.9
3462.079	204.9
3464.991	189.9
3467.902	186.9
3470.809	187.9
3473.715	162.9
3476.618	165.9
3479.519	154.9
3482.418	154.9
3485.315	136.9
3488.209	125.9
3491.101	124.9
3493.99	128.9
3496.878	115.9
3499.763	109.9
3502.646	93.9
3505.527	90.9
3508.405	87.9
3511.281	73.9
3514.155	65.9
3517.027	62.9
3519.897	58.9
3522.764	46.9
3525.629	39.9
3528.492	37.9
3531.352	29.9
3534.211	16.9
3537.067	11.9
3539.921	14.9
3542.773	8.9
3545.622	-1.1
3548.469	-8.1
3551.315	-12.1
3554.157	-19.1
3556.998	-27.1
3559.837	-22.1
3562.673	-29.1
3565.507	-30.1
3568.339	-35.1
3571.169	-46.1
3573.996	-39.1
3576.822	-44.1
3579.645	-50.1
3582.466	-47.1
3585.285	-58.1
3588.101	-47.1
3590.916	-67.1
3593.728	-71.1
3596.538	-73.1
3599.346	-67.1
3602.152	-73.1
3604.956	-73.1
3607.757	-75.1
3610.556	-84.1
3613.354	-84.1
3616.149	-90.1
3618.942	-93.1
3621.732	-93.1
3624.521	-93.1
3627.307	-91.1
3630.092	-95.1
3632.874	-90.1
3635.654	-97.1
3638.432	-95.1
3641.208	-101.1
3643.982	-104.1
3646.753	-107.1
3649.523	-111.1
3652.29	-106.1
3655.055	-106.1
3657.818	-112.1
3660.579	-115.1
3663.338	-113.1
3666.095	-117.1
3668.849	-119.1
3671.602	-122.1
3674.352	-123.1
3677.101	-123.1
3679.847	-129.1
3682.591	-125.1
3685.333	-124.1
3688.073	-127.1
3690.811	-131.1
3693.547	-131.1
3696.281	-137.1
3699.013	-135.1
3701.742	-141.1
3704.47	-130.1
3707.195	-128.1
3709.919	-130.1
3712.64	-134.1
3715.359	-141.1
3718.076	-137.1
3720.792	-136.1
3723.505	-143.1
3726.216	-138.1
3728.925	-138.1
3731.632	-137.1
3734.336	-147.1
3737.039	-141.1
3739.74	-148.1
3742.439	-151.1
3745.136	-138.1
3747.83	-147.1
3750.523	-146.1
3753.213	-145.1
3755.902	-145.1
3758.589	-146.1
3761.273	-139.1
3763.956	-143.1
3766.636	-151.1
3769.315	-143.1
3771.991	-136.1
3774.665	-144.1
3777.338	-138.1
3780.008	-146.1
3782.677	-150.1
3785.343	-147.1
3788.007	-149.1
3790.67	-150.1
3793.33	-145.1
3795.989	-145.1
3798.645	-144.1
3801.299	-142.1
3803.952	-148.1
3806.602	-144.1
3809.251	-156.1
3811.897	-153.1
3814.542	-154.1
3817.184	-145.1
3819.825	-150.1
3822.463	-146.1
3825.1	-143.1
3827.735	-143.1
3830.367	-149.1
3832.998	-155.1
3835.627	-152.1
3838.253	-148.1
3840.878	-147.1
3843.501	-144.1
3846.122	-151.1
3848.741	-154.1
3851.358	-145.1
3853.973	-151.1
3856.586	-148.1
3859.197	-153.1
3861.806	-149.1
3864.414	-146.1
3867.019	-147.1
3869.622	-148.1
3872.224	-135.1
3874.823	-123.1
3877.421	-106.1
3880.016	-76.1
3882.61	-41.1
3885.202	-43.1
3887.792	-65.1
3890.38	-105.1
3892.966	-130.1
3895.55	-139.1
3898.132	-144.1
3900.713	-146.1
3903.291	-148.1
3905.868	-150.1
3908.442	-148.1
3911.015	-151.1
3913.586	-154.1
3916.155	-152.1
3918.722	-153.1
3921.287	-148.1
3923.85	-153.1
3926.411	-155.1
3928.971	-152.1
3931.528	-153.1
3934.084	-151.1
3936.638	-145.1
3939.19	-156.1
3941.74	-153.1
3944.288	-155.1
3946.834	-150.1
3949.378	-155.1
3951.921	-153.1
3954.462	-159.1
3957	-155.1
3959.537	-146.1
3962.072	-153.1
3964.606	-149.1
3967.137	-153.1
3969.667	-152.1
3972.194	-150.1
3974.72	-154.1
3977.244	-154.1
3979.766	-153.1
3982.286	-147.1
3984.805	-153.1
3987.321	-149.1
3989.836	-141.1
3992.349	-146.1
3994.86	-150.1
3997.369	-154.1
3999.877	-152.1
4002.382	-142.1
4004.886	-155.1
4007.388	-154.1
4009.888	-146.1
4012.386	-159.1
4014.883	-152.1
4017.377	-152.1
4019.87	-154.1
4022.361	-149.1
4024.85	-151.1
4027.338	-145.1
4029.823	-147.1
4032.307	-149.1
4034.789	-149.1
4037.269	-150.1
4039.747	-146.1
4042.224	-150.1
4044.699	-147.1
4047.172	-143.1
4049.643	-145.1
4052.112	-148.1
4054.58	-148.1
4057.046	-153.1
4059.51	-150.1
4061.972	-149.1
4064.432	-148.1
4066.891	-150.1
4069.348	-146.1
4071.803	-154.1
4074.256	-150.1
4076.708	-153.1
4079.158	-150.1
4081.606	-150.1
4084.052	-152.1
4086.497	-146.1
4088.939	-139.1
4091.38	-146.1
4093.819	-148.1
4096.257	-158.1
4098.693	-157.1
4101.127	-158.1
4103.559	-155.1
4105.989	15.9
4108.418	8.9
4110.845	11.9
4113.27	0.9
4115.694	-1.1
4118.115	1.9
4120.535	-152.1
4122.954	-154.1
4125.37	-149.1
4127.785	-150.1
4130.198	-149.1
4132.609	-148.1
4135.019	-154.1
4137.427	-156.1
4139.833	-158.1
4142.237	-158.1
