Data from 2018-2-8_conc=4_n=7_RamanShift_02.txt Node
Date: Mon Mar 12 15:29:28 IST 2018
User: aro
Spectrometer: QEPB0276
Trigger mode: 0
Integration Time (sec): 3.000000E1
Scans to average: 1
Electric dark correction enabled: true
Nonlinearity correction enabled: false
Boxcar width: 0
XAxis mode: Raman Shifts
Number of Pixels in Spectrum: 1044
>>>>>Begin Spectral Data<<<<<
160.701	15.9
166.742	49.9
172.777	139.9
178.805	458.9
184.826	1217.9
190.841	2619.9
196.849	4355.9
202.85	5725.9
208.845	6257.9
214.833	6243.9
220.815	6180.9
226.789	6165.9
232.758	6194.9
238.719	6185.9
244.674	6171.9
250.623	6136.9
256.565	6027.9
262.5	5943.9
268.429	5881.9
274.351	5828.9
280.267	5826.9
286.176	5772.9
292.079	5763.9
297.975	5735.9
303.865	5717.9
309.748	5716.9
315.625	5688.9
321.495	5664.9
327.359	5655.9
333.217	5691.9
339.068	5698.9
344.912	5707.9
350.751	5675.9
356.583	5719.9
362.408	5727.9
368.227	5720.9
374.04	5754.9
379.847	5760.9
385.647	5814.9
391.44	5814.9
397.228	5841.9
403.009	5835.9
408.784	5903.9
414.553	5901.9
420.315	5918.9
426.071	5925.9
431.821	5919.9
437.565	5910.9
443.302	5890.9
449.033	5880.9
454.758	5846.9
460.477	5841.9
466.189	5819.9
471.896	5770.9
477.596	5752.9
483.29	5724.9
488.978	5733.9
494.66	5675.9
500.335	5628.9
506.005	5504.9
511.668	5383.9
517.325	5222.9
522.977	5111.9
528.622	5011.9
534.261	4918.9
539.894	4887.9
545.521	4888.9
551.141	4861.9
556.756	4855.9
562.365	4781.9
567.968	4793.9
573.565	4754.9
579.155	4724.9
584.74	4710.9
590.319	4690.9
595.892	4673.9
601.459	4661.9
607.02	4627.9
612.575	4597.9
618.124	4554.9
623.667	4527.9
629.204	4509.9
634.735	4455.9
640.261	4408.9
645.781	4419.9
651.294	4392.9
656.802	4383.9
662.304	4362.9
667.8	4353.9
673.29	4374.9
678.775	4382.9
684.254	4315.9
689.726	4318.9
695.193	4280.9
700.655	4283.9
706.11	4244.9
711.56	4245.9
717.004	4218.9
722.442	4195.9
727.874	4158.9
733.301	4155.9
738.722	4118.9
744.137	4112.9
749.547	4138.9
754.951	4153.9
760.349	4126.9
765.741	4136.9
771.128	4118.9
776.509	4141.9
781.885	4167.9
787.254	4170.9
792.618	4182.9
797.977	4179.9
803.33	4129.9
808.677	4084.9
814.019	4086.9
819.355	4046.9
824.686	4025.9
830.011	4012.9
835.33	4001.9
840.644	3980.9
845.952	3986.9
851.255	4016.9
856.552	3971.9
861.844	3965.9
867.13	3938.9
872.41	3920.9
877.686	3904.9
882.955	3856.9
888.219	3825.9
893.478	3790.9
898.731	3728.9
903.979	3685.9
909.221	3645.9
914.458	3642.9
919.69	3648.9
924.916	3640.9
930.136	3684.9
935.351	3645.9
940.561	3657.9
945.766	3617.9
950.965	3647.9
956.158	3604.9
961.347	3577.9
966.529	3520.9
971.707	3501.9
976.879	3443.9
982.046	3391.9
987.208	3399.9
992.364	3416.9
997.515	3418.9
1002.66	3423.9
1007.801	3472.9
1012.936	3472.9
1018.066	3503.9
1023.19	3528.9
1028.309	3505.9
1033.423	3491.9
1038.532	3481.9
1043.636	3464.9
1048.734	3423.9
1053.827	3384.9
1058.915	3323.9
1063.998	3314.9
1069.075	3299.9
1074.147	3302.9
1079.214	3307.9
1084.276	3319.9
1089.333	3338.9
1094.385	3360.9
1099.431	3364.9
1104.472	3305.9
1109.509	3312.9
1114.54	3274.9
1119.565	3226.9
1124.586	3188.9
1129.602	3161.9
1134.613	3142.9
1139.618	3124.9
1144.619	3113.9
1149.614	3093.9
1154.604	3106.9
1159.589	3118.9
1164.57	3131.9
1169.545	3130.9
1174.515	3134.9
1179.48	3128.9
1184.44	3095.9
1189.395	3058.9
1194.345	3069.9
1199.29	3025.9
1204.23	3008.9
1209.165	3042.9
1214.095	3052.9
1219.021	3049.9
1223.941	3059.9
1228.856	3072.9
1233.766	3093.9
1238.672	3101.9
1243.572	3088.9
1248.467	3080.9
1253.358	3034.9
1258.244	2995.9
1263.124	2969.9
1268	2896.9
1272.871	2852.9
1277.737	2853.9
1282.599	2812.9
1287.455	2818.9
1292.306	2851.9
1297.153	2833.9
1301.995	2868.9
1306.832	2888.9
1311.664	2906.9
1316.491	2888.9
1321.314	2863.9
1326.132	2861.9
1330.945	2819.9
1335.753	2769.9
1340.556	2746.9
1345.354	2692.9
1350.148	2658.9
1354.937	2640.9
1359.722	2581.9
1364.501	2548.9
1369.276	2511.9
1374.046	2486.9
1378.811	2471.9
1383.572	2457.9
1388.327	2449.9
1393.079	2424.9
1397.825	2423.9
1402.567	2433.9
1407.304	2427.9
1412.036	2409.9
1416.764	2435.9
1421.487	2459.9
1426.205	2430.9
1430.919	2433.9
1435.628	2463.9
1440.333	2463.9
1445.032	2500.9
1449.727	2511.9
1454.418	2519.9
1459.104	2567.9
1463.785	2561.9
1468.462	2531.9
1473.134	2459.9
1477.802	2423.9
1482.465	2445.9
1487.123	2439.9
1491.777	2277.9
1496.426	2215.9
1501.071	2175.9
1505.711	2177.9
1510.347	2172.9
1514.978	2172.9
1519.604	2164.9
1524.226	2176.9
1528.844	2157.9
1533.457	2151.9
1538.065	2134.9
1542.669	2139.9
1547.269	2118.9
1551.864	2125.9
1556.454	2151.9
1561.041	2171.9
1565.622	2181.9
1570.199	2183.9
1574.772	2197.9
1579.34	2228.9
1583.904	2245.9
1588.464	2262.9
1593.019	2241.9
1597.569	2276.9
1602.115	2250.9
1606.657	2257.9
1611.195	2227.9
1615.728	2229.9
1620.256	2237.9
1624.78	2208.9
1629.3	2229.9
1633.816	2220.9
1638.327	2251.9
1642.834	2259.9
1647.336	2246.9
1651.834	2268.9
1656.328	2255.9
1660.817	2239.9
1665.302	2243.9
1669.783	2196.9
1674.259	2139.9
1678.732	2094.9
1683.199	2049.9
1687.663	1981.9
1692.122	1890.9
1696.577	1832.9
1701.028	1766.9
1705.474	1708.9
1709.917	1646.9
1714.355	1627.9
1718.788	1598.9
1723.218	1618.9
1727.643	1621.9
1732.064	1611.9
1736.481	1586.9
1740.893	1564.9
1745.301	1538.9
1749.705	1510.9
1754.105	1485.9
1758.501	1469.9
1762.893	1453.9
1767.28	1422.9
1771.663	1413.9
1776.042	1394.9
1780.417	1380.9
1784.787	1370.9
1789.154	1373.9
1793.516	1350.9
1797.874	1334.9
1802.228	1312.9
1806.578	1297.9
1810.924	1281.9
1815.266	1286.9
1819.603	1275.9
1823.937	1270.9
1828.266	1275.9
1832.591	1267.9
1836.913	1268.9
1841.23	1274.9
1845.543	1265.9
1849.852	1267.9
1854.156	1267.9
1858.457	1268.9
1862.754	1271.9
1867.047	1250.9
1871.335	1271.9
1875.62	1261.9
1879.9	1257.9
1884.177	1247.9
1888.449	1238.9
1892.718	1209.9
1896.982	1205.9
1901.243	1182.9
1905.499	1181.9
1909.752	1140.9
1914	1136.9
1918.245	1128.9
1922.485	1122.9
1926.722	1109.9
1930.954	1099.9
1935.183	1102.9
1939.408	1093.9
1943.628	1075.9
1947.845	1064.9
1952.058	1077.9
1956.267	1053.9
1960.472	1051.9
1964.673	1033.9
1968.87	1034.9
1973.063	1035.9
1977.252	1021.9
1981.438	1024.9
1985.619	1008.9
1989.797	1013.9
1993.971	1039.9
1998.14	1031.9
2002.306	1027.9
2006.469	1029.9
2010.627	1040.9
2014.781	1034.9
2018.932	1035.9
2023.078	1028.9
2027.221	1020.9
2031.36	1018.9
2035.495	993.9
2039.627	969.9
2043.754	960.9
2047.878	968.9
2051.998	953.9
2056.114	929.9
2060.226	945.9
2064.334	941.9
2068.439	952.9
2072.54	944.9
2076.637	936.9
2080.73	922.9
2084.82	913.9
2088.906	911.9
2092.988	905.9
2097.066	886.9
2101.14	875.9
2105.211	876.9
2109.278	860.9
2113.342	842.9
2117.401	838.9
2121.457	833.9
2125.509	831.9
2129.558	829.9
2133.602	832.9
2137.643	831.9
2141.681	832.9
2145.714	826.9
2149.744	821.9
2153.77	821.9
2157.793	813.9
2161.812	816.9
2165.827	809.9
2169.838	796.9
2173.846	785.9
2177.851	767.9
2181.851	757.9
2185.848	755.9
2189.841	752.9
2193.831	749.9
2197.817	735.9
2201.799	737.9
2205.778	732.9
2209.753	731.9
2213.725	735.9
2217.693	719.9
2221.657	725.9
2225.618	738.9
2229.575	709.9
2233.529	727.9
2237.479	716.9
2241.425	705.9
2245.368	674.9
2249.307	679.9
2253.243	667.9
2257.175	667.9
2261.104	661.9
2265.029	653.9
2268.95	637.9
2272.868	631.9
2276.783	620.9
2280.694	625.9
2284.601	613.9
2288.505	614.9
2292.405	595.9
2296.302	582.9
2300.195	583.9
2304.085	579.9
2307.971	556.9
2311.854	547.9
2315.734	558.9
2319.609	542.9
2323.482	545.9
2327.351	544.9
2331.216	537.9
2335.078	548.9
2338.937	531.9
2342.792	522.9
2346.643	515.9
2350.492	515.9
2354.336	509.9
2358.178	508.9
2362.015	519.9
2365.85	505.9
2369.681	512.9
2373.508	523.9
2377.333	525.9
2381.153	530.9
2384.971	525.9
2388.785	514.9
2392.595	502.9
2396.402	501.9
2400.206	498.9
2404.007	488.9
2407.804	498.9
2411.597	480.9
2415.388	483.9
2419.174	479.9
2422.958	478.9
2426.738	486.9
2430.515	481.9
2434.289	482.9
2438.059	463.9
2441.825	472.9
2445.589	462.9
2449.349	448.9
2453.106	439.9
2456.859	443.9
2460.61	447.9
2464.356	422.9
2468.1	414.9
2471.84	410.9
2475.577	417.9
2479.311	410.9
2483.041	413.9
2486.768	401.9
2490.492	409.9
2494.213	414.9
2497.93	407.9
2501.644	404.9
2505.355	388.9
2509.062	385.9
2512.766	391.9
2516.467	385.9
2520.165	383.9
2523.859	373.9
2527.551	365.9
2531.239	351.9
2534.923	348.9
2538.605	348.9
2542.283	345.9
2545.958	337.9
2549.63	349.9
2553.299	336.9
2556.964	338.9
2560.626	319.9
2564.285	318.9
2567.941	314.9
2571.594	318.9
2575.243	313.9
2578.89	313.9
2582.533	306.9
2586.173	307.9
2589.809	295.9
2593.443	296.9
2597.073	290.9
2600.701	284.9
2604.325	286.9
2607.946	286.9
2611.564	291.9
2615.178	288.9
2618.79	278.9
2622.398	281.9
2626.004	275.9
2629.606	274.9
2633.205	269.9
2636.801	274.9
2640.394	271.9
2643.983	265.9
2647.57	260.9
2651.153	262.9
2654.734	263.9
2658.311	255.9
2661.885	255.9
2665.456	246.9
2669.025	240.9
2672.589	243.9
2676.151	239.9
2679.71	243.9
2683.266	242.9
2686.819	231.9
2690.368	224.9
2693.915	215.9
2697.458	207.9
2700.999	214.9
2704.536	216.9
2708.071	204.9
2711.602	205.9
2715.13	200.9
2718.656	207.9
2722.178	197.9
2725.697	186.9
2729.214	175.9
2732.727	193.9
2736.237	192.9
2739.744	184.9
2743.249	181.9
2746.75	178.9
2750.248	170.9
2753.743	172.9
2757.236	162.9
2760.725	161.9
2764.211	160.9
2767.695	157.9
2771.175	147.9
2774.652	146.9
2778.127	152.9
2781.598	138.9
2785.067	147.9
2788.532	152.9
2791.995	156.9
2795.455	153.9
2798.911	146.9
2802.365	154.9
2805.816	151.9
2809.264	148.9
2812.709	154.9
2816.151	146.9
2819.59	148.9
2823.026	159.9
2826.46	140.9
2829.89	147.9
2833.318	150.9
2836.742	152.9
2840.164	154.9
2843.583	151.9
2846.999	154.9
2850.412	154.9
2853.822	156.9
2857.229	159.9
2860.634	160.9
2864.035	160.9
2867.434	168.9
2870.83	174.9
2874.223	187.9
2877.613	186.9
2881	201.9
2884.385	201.9
2887.766	185.9
2891.145	192.9
2894.521	193.9
2897.894	203.9
2901.264	191.9
2904.631	197.9
2907.996	197.9
2911.358	202.9
2914.717	203.9
2918.073	205.9
2921.426	204.9
2924.777	217.9
2928.124	228.9
2931.469	226.9
2934.811	235.9
2938.15	249.9
2941.487	249.9
2944.821	244.9
2948.152	243.9
2951.48	247.9
2954.805	243.9
2958.128	243.9
2961.447	234.9
2964.765	234.9
2968.079	233.9
2971.39	234.9
2974.699	244.9
2978.005	245.9
2981.308	237.9
2984.609	240.9
2987.907	244.9
2991.202	248.9
2994.494	253.9
2997.784	241.9
3001.07	249.9
3004.355	260.9
3007.636	263.9
3010.915	257.9
3014.191	265.9
3017.464	275.9
3020.734	263.9
3024.002	276.9
3027.267	280.9
3030.53	282.9
3033.789	289.9
3037.046	299.9
3040.301	302.9
3043.552	312.9
3046.801	324.9
3050.048	332.9
3053.291	335.9
3056.532	350.9
3059.771	355.9
3063.006	370.9
3066.239	389.9
3069.469	405.9
3072.697	414.9
3075.922	428.9
3079.144	437.9
3082.364	448.9
3085.581	455.9
3088.795	451.9
3092.007	466.9
3095.216	474.9
3098.423	489.9
3101.627	505.9
3104.828	507.9
3108.026	523.9
3111.222	532.9
3114.416	538.9
3117.607	550.9
3120.795	564.9
3123.98	580.9
3127.163	592.9
3130.344	611.9
3133.521	610.9
3136.696	629.9
3139.869	645.9
3143.039	647.9
3146.206	659.9
3149.371	681.9
3152.533	684.9
3155.693	696.9
3158.85	687.9
3162.005	707.9
3165.157	702.9
3168.306	701.9
3171.453	703.9
3174.597	704.9
3177.739	724.9
3180.878	725.9
3184.014	724.9
3187.149	738.9
3190.28	723.9
3193.409	724.9
3196.536	732.9
3199.659	743.9
3202.781	732.9
3205.9	745.9
3209.016	751.9
3212.13	745.9
3215.241	728.9
3218.35	725.9
3221.456	721.9
3224.56	713.9
3227.661	703.9
3230.76	710.9
3233.856	695.9
3236.95	675.9
3240.041	673.9
3243.13	661.9
3246.216	651.9
3249.3	640.9
3252.382	628.9
3255.46	631.9
3258.537	633.9
3261.611	617.9
3264.682	605.9
3267.751	601.9
3270.818	612.9
3273.882	589.9
3276.943	586.9
3280.002	597.9
3283.059	586.9
3286.113	574.9
3289.165	576.9
3292.214	567.9
3295.261	555.9
3298.306	555.9
3301.348	553.9
3304.387	541.9
3307.425	539.9
3310.459	537.9
3313.492	523.9
3316.521	514.9
3319.549	515.9
3322.574	517.9
3325.597	502.9
3328.617	517.9
3331.635	512.9
3334.65	500.9
3337.663	481.9
3340.674	506.9
3343.682	509.9
3346.688	499.9
3349.691	497.9
3352.692	484.9
3355.691	489.9
3358.687	485.9
3361.681	488.9
3364.673	473.9
3367.662	468.9
3370.649	459.9
3373.633	446.9
3376.615	433.9
3379.595	430.9
3382.572	440.9
3385.547	427.9
3388.52	421.9
3391.49	405.9
3394.458	398.9
3397.424	398.9
3400.387	387.9
3403.348	379.9
3406.307	372.9
3409.263	370.9
3412.217	365.9
3415.168	375.9
3418.118	365.9
3421.065	359.9
3424.009	347.9
3426.951	344.9
3429.891	335.9
3432.829	333.9
3435.764	319.9
3438.697	301.9
3441.628	300.9
3444.557	286.9
3447.483	281.9
3450.407	275.9
3453.328	262.9
3456.247	254.9
3459.164	232.9
3462.079	222.9
3464.991	211.9
3467.902	202.9
3470.809	195.9
3473.715	181.9
3476.618	182.9
3479.519	174.9
3482.418	169.9
3485.315	147.9
3488.209	148.9
3491.101	145.9
3493.99	136.9
3496.878	136.9
3499.763	121.9
3502.646	111.9
3505.527	108.9
3508.405	98.9
3511.281	80.9
3514.155	85.9
3517.027	73.9
3519.897	67.9
3522.764	53.9
3525.629	50.9
3528.492	43.9
3531.352	32.9
3534.211	26.9
3537.067	18.9
3539.921	22.9
3542.773	19.9
3545.622	1.9
3548.469	-5.1
3551.315	-6.1
3554.157	-14.1
3556.998	-27.1
3559.837	-19.1
3562.673	-24.1
3565.507	-31.1
3568.339	-30.1
3571.169	-45.1
3573.996	-46.1
3576.822	-44.1
3579.645	-44.1
3582.466	-52.1
3585.285	-56.1
3588.101	-46.1
3590.916	-62.1
3593.728	-75.1
3596.538	-68.1
3599.346	-77.1
3602.152	-74.1
3604.956	-69.1
3607.757	-80.1
3610.556	-85.1
3613.354	-78.1
3616.149	-92.1
3618.942	-95.1
3621.732	-95.1
3624.521	-95.1
3627.307	-94.1
3630.092	-96.1
3632.874	-97.1
3635.654	-104.1
3638.432	-103.1
3641.208	-109.1
3643.982	-108.1
3646.753	-113.1
3649.523	-114.1
3652.29	-109.1
3655.055	-115.1
3657.818	-120.1
3660.579	-112.1
3663.338	-120.1
3666.095	-122.1
3668.849	-125.1
3671.602	-127.1
3674.352	-122.1
3677.101	-128.1
3679.847	-130.1
3682.591	-135.1
3685.333	-129.1
3688.073	-132.1
3690.811	-133.1
3693.547	-141.1
3696.281	-139.1
3699.013	-137.1
3701.742	-139.1
3704.47	-144.1
3707.195	-135.1
3709.919	-147.1
3712.64	-139.1
3715.359	-145.1
3718.076	-139.1
3720.792	-144.1
3723.505	-148.1
3726.216	-144.1
3728.925	-152.1
3731.632	-141.1
3734.336	-152.1
3737.039	-145.1
3739.74	-152.1
3742.439	-155.1
3745.136	-148.1
3747.83	-156.1
3750.523	-149.1
3753.213	-146.1
3755.902	-149.1
3758.589	-159.1
3761.273	-148.1
3763.956	-145.1
3766.636	-156.1
3769.315	-149.1
3771.991	-147.1
3774.665	-156.1
3777.338	-142.1
3780.008	-154.1
3782.677	-150.1
3785.343	-150.1
3788.007	-158.1
3790.67	-155.1
3793.33	-150.1
3795.989	-153.1
3798.645	-150.1
3801.299	-151.1
3803.952	-163.1
3806.602	-153.1
3809.251	-158.1
3811.897	-158.1
3814.542	-152.1
3817.184	-148.1
3819.825	-156.1
3822.463	-153.1
3825.1	-158.1
3827.735	-153.1
3830.367	-157.1
3832.998	-161.1
3835.627	-152.1
3838.253	-154.1
3840.878	-154.1
3843.501	-153.1
3846.122	-161.1
3848.741	-167.1
3851.358	-154.1
3853.973	-160.1
3856.586	-155.1
3859.197	-163.1
3861.806	-151.1
3864.414	-159.1
3867.019	-158.1
3869.622	-163.1
3872.224	-145.1
3874.823	-134.1
3877.421	-118.1
3880.016	-106.1
3882.61	-71.1
3885.202	-67.1
3887.792	-94.1
3890.38	-122.1
3892.966	-146.1
3895.55	-148.1
3898.132	-152.1
3900.713	-155.1
3903.291	-159.1
3905.868	-161.1
3908.442	-155.1
3911.015	-164.1
3913.586	-165.1
3916.155	-158.1
3918.722	-161.1
3921.287	-155.1
3923.85	-161.1
3926.411	-166.1
3928.971	-163.1
3931.528	-164.1
3934.084	-156.1
3936.638	-159.1
3939.19	-164.1
3941.74	-160.1
3944.288	-160.1
3946.834	-152.1
3949.378	-161.1
3951.921	-162.1
3954.462	-167.1
3957	-159.1
3959.537	-160.1
3962.072	-159.1
3964.606	-151.1
3967.137	-157.1
3969.667	-164.1
3972.194	-165.1
3974.72	-159.1
3977.244	-161.1
3979.766	-163.1
3982.286	-158.1
3984.805	-162.1
3987.321	-155.1
3989.836	-151.1
3992.349	-161.1
3994.86	-157.1
3997.369	-165.1
3999.877	-158.1
4002.382	-159.1
4004.886	-159.1
4007.388	-159.1
4009.888	-152.1
4012.386	-159.1
4014.883	-159.1
4017.377	-160.1
4019.87	-156.1
4022.361	-156.1
4024.85	-157.1
4027.338	-159.1
4029.823	-153.1
4032.307	-153.1
4034.789	-158.1
4037.269	-156.1
4039.747	-154.1
4042.224	-157.1
4044.699	-162.1
4047.172	-150.1
4049.643	-154.1
4052.112	-156.1
4054.58	-161.1
4057.046	-161.1
4059.51	-160.1
4061.972	-157.1
4064.432	-153.1
4066.891	-155.1
4069.348	-153.1
4071.803	-163.1
4074.256	-164.1
4076.708	-158.1
4079.158	-160.1
4081.606	-151.1
4084.052	-161.1
4086.497	-154.1
4088.939	-148.1
4091.38	-160.1
4093.819	-160.1
4096.257	-169.1
4098.693	-164.1
4101.127	-170.1
4103.559	-165.1
4105.989	-3.1
4108.418	-8.1
4110.845	-12.1
4113.27	-3.1
4115.694	-6.1
4118.115	-8.1
4120.535	-164.1
4122.954	-160.1
4125.37	-158.1
4127.785	-161.1
4130.198	-152.1
4132.609	-156.1
4135.019	-164.1
4137.427	-166.1
4139.833	-166.1
4142.237	-168.1
