Data from 2018-2-8_conc=2_n=4_RamanShift_01.txt Node
Date: Mon Mar 12 14:05:58 IST 2018
User: aro
Spectrometer: QEPB0276
Trigger mode: 0
Integration Time (sec): 3.000000E1
Scans to average: 1
Electric dark correction enabled: true
Nonlinearity correction enabled: false
Boxcar width: 0
XAxis mode: Raman Shifts
Number of Pixels in Spectrum: 1044
>>>>>Begin Spectral Data<<<<<
160.701	18.1
166.742	51.1
172.777	122.1
178.805	386.1
184.826	1023.1
190.841	2188.1
196.849	3598.1
202.85	4746.1
208.845	5145.1
214.833	5168.1
220.815	5089.1
226.789	5072.1
232.758	5075.1
238.719	5057.1
244.674	5015.1
250.623	4938.1
256.565	4916.1
262.5	4827.1
268.429	4747.1
274.351	4682.1
280.267	4651.1
286.176	4661.1
292.079	4638.1
297.975	4576.1
303.865	4588.1
309.748	4584.1
315.625	4579.1
321.495	4553.1
327.359	4562.1
333.217	4529.1
339.068	4537.1
344.912	4584.1
350.751	4552.1
356.583	4568.1
362.408	4555.1
368.227	4569.1
374.04	4610.1
379.847	4640.1
385.647	4662.1
391.44	4661.1
397.228	4670.1
403.009	4718.1
408.784	4728.1
414.553	4763.1
420.315	4773.1
426.071	4764.1
431.821	4768.1
437.565	4756.1
443.302	4718.1
449.033	4744.1
454.758	4725.1
460.477	4708.1
466.189	4673.1
471.896	4598.1
477.596	4588.1
483.29	4559.1
488.978	4577.1
494.66	4562.1
500.335	4465.1
506.005	4382.1
511.668	4211.1
517.325	4078.1
522.977	3960.1
528.622	3892.1
534.261	3829.1
539.894	3806.1
545.521	3735.1
551.141	3712.1
556.756	3717.1
562.365	3687.1
567.968	3629.1
573.565	3641.1
579.155	3591.1
584.74	3589.1
590.319	3591.1
595.892	3580.1
601.459	3550.1
607.02	3548.1
612.575	3528.1
618.124	3496.1
623.667	3450.1
629.204	3438.1
634.735	3418.1
640.261	3373.1
645.781	3348.1
651.294	3354.1
656.802	3334.1
662.304	3329.1
667.8	3298.1
673.29	3301.1
678.775	3305.1
684.254	3295.1
689.726	3255.1
695.193	3260.1
700.655	3255.1
706.11	3232.1
711.56	3217.1
717.004	3197.1
722.442	3192.1
727.874	3153.1
733.301	3132.1
738.722	3146.1
744.137	3138.1
749.547	3132.1
754.951	3143.1
760.349	3133.1
765.741	3130.1
771.128	3148.1
776.509	3164.1
781.885	3192.1
787.254	3181.1
792.618	3199.1
797.977	3169.1
803.33	3150.1
808.677	3143.1
814.019	3114.1
819.355	3071.1
824.686	3065.1
830.011	3049.1
835.33	3040.1
840.644	3048.1
845.952	3032.1
851.255	3006.1
856.552	3011.1
861.844	2987.1
867.13	2973.1
872.41	2951.1
877.686	2950.1
882.955	2919.1
888.219	2881.1
893.478	2845.1
898.731	2800.1
903.979	2758.1
909.221	2763.1
914.458	2728.1
919.69	2700.1
924.916	2740.1
930.136	2759.1
935.351	2728.1
940.561	2750.1
945.766	2764.1
950.965	2739.1
956.158	2719.1
961.347	2678.1
966.529	2640.1
971.707	2611.1
976.879	2588.1
982.046	2559.1
987.208	2540.1
992.364	2550.1
997.515	2549.1
1002.66	2576.1
1007.801	2601.1
1012.936	2625.1
1018.066	2609.1
1023.19	2628.1
1028.309	2630.1
1033.423	2630.1
1038.532	2601.1
1043.636	2595.1
1048.734	2557.1
1053.827	2554.1
1058.915	2507.1
1063.998	2496.1
1069.075	2488.1
1074.147	2469.1
1079.214	2469.1
1084.276	2490.1
1089.333	2509.1
1094.385	2509.1
1099.431	2526.1
1104.472	2500.1
1109.509	2499.1
1114.54	2452.1
1119.565	2432.1
1124.586	2391.1
1129.602	2341.1
1134.613	2349.1
1139.618	2341.1
1144.619	2326.1
1149.614	2329.1
1154.604	2329.1
1159.589	2331.1
1164.57	2362.1
1169.545	2341.1
1174.515	2359.1
1179.48	2342.1
1184.44	2313.1
1189.395	2299.1
1194.345	2281.1
1199.29	2283.1
1204.23	2276.1
1209.165	2260.1
1214.095	2303.1
1219.021	2318.1
1223.941	2315.1
1228.856	2338.1
1233.766	2331.1
1238.672	2349.1
1243.572	2332.1
1248.467	2313.1
1253.358	2291.1
1258.244	2273.1
1263.124	2197.1
1268	2171.1
1272.871	2151.1
1277.737	2143.1
1282.599	2119.1
1287.455	2113.1
1292.306	2139.1
1297.153	2109.1
1301.995	2141.1
1306.832	2149.1
1311.664	2174.1
1316.491	2168.1
1321.314	2158.1
1326.132	2155.1
1330.945	2138.1
1335.753	2091.1
1340.556	2056.1
1345.354	2043.1
1350.148	1983.1
1354.937	1979.1
1359.722	1946.1
1364.501	1930.1
1369.276	1879.1
1374.046	1852.1
1378.811	1818.1
1383.572	1819.1
1388.327	1822.1
1393.079	1823.1
1397.825	1826.1
1402.567	1816.1
1407.304	1817.1
1412.036	1840.1
1416.764	1841.1
1421.487	1835.1
1426.205	1839.1
1430.919	1823.1
1435.628	1839.1
1440.333	1847.1
1445.032	1879.1
1449.727	1894.1
1454.418	1899.1
1459.104	1897.1
1463.785	1875.1
1468.462	1841.1
1473.134	1816.1
1477.802	1749.1
1482.465	1731.1
1487.123	1671.1
1491.777	1669.1
1496.426	1652.1
1501.071	1639.1
1505.711	1644.1
1510.347	1647.1
1514.978	1608.1
1519.604	1635.1
1524.226	1617.1
1528.844	1612.1
1533.457	1600.1
1538.065	1600.1
1542.669	1591.1
1547.269	1589.1
1551.864	1601.1
1556.454	1614.1
1561.041	1624.1
1565.622	1634.1
1570.199	1640.1
1574.772	1653.1
1579.34	1687.1
1583.904	1706.1
1588.464	1718.1
1593.019	1722.1
1597.569	1714.1
1602.115	1713.1
1606.657	1706.1
1611.195	1701.1
1615.728	1702.1
1620.256	1699.1
1624.78	1694.1
1629.3	1706.1
1633.816	1716.1
1638.327	1728.1
1642.834	1733.1
1647.336	1730.1
1651.834	1738.1
1656.328	1729.1
1660.817	1706.1
1665.302	1714.1
1669.783	1673.1
1674.259	1635.1
1678.732	1606.1
1683.199	1542.1
1687.663	1496.1
1692.122	1446.1
1696.577	1401.1
1701.028	1340.1
1705.474	1288.1
1709.917	1245.1
1714.355	1218.1
1718.788	1206.1
1723.218	1213.1
1727.643	1211.1
1732.064	1205.1
1736.481	1193.1
1740.893	1171.1
1745.301	1140.1
1749.705	1123.1
1754.105	1087.1
1758.501	1083.1
1762.893	1067.1
1767.28	1070.1
1771.663	1050.1
1776.042	1038.1
1780.417	1008.1
1784.787	995.1
1789.154	1005.1
1793.516	1006.1
1797.874	980.1
1802.228	969.1
1806.578	955.1
1810.924	953.1
1815.266	934.1
1819.603	936.1
1823.937	924.1
1828.266	930.1
1832.591	920.1
1836.913	936.1
1841.23	926.1
1845.543	932.1
1849.852	932.1
1854.156	930.1
1858.457	941.1
1862.754	934.1
1867.047	928.1
1871.335	920.1
1875.62	927.1
1879.9	929.1
1884.177	924.1
1888.449	914.1
1892.718	889.1
1896.982	894.1
1901.243	871.1
1905.499	871.1
1909.752	853.1
1914	847.1
1918.245	848.1
1922.485	836.1
1926.722	829.1
1930.954	817.1
1935.183	823.1
1939.408	816.1
1943.628	807.1
1947.845	796.1
1952.058	782.1
1956.267	778.1
1960.472	774.1
1964.673	764.1
1968.87	762.1
1973.063	758.1
1977.252	737.1
1981.438	749.1
1985.619	752.1
1989.797	754.1
1993.971	769.1
1998.14	770.1
2002.306	744.1
2006.469	754.1
2010.627	765.1
2014.781	770.1
2018.932	753.1
2023.078	767.1
2027.221	746.1
2031.36	744.1
2035.495	743.1
2039.627	733.1
2043.754	708.1
2047.878	708.1
2051.998	701.1
2056.114	692.1
2060.226	693.1
2064.334	696.1
2068.439	698.1
2072.54	686.1
2076.637	692.1
2080.73	679.1
2084.82	671.1
2088.906	678.1
2092.988	669.1
2097.066	664.1
2101.14	649.1
2105.211	656.1
2109.278	638.1
2113.342	627.1
2117.401	620.1
2121.457	612.1
2125.509	623.1
2129.558	610.1
2133.602	617.1
2137.643	625.1
2141.681	613.1
2145.714	614.1
2149.744	610.1
2153.77	614.1
2157.793	610.1
2161.812	606.1
2165.827	603.1
2169.838	597.1
2173.846	581.1
2177.851	566.1
2181.851	562.1
2185.848	538.1
2189.841	548.1
2193.831	547.1
2197.817	551.1
2201.799	545.1
2205.778	547.1
2209.753	542.1
2213.725	533.1
2217.693	538.1
2221.657	533.1
2225.618	528.1
2229.575	536.1
2233.529	534.1
2237.479	521.1
2241.425	524.1
2245.368	507.1
2249.307	499.1
2253.243	487.1
2257.175	482.1
2261.104	478.1
2265.029	467.1
2268.95	476.1
2272.868	459.1
2276.783	454.1
2280.694	435.1
2284.601	439.1
2288.505	431.1
2292.405	432.1
2296.302	435.1
2300.195	427.1
2304.085	414.1
2307.971	406.1
2311.854	407.1
2315.734	395.1
2319.609	388.1
2323.482	382.1
2327.351	395.1
2331.216	407.1
2335.078	410.1
2338.937	399.1
2342.792	376.1
2346.643	370.1
2350.492	365.1
2354.336	374.1
2358.178	383.1
2362.015	371.1
2365.85	367.1
2369.681	378.1
2373.508	384.1
2377.333	377.1
2381.153	374.1
2384.971	379.1
2388.785	374.1
2392.595	362.1
2396.402	360.1
2400.206	372.1
2404.007	363.1
2407.804	359.1
2411.597	354.1
2415.388	349.1
2419.174	364.1
2422.958	353.1
2426.738	343.1
2430.515	348.1
2434.289	338.1
2438.059	339.1
2441.825	328.1
2445.589	335.1
2449.349	322.1
2453.106	314.1
2456.859	329.1
2460.61	316.1
2464.356	306.1
2468.1	307.1
2471.84	301.1
2475.577	300.1
2479.311	297.1
2483.041	303.1
2486.768	301.1
2490.492	298.1
2494.213	303.1
2497.93	294.1
2501.644	296.1
2505.355	277.1
2509.062	275.1
2512.766	286.1
2516.467	275.1
2520.165	278.1
2523.859	263.1
2527.551	264.1
2531.239	253.1
2534.923	248.1
2538.605	252.1
2542.283	251.1
2545.958	253.1
2549.63	255.1
2553.299	245.1
2556.964	246.1
2560.626	234.1
2564.285	230.1
2567.941	237.1
2571.594	229.1
2575.243	227.1
2578.89	219.1
2582.533	217.1
2586.173	212.1
2589.809	212.1
2593.443	210.1
2597.073	209.1
2600.701	210.1
2604.325	198.1
2607.946	203.1
2611.564	203.1
2615.178	197.1
2618.79	198.1
2622.398	204.1
2626.004	196.1
2629.606	191.1
2633.205	189.1
2636.801	188.1
2640.394	183.1
2643.983	182.1
2647.57	177.1
2651.153	179.1
2654.734	185.1
2658.311	169.1
2661.885	169.1
2665.456	182.1
2669.025	176.1
2672.589	169.1
2676.151	170.1
2679.71	170.1
2683.266	167.1
2686.819	171.1
2690.368	162.1
2693.915	157.1
2697.458	151.1
2700.999	157.1
2704.536	149.1
2708.071	137.1
2711.602	146.1
2715.13	141.1
2718.656	139.1
2722.178	136.1
2725.697	131.1
2729.214	124.1
2732.727	134.1
2736.237	139.1
2739.744	138.1
2743.249	170.1
2746.75	162.1
2750.248	115.1
2753.743	116.1
2757.236	109.1
2760.725	118.1
2764.211	101.1
2767.695	100.1
2771.175	105.1
2774.652	98.1
2778.127	105.1
2781.598	105.1
2785.067	103.1
2788.532	106.1
2791.995	97.1
2795.455	110.1
2798.911	104.1
2802.365	112.1
2805.816	114.1
2809.264	102.1
2812.709	109.1
2816.151	106.1
2819.59	112.1
2823.026	110.1
2826.46	104.1
2829.89	112.1
2833.318	106.1
2836.742	108.1
2840.164	105.1
2843.583	109.1
2846.999	119.1
2850.412	106.1
2853.822	107.1
2857.229	111.1
2860.634	120.1
2864.035	111.1
2867.434	125.1
2870.83	131.1
2874.223	140.1
2877.613	147.1
2881	159.1
2884.385	156.1
2887.766	141.1
2891.145	143.1
2894.521	159.1
2897.894	150.1
2901.264	153.1
2904.631	159.1
2907.996	161.1
2911.358	161.1
2914.717	164.1
2918.073	167.1
2921.426	177.1
2924.777	185.1
2928.124	185.1
2931.469	184.1
2934.811	195.1
2938.15	198.1
2941.487	198.1
2944.821	190.1
2948.152	196.1
2951.48	201.1
2954.805	208.1
2958.128	193.1
2961.447	195.1
2964.765	200.1
2968.079	190.1
2971.39	185.1
2974.699	201.1
2978.005	197.1
2981.308	198.1
2984.609	197.1
2987.907	200.1
2991.202	209.1
2994.494	207.1
2997.784	208.1
3001.07	215.1
3004.355	221.1
3007.636	229.1
3010.915	223.1
3014.191	226.1
3017.464	225.1
3020.734	230.1
3024.002	222.1
3027.267	238.1
3030.53	247.1
3033.789	253.1
3037.046	251.1
3040.301	268.1
3043.552	276.1
3046.801	288.1
3050.048	275.1
3053.291	296.1
3056.532	305.1
3059.771	316.1
3063.006	320.1
3066.239	342.1
3069.469	354.1
3072.697	351.1
3075.922	362.1
3079.144	377.1
3082.364	385.1
3085.581	388.1
3088.795	401.1
3092.007	408.1
3095.216	418.1
3098.423	428.1
3101.627	446.1
3104.828	453.1
3108.026	451.1
3111.222	471.1
3114.416	483.1
3117.607	488.1
3120.795	498.1
3123.98	496.1
3127.163	513.1
3130.344	538.1
3133.521	527.1
3136.696	555.1
3139.869	565.1
3143.039	576.1
3146.206	585.1
3149.371	589.1
3152.533	605.1
3155.693	604.1
3158.85	615.1
3162.005	614.1
3165.157	623.1
3168.306	626.1
3171.453	612.1
3174.597	632.1
3177.739	632.1
3180.878	640.1
3184.014	644.1
3187.149	639.1
3190.28	646.1
3193.409	641.1
3196.536	654.1
3199.659	655.1
3202.781	655.1
3205.9	663.1
3209.016	656.1
3212.13	654.1
3215.241	663.1
3218.35	640.1
3221.456	643.1
3224.56	625.1
3227.661	614.1
3230.76	610.1
3233.856	597.1
3236.95	595.1
3240.041	586.1
3243.13	579.1
3246.216	566.1
3249.3	551.1
3252.382	553.1
3255.46	550.1
3258.537	558.1
3261.611	552.1
3264.682	541.1
3267.751	540.1
3270.818	526.1
3273.882	523.1
3276.943	516.1
3280.002	531.1
3283.059	521.1
3286.113	511.1
3289.165	511.1
3292.214	508.1
3295.261	507.1
3298.306	495.1
3301.348	491.1
3304.387	482.1
3307.425	481.1
3310.459	473.1
3313.492	458.1
3316.521	465.1
3319.549	455.1
3322.574	461.1
3325.597	446.1
3328.617	452.1
3331.635	449.1
3334.65	446.1
3337.663	424.1
3340.674	448.1
3343.682	452.1
3346.688	438.1
3349.691	441.1
3352.692	433.1
3355.691	429.1
3358.687	427.1
3361.681	430.1
3364.673	418.1
3367.662	415.1
3370.649	402.1
3373.633	406.1
3376.615	393.1
3379.595	386.1
3382.572	383.1
3385.547	381.1
3388.52	374.1
3391.49	371.1
3394.458	360.1
3397.424	358.1
3400.387	350.1
3403.348	338.1
3406.307	343.1
3409.263	332.1
3412.217	329.1
3415.168	328.1
3418.118	329.1
3421.065	305.1
3424.009	315.1
3426.951	313.1
3429.891	305.1
3432.829	287.1
3435.764	285.1
3438.697	273.1
3441.628	272.1
3444.557	256.1
3447.483	249.1
3450.407	236.1
3453.328	225.1
3456.247	221.1
3459.164	213.1
3462.079	196.1
3464.991	197.1
3467.902	186.1
3470.809	182.1
3473.715	167.1
3476.618	159.1
3479.519	159.1
3482.418	146.1
3485.315	136.1
3488.209	130.1
3491.101	124.1
3493.99	125.1
3496.878	115.1
3499.763	112.1
3502.646	100.1
3505.527	95.1
3508.405	95.1
3511.281	76.1
3514.155	74.1
3517.027	68.1
3519.897	59.1
3522.764	59.1
3525.629	50.1
3528.492	40.1
3531.352	39.1
3534.211	29.1
3537.067	21.1
3539.921	23.1
3542.773	17.1
3545.622	7.1
3548.469	4.1
3551.315	1.1
3554.157	-10.9
3556.998	-14.9
3559.837	-17.9
3562.673	-19.9
3565.507	-20.9
3568.339	-25.9
3571.169	-35.9
3573.996	-31.9
3576.822	-34.9
3579.645	-34.9
3582.466	-44.9
3585.285	-48.9
3588.101	-40.9
3590.916	-49.9
3593.728	-64.9
3596.538	-57.9
3599.346	-62.9
3602.152	-60.9
3604.956	-59.9
3607.757	-58.9
3610.556	-73.9
3613.354	-64.9
3616.149	-75.9
3618.942	-82.9
3621.732	-77.9
3624.521	-80.9
3627.307	-77.9
3630.092	-86.9
3632.874	-85.9
3635.654	-84.9
3638.432	-84.9
3641.208	-84.9
3643.982	-85.9
3646.753	-98.9
3649.523	-98.9
3652.29	-93.9
3655.055	-91.9
3657.818	-98.9
3660.579	-93.9
3663.338	-101.9
3666.095	-101.9
3668.849	-103.9
3671.602	-107.9
3674.352	-104.9
3677.101	-109.9
3679.847	-108.9
3682.591	-114.9
3685.333	-109.9
3688.073	-112.9
3690.811	-114.9
3693.547	-121.9
3696.281	-119.9
3699.013	-122.9
3701.742	-116.9
3704.47	-117.9
3707.195	-114.9
3709.919	-124.9
3712.64	-121.9
3715.359	-122.9
3718.076	-125.9
3720.792	-124.9
3723.505	-123.9
3726.216	-119.9
3728.925	-122.9
3731.632	-121.9
3734.336	-131.9
3737.039	-121.9
3739.74	-130.9
3742.439	-131.9
3745.136	-119.9
3747.83	-132.9
3750.523	-124.9
3753.213	-131.9
3755.902	-124.9
3758.589	-136.9
3761.273	-125.9
3763.956	-124.9
3766.636	-133.9
3769.315	-120.9
3771.991	-124.9
3774.665	-126.9
3777.338	-125.9
3780.008	-126.9
3782.677	-133.9
3785.343	-132.9
3788.007	-132.9
3790.67	-133.9
3793.33	-122.9
3795.989	-133.9
3798.645	-126.9
3801.299	-133.9
3803.952	-138.9
3806.602	-126.9
3809.251	-136.9
3811.897	-133.9
3814.542	-134.9
3817.184	-128.9
3819.825	-132.9
3822.463	-130.9
3825.1	-127.9
3827.735	-133.9
3830.367	-135.9
3832.998	-135.9
3835.627	-133.9
3838.253	-133.9
3840.878	-130.9
3843.501	-131.9
3846.122	-132.9
3848.741	-136.9
3851.358	-132.9
3853.973	-137.9
3856.586	-131.9
3859.197	-143.9
3861.806	-129.9
3864.414	-135.9
3867.019	-130.9
3869.622	-134.9
3872.224	-122.9
3874.823	-105.9
3877.421	-93.9
3880.016	-68.9
3882.61	-45.9
3885.202	-43.9
3887.792	-63.9
3890.38	-97.9
3892.966	-117.9
3895.55	-123.9
3898.132	-127.9
3900.713	-132.9
3903.291	-138.9
3905.868	-140.9
3908.442	-133.9
3911.015	-135.9
3913.586	-136.9
3916.155	-141.9
3918.722	-136.9
3921.287	-135.9
3923.85	-141.9
3926.411	-138.9
3928.971	-136.9
3931.528	-138.9
3934.084	-133.9
3936.638	-129.9
3939.19	-134.9
3941.74	-135.9
3944.288	-140.9
3946.834	-133.9
3949.378	-137.9
3951.921	-136.9
3954.462	-141.9
3957	-132.9
3959.537	-135.9
3962.072	-140.9
3964.606	-133.9
3967.137	-132.9
3969.667	-133.9
3972.194	-136.9
3974.72	-134.9
3977.244	-136.9
3979.766	-136.9
3982.286	-136.9
3984.805	-138.9
3987.321	-137.9
3989.836	-129.9
3992.349	-138.9
3994.86	-130.9
3997.369	-135.9
3999.877	-133.9
4002.382	-134.9
4004.886	-136.9
4007.388	-139.9
4009.888	-130.9
4012.386	-135.9
4014.883	-133.9
4017.377	-132.9
4019.87	-133.9
4022.361	-138.9
4024.85	-137.9
4027.338	-136.9
4029.823	-136.9
4032.307	-131.9
4034.789	-135.9
4037.269	-135.9
4039.747	-136.9
4042.224	-131.9
4044.699	-139.9
4047.172	-136.9
4049.643	-130.9
4052.112	-133.9
4054.58	-133.9
4057.046	-139.9
4059.51	-139.9
4061.972	-135.9
4064.432	-135.9
4066.891	-137.9
4069.348	-126.9
4071.803	-138.9
4074.256	-136.9
4076.708	-131.9
4079.158	-134.9
4081.606	-128.9
4084.052	-135.9
4086.497	-133.9
4088.939	-131.9
4091.38	-135.9
4093.819	-132.9
4096.257	-140.9
4098.693	-139.9
4101.127	-142.9
4103.559	-140.9
4105.989	8.1
4108.418	3.1
4110.845	8.1
4113.27	5.1
4115.694	-0.9
4118.115	-7.9
4120.535	-136.9
4122.954	-138.9
4125.37	-134.9
4127.785	-133.9
4130.198	-132.9
4132.609	-130.9
4135.019	-141.9
4137.427	-144.9
4139.833	-144.9
4142.237	-145.9
