Data from 2018-2-8_conc=2_n=2_RamanShift_04.txt Node
Date: Mon Mar 12 13:59:58 IST 2018
User: aro
Spectrometer: QEPB0276
Trigger mode: 0
Integration Time (sec): 3.000000E1
Scans to average: 1
Electric dark correction enabled: true
Nonlinearity correction enabled: false
Boxcar width: 0
XAxis mode: Raman Shifts
Number of Pixels in Spectrum: 1044
>>>>>Begin Spectral Data<<<<<
160.701	8.5
166.742	49.5
172.777	134.5
178.805	400.5
184.826	1104.5
190.841	2427.5
196.849	4021.5
202.85	5312.5
208.845	5813.5
214.833	5836.5
220.815	5743.5
226.789	5713.5
232.758	5700.5
238.719	5712.5
244.674	5651.5
250.623	5622.5
256.565	5516.5
262.5	5412.5
268.429	5375.5
274.351	5301.5
280.267	5258.5
286.176	5227.5
292.079	5202.5
297.975	5198.5
303.865	5197.5
309.748	5128.5
315.625	5131.5
321.495	5122.5
327.359	5098.5
333.217	5102.5
339.068	5092.5
344.912	5118.5
350.751	5102.5
356.583	5135.5
362.408	5107.5
368.227	5143.5
374.04	5184.5
379.847	5181.5
385.647	5196.5
391.44	5216.5
397.228	5232.5
403.009	5251.5
408.784	5259.5
414.553	5287.5
420.315	5294.5
426.071	5332.5
431.821	5315.5
437.565	5302.5
443.302	5291.5
449.033	5269.5
454.758	5273.5
460.477	5228.5
466.189	5213.5
471.896	5173.5
477.596	5149.5
483.29	5120.5
488.978	5139.5
494.66	5121.5
500.335	5052.5
506.005	4931.5
511.668	4808.5
517.325	4658.5
522.977	4585.5
528.622	4483.5
534.261	4423.5
539.894	4375.5
545.521	4351.5
551.141	4300.5
556.756	4309.5
562.365	4272.5
567.968	4257.5
573.565	4214.5
579.155	4188.5
584.74	4167.5
590.319	4175.5
595.892	4145.5
601.459	4115.5
607.02	4122.5
612.575	4107.5
618.124	4073.5
623.667	4059.5
629.204	3992.5
634.735	3956.5
640.261	3957.5
645.781	3921.5
651.294	3920.5
656.802	3911.5
662.304	3884.5
667.8	3865.5
673.29	3879.5
678.775	3863.5
684.254	3857.5
689.726	3858.5
695.193	3808.5
700.655	3797.5
706.11	3790.5
711.56	3748.5
717.004	3723.5
722.442	3729.5
727.874	3701.5
733.301	3697.5
738.722	3704.5
744.137	3674.5
749.547	3665.5
754.951	3670.5
760.349	3689.5
765.741	3656.5
771.128	3668.5
776.509	3701.5
781.885	3716.5
787.254	3705.5
792.618	3728.5
797.977	3683.5
803.33	3663.5
808.677	3641.5
814.019	3628.5
819.355	3588.5
824.686	3567.5
830.011	3555.5
835.33	3523.5
840.644	3526.5
845.952	3520.5
851.255	3515.5
856.552	3520.5
861.844	3495.5
867.13	3499.5
872.41	3455.5
877.686	3454.5
882.955	3406.5
888.219	3387.5
893.478	3361.5
898.731	3284.5
903.979	3249.5
909.221	3252.5
914.458	3246.5
919.69	3205.5
924.916	3237.5
930.136	3213.5
935.351	3201.5
940.561	3217.5
945.766	3222.5
950.965	3230.5
956.158	3192.5
961.347	3148.5
966.529	3117.5
971.707	3079.5
976.879	3047.5
982.046	2984.5
987.208	2977.5
992.364	3003.5
997.515	2988.5
1002.66	3032.5
1007.801	3056.5
1012.936	3087.5
1018.066	3097.5
1023.19	3076.5
1028.309	3072.5
1033.423	3104.5
1038.532	3074.5
1043.636	3051.5
1048.734	3002.5
1053.827	2982.5
1058.915	2948.5
1063.998	2922.5
1069.075	2928.5
1074.147	2915.5
1079.214	2924.5
1084.276	2926.5
1089.333	2952.5
1094.385	2970.5
1099.431	2954.5
1104.472	2958.5
1109.509	2946.5
1114.54	2919.5
1119.565	2855.5
1124.586	2809.5
1129.602	2782.5
1134.613	2733.5
1139.618	2745.5
1144.619	2736.5
1149.614	2729.5
1154.604	2757.5
1159.589	2743.5
1164.57	2749.5
1169.545	2759.5
1174.515	2763.5
1179.48	2758.5
1184.44	2724.5
1189.395	2715.5
1194.345	2682.5
1199.29	2665.5
1204.23	2664.5
1209.165	2654.5
1214.095	2673.5
1219.021	2702.5
1223.941	2720.5
1228.856	2724.5
1233.766	2727.5
1238.672	2726.5
1243.572	2731.5
1248.467	2691.5
1253.358	2675.5
1258.244	2645.5
1263.124	2593.5
1268	2550.5
1272.871	2526.5
1277.737	2509.5
1282.599	2472.5
1287.455	2472.5
1292.306	2481.5
1297.153	2496.5
1301.995	2521.5
1306.832	2525.5
1311.664	2552.5
1316.491	2545.5
1321.314	2547.5
1326.132	2534.5
1330.945	2504.5
1335.753	2460.5
1340.556	2406.5
1345.354	2387.5
1350.148	2325.5
1354.937	2310.5
1359.722	2266.5
1364.501	2245.5
1369.276	2191.5
1374.046	2155.5
1378.811	2137.5
1383.572	2134.5
1388.327	2126.5
1393.079	2130.5
1397.825	2129.5
1402.567	2129.5
1407.304	2117.5
1412.036	2139.5
1416.764	2150.5
1421.487	2137.5
1426.205	2162.5
1430.919	2143.5
1435.628	2165.5
1440.333	2174.5
1445.032	2184.5
1449.727	2210.5
1454.418	2228.5
1459.104	2220.5
1463.785	2158.5
1468.462	2154.5
1473.134	2088.5
1477.802	2054.5
1482.465	2021.5
1487.123	1965.5
1491.777	1950.5
1496.426	1910.5
1501.071	1900.5
1505.711	1880.5
1510.347	1879.5
1514.978	1888.5
1519.604	1876.5
1524.226	1880.5
1528.844	1856.5
1533.457	1866.5
1538.065	1847.5
1542.669	1844.5
1547.269	1848.5
1551.864	1851.5
1556.454	1877.5
1561.041	1898.5
1565.622	1895.5
1570.199	1905.5
1574.772	1927.5
1579.34	1940.5
1583.904	1970.5
1588.464	2005.5
1593.019	1984.5
1597.569	1996.5
1602.115	1991.5
1606.657	1981.5
1611.195	1954.5
1615.728	1968.5
1620.256	1965.5
1624.78	1957.5
1629.3	1958.5
1633.816	1973.5
1638.327	1980.5
1642.834	1983.5
1647.336	1988.5
1651.834	2002.5
1656.328	2002.5
1660.817	1984.5
1665.302	1982.5
1669.783	1929.5
1674.259	1894.5
1678.732	1846.5
1683.199	1793.5
1687.663	1742.5
1692.122	1682.5
1696.577	1609.5
1701.028	1542.5
1705.474	1475.5
1709.917	1435.5
1714.355	1416.5
1718.788	1403.5
1723.218	1401.5
1727.643	1408.5
1732.064	1401.5
1736.481	1391.5
1740.893	1342.5
1745.301	1320.5
1749.705	1295.5
1754.105	1280.5
1758.501	1269.5
1762.893	1248.5
1767.28	1215.5
1771.663	1219.5
1776.042	1194.5
1780.417	1186.5
1784.787	1158.5
1789.154	1170.5
1793.516	1148.5
1797.874	1134.5
1802.228	1111.5
1806.578	1097.5
1810.924	1077.5
1815.266	1085.5
1819.603	1070.5
1823.937	1078.5
1828.266	1079.5
1832.591	1072.5
1836.913	1081.5
1841.23	1077.5
1845.543	1087.5
1849.852	1061.5
1854.156	1082.5
1858.457	1095.5
1862.754	1079.5
1867.047	1087.5
1871.335	1073.5
1875.62	1088.5
1879.9	1085.5
1884.177	1066.5
1888.449	1048.5
1892.718	1050.5
1896.982	1036.5
1901.243	1016.5
1905.499	999.5
1909.752	982.5
1914	954.5
1918.245	965.5
1922.485	952.5
1926.722	937.5
1930.954	938.5
1935.183	910.5
1939.408	927.5
1943.628	925.5
1947.845	913.5
1952.058	909.5
1956.267	902.5
1960.472	880.5
1964.673	878.5
1968.87	872.5
1973.063	867.5
1977.252	866.5
1981.438	864.5
1985.619	866.5
1989.797	871.5
1993.971	866.5
1998.14	873.5
2002.306	875.5
2006.469	881.5
2010.627	874.5
2014.781	879.5
2018.932	878.5
2023.078	885.5
2027.221	853.5
2031.36	862.5
2035.495	854.5
2039.627	838.5
2043.754	838.5
2047.878	832.5
2051.998	815.5
2056.114	823.5
2060.226	817.5
2064.334	805.5
2068.439	799.5
2072.54	799.5
2076.637	788.5
2080.73	792.5
2084.82	786.5
2088.906	783.5
2092.988	771.5
2097.066	764.5
2101.14	740.5
2105.211	748.5
2109.278	731.5
2113.342	718.5
2117.401	717.5
2121.457	714.5
2125.509	706.5
2129.558	700.5
2133.602	702.5
2137.643	700.5
2141.681	714.5
2145.714	703.5
2149.744	714.5
2153.77	712.5
2157.793	694.5
2161.812	695.5
2165.827	688.5
2169.838	685.5
2173.846	671.5
2177.851	662.5
2181.851	657.5
2185.848	633.5
2189.841	646.5
2193.831	632.5
2197.817	635.5
2201.799	623.5
2205.778	631.5
2209.753	612.5
2213.725	619.5
2217.693	619.5
2221.657	625.5
2225.618	612.5
2229.575	615.5
2233.529	611.5
2237.479	607.5
2241.425	606.5
2245.368	588.5
2249.307	588.5
2253.243	580.5
2257.175	561.5
2261.104	553.5
2265.029	539.5
2268.95	545.5
2272.868	531.5
2276.783	532.5
2280.694	518.5
2284.601	522.5
2288.505	522.5
2292.405	507.5
2296.302	509.5
2300.195	494.5
2304.085	488.5
2307.971	490.5
2311.854	477.5
2315.734	464.5
2319.609	470.5
2323.482	448.5
2327.351	462.5
2331.216	464.5
2335.078	476.5
2338.937	463.5
2342.792	445.5
2346.643	448.5
2350.492	439.5
2354.336	438.5
2358.178	443.5
2362.015	461.5
2365.85	453.5
2369.681	449.5
2373.508	461.5
2377.333	460.5
2381.153	426.5
2384.971	444.5
2388.785	447.5
2392.595	434.5
2396.402	440.5
2400.206	431.5
2404.007	427.5
2407.804	422.5
2411.597	424.5
2415.388	416.5
2419.174	415.5
2422.958	412.5
2426.738	417.5
2430.515	409.5
2434.289	410.5
2438.059	400.5
2441.825	398.5
2445.589	399.5
2449.349	396.5
2453.106	385.5
2456.859	377.5
2460.61	392.5
2464.356	376.5
2468.1	365.5
2471.84	362.5
2475.577	366.5
2479.311	350.5
2483.041	357.5
2486.768	349.5
2490.492	355.5
2494.213	354.5
2497.93	357.5
2501.644	349.5
2505.355	334.5
2509.062	335.5
2512.766	331.5
2516.467	323.5
2520.165	319.5
2523.859	329.5
2527.551	325.5
2531.239	307.5
2534.923	301.5
2538.605	303.5
2542.283	295.5
2545.958	291.5
2549.63	303.5
2553.299	288.5
2556.964	297.5
2560.626	277.5
2564.285	269.5
2567.941	273.5
2571.594	271.5
2575.243	273.5
2578.89	258.5
2582.533	256.5
2586.173	266.5
2589.809	246.5
2593.443	259.5
2597.073	249.5
2600.701	240.5
2604.325	255.5
2607.946	244.5
2611.564	246.5
2615.178	249.5
2618.79	242.5
2622.398	246.5
2626.004	240.5
2629.606	236.5
2633.205	231.5
2636.801	236.5
2640.394	226.5
2643.983	223.5
2647.57	233.5
2651.153	221.5
2654.734	221.5
2658.311	213.5
2661.885	208.5
2665.456	218.5
2669.025	208.5
2672.589	211.5
2676.151	213.5
2679.71	202.5
2683.266	198.5
2686.819	203.5
2690.368	198.5
2693.915	193.5
2697.458	192.5
2700.999	184.5
2704.536	183.5
2708.071	174.5
2711.602	173.5
2715.13	184.5
2718.656	162.5
2722.178	163.5
2725.697	158.5
2729.214	156.5
2732.727	166.5
2736.237	166.5
2739.744	157.5
2743.249	155.5
2746.75	152.5
2750.248	152.5
2753.743	150.5
2757.236	138.5
2760.725	141.5
2764.211	122.5
2767.695	140.5
2771.175	121.5
2774.652	128.5
2778.127	130.5
2781.598	118.5
2785.067	127.5
2788.532	132.5
2791.995	122.5
2795.455	132.5
2798.911	143.5
2802.365	132.5
2805.816	126.5
2809.264	128.5
2812.709	139.5
2816.151	142.5
2819.59	143.5
2823.026	140.5
2826.46	131.5
2829.89	126.5
2833.318	128.5
2836.742	140.5
2840.164	132.5
2843.583	140.5
2846.999	137.5
2850.412	134.5
2853.822	133.5
2857.229	136.5
2860.634	144.5
2864.035	149.5
2867.434	150.5
2870.83	158.5
2874.223	167.5
2877.613	171.5
2881	183.5
2884.385	180.5
2887.766	177.5
2891.145	171.5
2894.521	181.5
2897.894	179.5
2901.264	191.5
2904.631	184.5
2907.996	188.5
2911.358	188.5
2914.717	193.5
2918.073	186.5
2921.426	209.5
2924.777	216.5
2928.124	215.5
2931.469	204.5
2934.811	221.5
2938.15	230.5
2941.487	234.5
2944.821	234.5
2948.152	235.5
2951.48	234.5
2954.805	240.5
2958.128	232.5
2961.447	220.5
2964.765	223.5
2968.079	226.5
2971.39	223.5
2974.699	224.5
2978.005	235.5
2981.308	227.5
2984.609	239.5
2987.907	224.5
2991.202	233.5
2994.494	233.5
2997.784	232.5
3001.07	252.5
3004.355	250.5
3007.636	240.5
3010.915	258.5
3014.191	247.5
3017.464	256.5
3020.734	264.5
3024.002	259.5
3027.267	265.5
3030.53	272.5
3033.789	282.5
3037.046	277.5
3040.301	291.5
3043.552	310.5
3046.801	317.5
3050.048	322.5
3053.291	333.5
3056.532	350.5
3059.771	363.5
3063.006	369.5
3066.239	380.5
3069.469	387.5
3072.697	403.5
3075.922	410.5
3079.144	429.5
3082.364	434.5
3085.581	439.5
3088.795	446.5
3092.007	462.5
3095.216	467.5
3098.423	475.5
3101.627	499.5
3104.828	503.5
3108.026	509.5
3111.222	517.5
3114.416	527.5
3117.607	543.5
3120.795	560.5
3123.98	565.5
3127.163	576.5
3130.344	585.5
3133.521	612.5
3136.696	626.5
3139.869	630.5
3143.039	638.5
3146.206	646.5
3149.371	658.5
3152.533	671.5
3155.693	673.5
3158.85	686.5
3162.005	684.5
3165.157	690.5
3168.306	682.5
3171.453	681.5
3174.597	700.5
3177.739	702.5
3180.878	702.5
3184.014	719.5
3187.149	719.5
3190.28	720.5
3193.409	713.5
3196.536	723.5
3199.659	727.5
3202.781	730.5
3205.9	733.5
3209.016	737.5
3212.13	732.5
3215.241	729.5
3218.35	712.5
3221.456	706.5
3224.56	703.5
3227.661	691.5
3230.76	674.5
3233.856	690.5
3236.95	658.5
3240.041	646.5
3243.13	640.5
3246.216	622.5
3249.3	627.5
3252.382	626.5
3255.46	617.5
3258.537	611.5
3261.611	598.5
3264.682	602.5
3267.751	600.5
3270.818	599.5
3273.882	590.5
3276.943	588.5
3280.002	583.5
3283.059	581.5
3286.113	563.5
3289.165	567.5
3292.214	560.5
3295.261	548.5
3298.306	554.5
3301.348	542.5
3304.387	542.5
3307.425	541.5
3310.459	529.5
3313.492	520.5
3316.521	518.5
3319.549	511.5
3322.574	509.5
3325.597	498.5
3328.617	510.5
3331.635	489.5
3334.65	495.5
3337.663	483.5
3340.674	506.5
3343.682	488.5
3346.688	485.5
3349.691	482.5
3352.692	488.5
3355.691	488.5
3358.687	475.5
3361.681	471.5
3364.673	466.5
3367.662	459.5
3370.649	456.5
3373.633	445.5
3376.615	437.5
3379.595	432.5
3382.572	418.5
3385.547	430.5
3388.52	415.5
3391.49	402.5
3394.458	403.5
3397.424	390.5
3400.387	379.5
3403.348	383.5
3406.307	381.5
3409.263	362.5
3412.217	361.5
3415.168	369.5
3418.118	369.5
3421.065	358.5
3424.009	351.5
3426.951	342.5
3429.891	327.5
3432.829	334.5
3435.764	318.5
3438.697	300.5
3441.628	295.5
3444.557	299.5
3447.483	281.5
3450.407	267.5
3453.328	254.5
3456.247	246.5
3459.164	241.5
3462.079	226.5
3464.991	223.5
3467.902	212.5
3470.809	206.5
3473.715	187.5
3476.618	185.5
3479.519	184.5
3482.418	168.5
3485.315	158.5
3488.209	146.5
3491.101	148.5
3493.99	156.5
3496.878	145.5
3499.763	125.5
3502.646	119.5
3505.527	112.5
3508.405	107.5
3511.281	96.5
3514.155	93.5
3517.027	88.5
3519.897	77.5
3522.764	68.5
3525.629	54.5
3528.492	51.5
3531.352	51.5
3534.211	42.5
3537.067	30.5
3539.921	28.5
3542.773	23.5
3545.622	15.5
3548.469	9.5
3551.315	9.5
3554.157	-1.5
3556.998	-5.5
3559.837	-9.5
3562.673	-3.5
3565.507	-13.5
3568.339	-23.5
3571.169	-36.5
3573.996	-35.5
3576.822	-37.5
3579.645	-38.5
3582.466	-32.5
3585.285	-35.5
3588.101	-34.5
3590.916	-42.5
3593.728	-57.5
3596.538	-59.5
3599.346	-60.5
3602.152	-59.5
3604.956	-58.5
3607.757	-62.5
3610.556	-71.5
3613.354	-67.5
3616.149	-80.5
3618.942	-91.5
3621.732	-84.5
3624.521	-80.5
3627.307	-76.5
3630.092	-74.5
3632.874	-80.5
3635.654	-86.5
3638.432	-85.5
3641.208	-89.5
3643.982	-95.5
3646.753	-94.5
3649.523	-97.5
3652.29	-92.5
3655.055	-96.5
3657.818	-96.5
3660.579	-96.5
3663.338	-103.5
3666.095	-108.5
3668.849	-107.5
3671.602	-111.5
3674.352	-109.5
3677.101	-108.5
3679.847	-112.5
3682.591	-112.5
3685.333	-114.5
3688.073	-118.5
3690.811	-114.5
3693.547	-123.5
3696.281	-115.5
3699.013	-122.5
3701.742	-117.5
3704.47	-123.5
3707.195	-121.5
3709.919	-122.5
3712.64	-123.5
3715.359	-127.5
3718.076	-123.5
3720.792	-127.5
3723.505	-132.5
3726.216	-125.5
3728.925	-131.5
3731.632	-129.5
3734.336	-135.5
3737.039	-125.5
3739.74	-129.5
3742.439	-132.5
3745.136	-124.5
3747.83	-133.5
3750.523	-138.5
3753.213	-140.5
3755.902	-132.5
3758.589	-137.5
3761.273	-132.5
3763.956	-130.5
3766.636	-132.5
3769.315	-127.5
3771.991	-130.5
3774.665	-139.5
3777.338	-127.5
3780.008	-135.5
3782.677	-133.5
3785.343	-132.5
3788.007	-136.5
3790.67	-139.5
3793.33	-138.5
3795.989	-135.5
3798.645	-133.5
3801.299	-131.5
3803.952	-142.5
3806.602	-133.5
3809.251	-146.5
3811.897	-146.5
3814.542	-140.5
3817.184	-131.5
3819.825	-137.5
3822.463	-137.5
3825.1	-142.5
3827.735	-137.5
3830.367	-144.5
3832.998	-140.5
3835.627	-142.5
3838.253	-136.5
3840.878	-136.5
3843.501	-134.5
3846.122	-141.5
3848.741	-143.5
3851.358	-133.5
3853.973	-146.5
3856.586	-140.5
3859.197	-146.5
3861.806	-133.5
3864.414	-143.5
3867.019	-133.5
3869.622	-137.5
3872.224	-130.5
3874.823	-124.5
3877.421	-114.5
3880.016	-86.5
3882.61	-68.5
3885.202	-65.5
3887.792	-79.5
3890.38	-109.5
3892.966	-131.5
3895.55	-136.5
3898.132	-136.5
3900.713	-137.5
3903.291	-138.5
3905.868	-144.5
3908.442	-137.5
3911.015	-140.5
3913.586	-141.5
3916.155	-142.5
3918.722	-143.5
3921.287	-140.5
3923.85	-139.5
3926.411	-147.5
3928.971	-141.5
3931.528	-141.5
3934.084	-143.5
3936.638	-141.5
3939.19	-143.5
3941.74	-138.5
3944.288	-145.5
3946.834	-140.5
3949.378	-140.5
3951.921	-144.5
3954.462	-147.5
3957	-147.5
3959.537	-134.5
3962.072	-140.5
3964.606	-139.5
3967.137	-143.5
3969.667	-140.5
3972.194	-145.5
3974.72	-143.5
3977.244	-141.5
3979.766	-147.5
3982.286	-140.5
3984.805	-141.5
3987.321	-136.5
3989.836	-133.5
3992.349	-141.5
3994.86	-139.5
3997.369	-140.5
3999.877	-137.5
4002.382	-140.5
4004.886	-142.5
4007.388	-143.5
4009.888	-136.5
4012.386	-140.5
4014.883	-145.5
4017.377	-145.5
4019.87	-135.5
4022.361	-147.5
4024.85	-138.5
4027.338	-137.5
4029.823	-137.5
4032.307	-135.5
4034.789	-141.5
4037.269	-140.5
4039.747	-138.5
4042.224	-139.5
4044.699	-142.5
4047.172	-136.5
4049.643	-138.5
4052.112	-142.5
4054.58	-137.5
4057.046	-140.5
4059.51	-141.5
4061.972	-145.5
4064.432	-140.5
4066.891	-141.5
4069.348	-134.5
4071.803	-140.5
4074.256	-140.5
4076.708	-137.5
4079.158	-138.5
4081.606	-137.5
4084.052	-144.5
4086.497	-142.5
4088.939	-137.5
4091.38	-138.5
4093.819	-135.5
4096.257	-148.5
4098.693	-144.5
4101.127	-147.5
4103.559	-143.5
4105.989	-12.5
4108.418	-3.5
4110.845	-11.5
4113.27	-14.5
4115.694	-9.5
4118.115	-7.5
4120.535	-141.5
4122.954	-140.5
4125.37	-141.5
4127.785	-142.5
4130.198	-143.5
4132.609	-142.5
4135.019	-151.5
4137.427	-148.5
4139.833	-148.5
4142.237	-144.5
