Data from 2018-2-8_conc=0_n=6_RamanShift_05.txt Node
Date: Mon Mar 12 13:38:59 IST 2018
User: aro
Spectrometer: QEPB0276
Trigger mode: 0
Integration Time (sec): 3.000000E1
Scans to average: 1
Electric dark correction enabled: true
Nonlinearity correction enabled: false
Boxcar width: 0
XAxis mode: Raman Shifts
Number of Pixels in Spectrum: 1044
>>>>>Begin Spectral Data<<<<<
160.701	16.8
166.742	49.8
172.777	140.8
178.805	430.8
184.826	1141.8
190.841	2451.8
196.849	4135.8
202.85	5388.8
208.845	5895.8
214.833	5900.8
220.815	5836.8
226.789	5759.8
232.758	5804.8
238.719	5783.8
244.674	5740.8
250.623	5683.8
256.565	5567.8
262.5	5486.8
268.429	5439.8
274.351	5413.8
280.267	5361.8
286.176	5320.8
292.079	5309.8
297.975	5272.8
303.865	5278.8
309.748	5226.8
315.625	5205.8
321.495	5244.8
327.359	5197.8
333.217	5164.8
339.068	5215.8
344.912	5201.8
350.751	5223.8
356.583	5228.8
362.408	5234.8
368.227	5257.8
374.04	5256.8
379.847	5286.8
385.647	5310.8
391.44	5344.8
397.228	5344.8
403.009	5370.8
408.784	5383.8
414.553	5407.8
420.315	5433.8
426.071	5459.8
431.821	5434.8
437.565	5447.8
443.302	5426.8
449.033	5410.8
454.758	5388.8
460.477	5361.8
466.189	5343.8
471.896	5304.8
477.596	5274.8
483.29	5272.8
488.978	5284.8
494.66	5224.8
500.335	5181.8
506.005	5029.8
511.668	4884.8
517.325	4715.8
522.977	4583.8
528.622	4539.8
534.261	4472.8
539.894	4430.8
545.521	4361.8
551.141	4365.8
556.756	4335.8
562.365	4286.8
567.968	4259.8
573.565	4233.8
579.155	4201.8
584.74	4208.8
590.319	4198.8
595.892	4195.8
601.459	4154.8
607.02	4131.8
612.575	4109.8
618.124	4080.8
623.667	4043.8
629.204	4031.8
634.735	3992.8
640.261	3970.8
645.781	3953.8
651.294	3913.8
656.802	3916.8
662.304	3922.8
667.8	3895.8
673.29	3888.8
678.775	3884.8
684.254	3867.8
689.726	3855.8
695.193	3830.8
700.655	3817.8
706.11	3815.8
711.56	3775.8
717.004	3758.8
722.442	3736.8
727.874	3721.8
733.301	3679.8
738.722	3695.8
744.137	3680.8
749.547	3652.8
754.951	3677.8
760.349	3669.8
765.741	3686.8
771.128	3717.8
776.509	3723.8
781.885	3731.8
787.254	3722.8
792.618	3741.8
797.977	3721.8
803.33	3703.8
808.677	3678.8
814.019	3651.8
819.355	3607.8
824.686	3585.8
830.011	3576.8
835.33	3566.8
840.644	3572.8
845.952	3561.8
851.255	3564.8
856.552	3540.8
861.844	3531.8
867.13	3497.8
872.41	3500.8
877.686	3470.8
882.955	3455.8
888.219	3446.8
893.478	3394.8
898.731	3329.8
903.979	3275.8
909.221	3260.8
914.458	3228.8
919.69	3251.8
924.916	3242.8
930.136	3241.8
935.351	3263.8
940.561	3275.8
945.766	3241.8
950.965	3259.8
956.158	3218.8
961.347	3168.8
966.529	3133.8
971.707	3069.8
976.879	3040.8
982.046	3011.8
987.208	2984.8
992.364	3018.8
997.515	3010.8
1002.66	3062.8
1007.801	3065.8
1012.936	3074.8
1018.066	3099.8
1023.19	3103.8
1028.309	3126.8
1033.423	3111.8
1038.532	3089.8
1043.636	3056.8
1048.734	3075.8
1053.827	3000.8
1058.915	2958.8
1063.998	2935.8
1069.075	2938.8
1074.147	2939.8
1079.214	2938.8
1084.276	2957.8
1089.333	2960.8
1094.385	2984.8
1099.431	2995.8
1104.472	2967.8
1109.509	2962.8
1114.54	2912.8
1119.565	2885.8
1124.586	2834.8
1129.602	2798.8
1134.613	2777.8
1139.618	2768.8
1144.619	2749.8
1149.614	2735.8
1154.604	2778.8
1159.589	2748.8
1164.57	2761.8
1169.545	2762.8
1174.515	2791.8
1179.48	2754.8
1184.44	2749.8
1189.395	2711.8
1194.345	2683.8
1199.29	2680.8
1204.23	2687.8
1209.165	2683.8
1214.095	2696.8
1219.021	2712.8
1223.941	2723.8
1228.856	2735.8
1233.766	2739.8
1238.672	2737.8
1243.572	2748.8
1248.467	2709.8
1253.358	2707.8
1258.244	2648.8
1263.124	2597.8
1268	2564.8
1272.871	2550.8
1277.737	2511.8
1282.599	2519.8
1287.455	2525.8
1292.306	2521.8
1297.153	2545.8
1301.995	2541.8
1306.832	2560.8
1311.664	2573.8
1316.491	2571.8
1321.314	2569.8
1326.132	2571.8
1330.945	2520.8
1335.753	2458.8
1340.556	2436.8
1345.354	2413.8
1350.148	2359.8
1354.937	2311.8
1359.722	2272.8
1364.501	2245.8
1369.276	2219.8
1374.046	2171.8
1378.811	2139.8
1383.572	2123.8
1388.327	2105.8
1393.079	2126.8
1397.825	2124.8
1402.567	2139.8
1407.304	2143.8
1412.036	2163.8
1416.764	2155.8
1421.487	2164.8
1426.205	2169.8
1430.919	2156.8
1435.628	2194.8
1440.333	2198.8
1445.032	2219.8
1449.727	2243.8
1454.418	2233.8
1459.104	2230.8
1463.785	2224.8
1468.462	2149.8
1473.134	2121.8
1477.802	2082.8
1482.465	2026.8
1487.123	1975.8
1491.777	1942.8
1496.426	1936.8
1501.071	1922.8
1505.711	1909.8
1510.347	1887.8
1514.978	1895.8
1519.604	1874.8
1524.226	1875.8
1528.844	1876.8
1533.457	1863.8
1538.065	1859.8
1542.669	1844.8
1547.269	1862.8
1551.864	1843.8
1556.454	1863.8
1561.041	1878.8
1565.622	1902.8
1570.199	1901.8
1574.772	1924.8
1579.34	1940.8
1583.904	1971.8
1588.464	1996.8
1593.019	1993.8
1597.569	2001.8
1602.115	2007.8
1606.657	1997.8
1611.195	1986.8
1615.728	1973.8
1620.256	1974.8
1624.78	1963.8
1629.3	1970.8
1633.816	1972.8
1638.327	1983.8
1642.834	1997.8
1647.336	1993.8
1651.834	2014.8
1656.328	2000.8
1660.817	2004.8
1665.302	1984.8
1669.783	1931.8
1674.259	1896.8
1678.732	1848.8
1683.199	1797.8
1687.663	1723.8
1692.122	1682.8
1696.577	1620.8
1701.028	1515.8
1705.474	1462.8
1709.917	1415.8
1714.355	1409.8
1718.788	1380.8
1723.218	1385.8
1727.643	1398.8
1732.064	1389.8
1736.481	1377.8
1740.893	1343.8
1745.301	1330.8
1749.705	1298.8
1754.105	1265.8
1758.501	1273.8
1762.893	1235.8
1767.28	1220.8
1771.663	1215.8
1776.042	1198.8
1780.417	1175.8
1784.787	1164.8
1789.154	1147.8
1793.516	1139.8
1797.874	1110.8
1802.228	1102.8
1806.578	1083.8
1810.924	1074.8
1815.266	1069.8
1819.603	1063.8
1823.937	1065.8
1828.266	1055.8
1832.591	1080.8
1836.913	1065.8
1841.23	1083.8
1845.543	1079.8
1849.852	1076.8
1854.156	1071.8
1858.457	1073.8
1862.754	1074.8
1867.047	1072.8
1871.335	1079.8
1875.62	1087.8
1879.9	1067.8
1884.177	1057.8
1888.449	1040.8
1892.718	1026.8
1896.982	1025.8
1901.243	1005.8
1905.499	991.8
1909.752	982.8
1914	958.8
1918.245	943.8
1922.485	945.8
1926.722	940.8
1930.954	925.8
1935.183	928.8
1939.408	915.8
1943.628	916.8
1947.845	905.8
1952.058	894.8
1956.267	895.8
1960.472	867.8
1964.673	884.8
1968.87	862.8
1973.063	863.8
1977.252	842.8
1981.438	855.8
1985.619	856.8
1989.797	847.8
1993.971	864.8
1998.14	875.8
2002.306	867.8
2006.469	869.8
2010.627	859.8
2014.781	875.8
2018.932	875.8
2023.078	875.8
2027.221	861.8
2031.36	850.8
2035.495	849.8
2039.627	829.8
2043.754	813.8
2047.878	805.8
2051.998	799.8
2056.114	796.8
2060.226	789.8
2064.334	797.8
2068.439	792.8
2072.54	791.8
2076.637	792.8
2080.73	764.8
2084.82	772.8
2088.906	770.8
2092.988	763.8
2097.066	747.8
2101.14	739.8
2105.211	734.8
2109.278	719.8
2113.342	713.8
2117.401	688.8
2121.457	698.8
2125.509	700.8
2129.558	706.8
2133.602	694.8
2137.643	698.8
2141.681	693.8
2145.714	694.8
2149.744	685.8
2153.77	685.8
2157.793	699.8
2161.812	688.8
2165.827	685.8
2169.838	671.8
2173.846	667.8
2177.851	651.8
2181.851	647.8
2185.848	639.8
2189.841	626.8
2193.831	633.8
2197.817	629.8
2201.799	627.8
2205.778	621.8
2209.753	620.8
2213.725	627.8
2217.693	619.8
2221.657	623.8
2225.618	620.8
2229.575	621.8
2233.529	607.8
2237.479	601.8
2241.425	598.8
2245.368	584.8
2249.307	568.8
2253.243	566.8
2257.175	559.8
2261.104	551.8
2265.029	545.8
2268.95	551.8
2272.868	536.8
2276.783	515.8
2280.694	540.8
2284.601	519.8
2288.505	511.8
2292.405	506.8
2296.302	512.8
2300.195	503.8
2304.085	492.8
2307.971	493.8
2311.854	477.8
2315.734	467.8
2319.609	461.8
2323.482	441.8
2327.351	470.8
2331.216	475.8
2335.078	485.8
2338.937	468.8
2342.792	450.8
2346.643	438.8
2350.492	440.8
2354.336	439.8
2358.178	439.8
2362.015	449.8
2365.85	451.8
2369.681	450.8
2373.508	454.8
2377.333	452.8
2381.153	448.8
2384.971	446.8
2388.785	447.8
2392.595	435.8
2396.402	429.8
2400.206	439.8
2404.007	432.8
2407.804	423.8
2411.597	431.8
2415.388	415.8
2419.174	426.8
2422.958	424.8
2426.738	425.8
2430.515	419.8
2434.289	422.8
2438.059	413.8
2441.825	397.8
2445.589	414.8
2449.349	396.8
2453.106	398.8
2456.859	378.8
2460.61	386.8
2464.356	364.8
2468.1	369.8
2471.84	360.8
2475.577	359.8
2479.311	350.8
2483.041	351.8
2486.768	353.8
2490.492	356.8
2494.213	354.8
2497.93	349.8
2501.644	348.8
2505.355	344.8
2509.062	336.8
2512.766	330.8
2516.467	332.8
2520.165	318.8
2523.859	335.8
2527.551	311.8
2531.239	313.8
2534.923	302.8
2538.605	291.8
2542.283	298.8
2545.958	300.8
2549.63	296.8
2553.299	295.8
2556.964	291.8
2560.626	285.8
2564.285	285.8
2567.941	281.8
2571.594	281.8
2575.243	274.8
2578.89	259.8
2582.533	264.8
2586.173	259.8
2589.809	255.8
2593.443	264.8
2597.073	252.8
2600.701	245.8
2604.325	241.8
2607.946	235.8
2611.564	240.8
2615.178	262.8
2618.79	241.8
2622.398	235.8
2626.004	234.8
2629.606	232.8
2633.205	226.8
2636.801	226.8
2640.394	227.8
2643.983	223.8
2647.57	235.8
2651.153	219.8
2654.734	224.8
2658.311	217.8
2661.885	206.8
2665.456	219.8
2669.025	209.8
2672.589	209.8
2676.151	206.8
2679.71	211.8
2683.266	201.8
2686.819	204.8
2690.368	194.8
2693.915	193.8
2697.458	192.8
2700.999	188.8
2704.536	179.8
2708.071	184.8
2711.602	176.8
2715.13	178.8
2718.656	160.8
2722.178	155.8
2725.697	158.8
2729.214	152.8
2732.727	167.8
2736.237	162.8
2739.744	153.8
2743.249	147.8
2746.75	156.8
2750.248	139.8
2753.743	140.8
2757.236	136.8
2760.725	135.8
2764.211	124.8
2767.695	122.8
2771.175	120.8
2774.652	122.8
2778.127	134.8
2781.598	119.8
2785.067	128.8
2788.532	123.8
2791.995	130.8
2795.455	132.8
2798.911	122.8
2802.365	132.8
2805.816	134.8
2809.264	125.8
2812.709	133.8
2816.151	136.8
2819.59	127.8
2823.026	127.8
2826.46	128.8
2829.89	129.8
2833.318	125.8
2836.742	128.8
2840.164	133.8
2843.583	133.8
2846.999	142.8
2850.412	143.8
2853.822	140.8
2857.229	131.8
2860.634	141.8
2864.035	145.8
2867.434	153.8
2870.83	169.8
2874.223	175.8
2877.613	177.8
2881	190.8
2884.385	187.8
2887.766	174.8
2891.145	168.8
2894.521	185.8
2897.894	191.8
2901.264	193.8
2904.631	192.8
2907.996	188.8
2911.358	187.8
2914.717	192.8
2918.073	203.8
2921.426	202.8
2924.777	211.8
2928.124	217.8
2931.469	216.8
2934.811	226.8
2938.15	226.8
2941.487	240.8
2944.821	238.8
2948.152	230.8
2951.48	237.8
2954.805	237.8
2958.128	237.8
2961.447	226.8
2964.765	226.8
2968.079	224.8
2971.39	222.8
2974.699	233.8
2978.005	222.8
2981.308	235.8
2984.609	231.8
2987.907	224.8
2991.202	230.8
2994.494	236.8
2997.784	238.8
3001.07	230.8
3004.355	242.8
3007.636	254.8
3010.915	245.8
3014.191	251.8
3017.464	259.8
3020.734	251.8
3024.002	248.8
3027.267	269.8
3030.53	272.8
3033.789	283.8
3037.046	289.8
3040.301	283.8
3043.552	305.8
3046.801	312.8
3050.048	306.8
3053.291	323.8
3056.532	334.8
3059.771	352.8
3063.006	362.8
3066.239	372.8
3069.469	395.8
3072.697	395.8
3075.922	401.8
3079.144	402.8
3082.364	424.8
3085.581	433.8
3088.795	442.8
3092.007	462.8
3095.216	466.8
3098.423	480.8
3101.627	485.8
3104.828	494.8
3108.026	505.8
3111.222	512.8
3114.416	524.8
3117.607	534.8
3120.795	549.8
3123.98	561.8
3127.163	577.8
3130.344	587.8
3133.521	601.8
3136.696	614.8
3139.869	617.8
3143.039	622.8
3146.206	642.8
3149.371	660.8
3152.533	662.8
3155.693	665.8
3158.85	659.8
3162.005	677.8
3165.157	688.8
3168.306	680.8
3171.453	679.8
3174.597	690.8
3177.739	698.8
3180.878	688.8
3184.014	714.8
3187.149	695.8
3190.28	694.8
3193.409	694.8
3196.536	691.8
3199.659	701.8
3202.781	705.8
3205.9	718.8
3209.016	719.8
3212.13	718.8
3215.241	710.8
3218.35	701.8
3221.456	689.8
3224.56	684.8
3227.661	675.8
3230.76	666.8
3233.856	664.8
3236.95	637.8
3240.041	641.8
3243.13	628.8
3246.216	608.8
3249.3	609.8
3252.382	593.8
3255.46	598.8
3258.537	595.8
3261.611	584.8
3264.682	566.8
3267.751	575.8
3270.818	572.8
3273.882	576.8
3276.943	565.8
3280.002	551.8
3283.059	550.8
3286.113	543.8
3289.165	539.8
3292.214	535.8
3295.261	528.8
3298.306	524.8
3301.348	524.8
3304.387	515.8
3307.425	511.8
3310.459	509.8
3313.492	501.8
3316.521	496.8
3319.549	494.8
3322.574	491.8
3325.597	482.8
3328.617	490.8
3331.635	478.8
3334.65	487.8
3337.663	463.8
3340.674	484.8
3343.682	475.8
3346.688	481.8
3349.691	474.8
3352.692	476.8
3355.691	471.8
3358.687	462.8
3361.681	457.8
3364.673	461.8
3367.662	456.8
3370.649	429.8
3373.633	427.8
3376.615	420.8
3379.595	402.8
3382.572	410.8
3385.547	409.8
3388.52	397.8
3391.49	391.8
3394.458	393.8
3397.424	388.8
3400.387	371.8
3403.348	359.8
3406.307	365.8
3409.263	356.8
3412.217	356.8
3415.168	363.8
3418.118	348.8
3421.065	334.8
3424.009	338.8
3426.951	323.8
3429.891	319.8
3432.829	307.8
3435.764	296.8
3438.697	290.8
3441.628	284.8
3444.557	280.8
3447.483	263.8
3450.407	253.8
3453.328	241.8
3456.247	233.8
3459.164	213.8
3462.079	214.8
3464.991	204.8
3467.902	204.8
3470.809	192.8
3473.715	178.8
3476.618	164.8
3479.519	162.8
3482.418	151.8
3485.315	146.8
3488.209	135.8
3491.101	131.8
3493.99	130.8
3496.878	124.8
3499.763	109.8
3502.646	104.8
3505.527	103.8
3508.405	89.8
3511.281	81.8
3514.155	70.8
3517.027	75.8
3519.897	60.8
3522.764	50.8
3525.629	43.8
3528.492	42.8
3531.352	32.8
3534.211	18.8
3537.067	11.8
3539.921	11.8
3542.773	8.8
3545.622	-5.2
3548.469	-5.2
3551.315	-5.2
3554.157	-10.2
3556.998	-26.2
3559.837	-22.2
3562.673	-26.2
3565.507	-27.2
3568.339	-29.2
3571.169	-46.2
3573.996	-38.2
3576.822	-44.2
3579.645	-49.2
3582.466	-47.2
3585.285	-55.2
3588.101	-45.2
3590.916	-59.2
3593.728	-72.2
3596.538	-66.2
3599.346	-67.2
3602.152	-74.2
3604.956	-79.2
3607.757	-78.2
3610.556	-82.2
3613.354	-79.2
3616.149	-93.2
3618.942	-91.2
3621.732	-94.2
3624.521	-92.2
3627.307	-94.2
3630.092	-87.2
3632.874	-95.2
3635.654	-106.2
3638.432	-97.2
3641.208	-100.2
3643.982	-105.2
3646.753	-105.2
3649.523	-107.2
3652.29	-104.2
3655.055	-110.2
3657.818	-118.2
3660.579	-117.2
3663.338	-115.2
3666.095	-115.2
3668.849	-118.2
3671.602	-115.2
3674.352	-116.2
3677.101	-121.2
3679.847	-126.2
3682.591	-134.2
3685.333	-124.2
3688.073	-125.2
3690.811	-126.2
3693.547	-136.2
3696.281	-129.2
3699.013	-128.2
3701.742	-137.2
3704.47	-136.2
3707.195	-137.2
3709.919	-139.2
3712.64	-135.2
3715.359	-140.2
3718.076	-139.2
3720.792	-137.2
3723.505	-145.2
3726.216	-138.2
3728.925	-147.2
3731.632	-140.2
3734.336	-149.2
3737.039	-143.2
3739.74	-147.2
3742.439	-147.2
3745.136	-142.2
3747.83	-150.2
3750.523	-145.2
3753.213	-143.2
3755.902	-145.2
3758.589	-150.2
3761.273	-139.2
3763.956	-139.2
3766.636	-148.2
3769.315	-144.2
3771.991	-145.2
3774.665	-157.2
3777.338	-141.2
3780.008	-146.2
3782.677	-149.2
3785.343	-143.2
3788.007	-143.2
3790.67	-151.2
3793.33	-147.2
3795.989	-152.2
3798.645	-143.2
3801.299	-143.2
3803.952	-156.2
3806.602	-145.2
3809.251	-154.2
3811.897	-157.2
3814.542	-155.2
3817.184	-141.2
3819.825	-149.2
3822.463	-151.2
3825.1	-152.2
3827.735	-147.2
3830.367	-153.2
3832.998	-152.2
3835.627	-155.2
3838.253	-151.2
3840.878	-148.2
3843.501	-147.2
3846.122	-153.2
3848.741	-151.2
3851.358	-151.2
3853.973	-158.2
3856.586	-150.2
3859.197	-159.2
3861.806	-152.2
3864.414	-152.2
3867.019	-148.2
3869.622	-145.2
3872.224	-135.2
3874.823	-119.2
3877.421	-104.2
3880.016	-80.2
3882.61	-46.2
3885.202	-42.2
3887.792	-61.2
3890.38	-100.2
3892.966	-135.2
3895.55	-133.2
3898.132	-147.2
3900.713	-149.2
3903.291	-160.2
3905.868	-161.2
3908.442	-148.2
3911.015	-155.2
3913.586	-155.2
3916.155	-156.2
3918.722	-155.2
3921.287	-158.2
3923.85	-158.2
3926.411	-159.2
3928.971	-152.2
3931.528	-158.2
3934.084	-154.2
3936.638	-156.2
3939.19	-161.2
3941.74	-154.2
3944.288	-161.2
3946.834	-154.2
3949.378	-155.2
3951.921	-156.2
3954.462	-158.2
3957	-161.2
3959.537	-148.2
3962.072	-157.2
3964.606	-152.2
3967.137	-160.2
3969.667	-152.2
3972.194	-153.2
3974.72	-153.2
3977.244	-154.2
3979.766	-153.2
3982.286	-152.2
3984.805	-156.2
3987.321	-154.2
3989.836	-146.2
3992.349	-155.2
3994.86	-153.2
3997.369	-148.2
3999.877	-150.2
4002.382	-149.2
4004.886	-161.2
4007.388	-155.2
4009.888	-149.2
4012.386	-160.2
4014.883	-151.2
4017.377	-152.2
4019.87	-152.2
4022.361	-153.2
4024.85	-150.2
4027.338	-148.2
4029.823	-150.2
4032.307	-147.2
4034.789	-152.2
4037.269	-152.2
4039.747	-148.2
4042.224	-153.2
4044.699	-155.2
4047.172	-152.2
4049.643	-149.2
4052.112	-150.2
4054.58	-149.2
4057.046	-156.2
4059.51	-154.2
4061.972	-150.2
4064.432	-153.2
4066.891	-151.2
4069.348	-152.2
4071.803	-152.2
4074.256	-150.2
4076.708	-148.2
4079.158	-146.2
4081.606	-147.2
4084.052	-152.2
4086.497	-150.2
4088.939	-151.2
4091.38	-153.2
4093.819	-149.2
4096.257	-160.2
4098.693	-158.2
4101.127	-157.2
4103.559	-157.2
4105.989	11.8
4108.418	7.8
4110.845	9.8
4113.27	0.8
4115.694	0.8
4118.115	0.8
4120.535	-155.2
4122.954	-151.2
4125.37	-154.2
4127.785	-153.2
4130.198	-153.2
4132.609	-151.2
4135.019	-156.2
4137.427	-161.2
4139.833	-158.2
4142.237	-162.2
