Data from 2018-2-8_conc=4_n=5_RamanShift_05.txt Node
Date: Mon Mar 12 15:20:58 IST 2018
User: aro
Spectrometer: QEPB0276
Trigger mode: 0
Integration Time (sec): 3.000000E1
Scans to average: 1
Electric dark correction enabled: true
Nonlinearity correction enabled: false
Boxcar width: 0
XAxis mode: Raman Shifts
Number of Pixels in Spectrum: 1044
>>>>>Begin Spectral Data<<<<<
160.701	13.5
166.742	44.5
172.777	143.5
178.805	444.5
184.826	1211.5
190.841	2609.5
196.849	4370.5
202.85	5771.5
208.845	6274.5
214.833	6294.5
220.815	6195.5
226.789	6143.5
232.758	6179.5
238.719	6124.5
244.674	6102.5
250.623	6005.5
256.565	5951.5
262.5	5837.5
268.429	5744.5
274.351	5711.5
280.267	5647.5
286.176	5627.5
292.079	5573.5
297.975	5565.5
303.865	5554.5
309.748	5519.5
315.625	5503.5
321.495	5512.5
327.359	5506.5
333.217	5486.5
339.068	5525.5
344.912	5486.5
350.751	5472.5
356.583	5534.5
362.408	5463.5
368.227	5537.5
374.04	5549.5
379.847	5566.5
385.647	5584.5
391.44	5629.5
397.228	5613.5
403.009	5657.5
408.784	5672.5
414.553	5675.5
420.315	5689.5
426.071	5708.5
431.821	5681.5
437.565	5700.5
443.302	5699.5
449.033	5675.5
454.758	5675.5
460.477	5619.5
466.189	5624.5
471.896	5549.5
477.596	5525.5
483.29	5503.5
488.978	5518.5
494.66	5493.5
500.335	5432.5
506.005	5308.5
511.668	5140.5
517.325	5024.5
522.977	4906.5
528.622	4787.5
534.261	4767.5
539.894	4723.5
545.521	4658.5
551.141	4669.5
556.756	4618.5
562.365	4618.5
567.968	4557.5
573.565	4567.5
579.155	4520.5
584.74	4497.5
590.319	4485.5
595.892	4489.5
601.459	4466.5
607.02	4477.5
612.575	4421.5
618.124	4363.5
623.667	4333.5
629.204	4303.5
634.735	4261.5
640.261	4237.5
645.781	4213.5
651.294	4209.5
656.802	4171.5
662.304	4184.5
667.8	4154.5
673.29	4160.5
678.775	4181.5
684.254	4160.5
689.726	4153.5
695.193	4129.5
700.655	4107.5
706.11	4087.5
711.56	4048.5
717.004	4029.5
722.442	4020.5
727.874	4003.5
733.301	3965.5
738.722	3954.5
744.137	3949.5
749.547	3947.5
754.951	3947.5
760.349	3941.5
765.741	3948.5
771.128	3959.5
776.509	3985.5
781.885	4000.5
787.254	3978.5
792.618	4037.5
797.977	3992.5
803.33	3946.5
808.677	3914.5
814.019	3883.5
819.355	3882.5
824.686	3840.5
830.011	3815.5
835.33	3802.5
840.644	3814.5
845.952	3797.5
851.255	3798.5
856.552	3797.5
861.844	3764.5
867.13	3742.5
872.41	3737.5
877.686	3692.5
882.955	3682.5
888.219	3648.5
893.478	3611.5
898.731	3571.5
903.979	3505.5
909.221	3473.5
914.458	3485.5
919.69	3478.5
924.916	3473.5
930.136	3471.5
935.351	3481.5
940.561	3526.5
945.766	3485.5
950.965	3486.5
956.158	3435.5
961.347	3382.5
966.529	3361.5
971.707	3314.5
976.879	3264.5
982.046	3248.5
987.208	3218.5
992.364	3204.5
997.515	3229.5
1002.66	3292.5
1007.801	3309.5
1012.936	3326.5
1018.066	3308.5
1023.19	3323.5
1028.309	3334.5
1033.423	3343.5
1038.532	3316.5
1043.636	3272.5
1048.734	3242.5
1053.827	3199.5
1058.915	3168.5
1063.998	3171.5
1069.075	3141.5
1074.147	3133.5
1079.214	3130.5
1084.276	3163.5
1089.333	3169.5
1094.385	3192.5
1099.431	3194.5
1104.472	3151.5
1109.509	3137.5
1114.54	3118.5
1119.565	3078.5
1124.586	3029.5
1129.602	3035.5
1134.613	2962.5
1139.618	2940.5
1144.619	2953.5
1149.614	2939.5
1154.604	2944.5
1159.589	2972.5
1164.57	2964.5
1169.545	2969.5
1174.515	3003.5
1179.48	2959.5
1184.44	2934.5
1189.395	2894.5
1194.345	2894.5
1199.29	2848.5
1204.23	2865.5
1209.165	2862.5
1214.095	2904.5
1219.021	2903.5
1223.941	2921.5
1228.856	2914.5
1233.766	2936.5
1238.672	2938.5
1243.572	2929.5
1248.467	2913.5
1253.358	2876.5
1258.244	2832.5
1263.124	2797.5
1268	2756.5
1272.871	2725.5
1277.737	2711.5
1282.599	2692.5
1287.455	2683.5
1292.306	2699.5
1297.153	2712.5
1301.995	2750.5
1306.832	2749.5
1311.664	2766.5
1316.491	2751.5
1321.314	2753.5
1326.132	2739.5
1330.945	2691.5
1335.753	2649.5
1340.556	2634.5
1345.354	2584.5
1350.148	2539.5
1354.937	2512.5
1359.722	2449.5
1364.501	2433.5
1369.276	2376.5
1374.046	2343.5
1378.811	2329.5
1383.572	2297.5
1388.327	2292.5
1393.079	2306.5
1397.825	2317.5
1402.567	2316.5
1407.304	2306.5
1412.036	2304.5
1416.764	2327.5
1421.487	2320.5
1426.205	2318.5
1430.919	2326.5
1435.628	2321.5
1440.333	2346.5
1445.032	2353.5
1449.727	2402.5
1454.418	2424.5
1459.104	2408.5
1463.785	2379.5
1468.462	2333.5
1473.134	2256.5
1477.802	2217.5
1482.465	2188.5
1487.123	2140.5
1491.777	2115.5
1496.426	2107.5
1501.071	2086.5
1505.711	2075.5
1510.347	2057.5
1514.978	2061.5
1519.604	2037.5
1524.226	2055.5
1528.844	2037.5
1533.457	2009.5
1538.065	2028.5
1542.669	2018.5
1547.269	2026.5
1551.864	2031.5
1556.454	2032.5
1561.041	2055.5
1565.622	2064.5
1570.199	2069.5
1574.772	2090.5
1579.34	2106.5
1583.904	2136.5
1588.464	2161.5
1593.019	2151.5
1597.569	2172.5
1602.115	2152.5
1606.657	2158.5
1611.195	2136.5
1615.728	2140.5
1620.256	2143.5
1624.78	2146.5
1629.3	2136.5
1633.816	2125.5
1638.327	2148.5
1642.834	2159.5
1647.336	2162.5
1651.834	2181.5
1656.328	2185.5
1660.817	2166.5
1665.302	2148.5
1669.783	2116.5
1674.259	2051.5
1678.732	2012.5
1683.199	1944.5
1687.663	1916.5
1692.122	1843.5
1696.577	1774.5
1701.028	1677.5
1705.474	1639.5
1709.917	1578.5
1714.355	1546.5
1718.788	1533.5
1723.218	1537.5
1727.643	1534.5
1732.064	1530.5
1736.481	1529.5
1740.893	1484.5
1745.301	1453.5
1749.705	1418.5
1754.105	1384.5
1758.501	1384.5
1762.893	1346.5
1767.28	1357.5
1771.663	1334.5
1776.042	1319.5
1780.417	1310.5
1784.787	1282.5
1789.154	1261.5
1793.516	1267.5
1797.874	1242.5
1802.228	1237.5
1806.578	1221.5
1810.924	1203.5
1815.266	1190.5
1819.603	1187.5
1823.937	1184.5
1828.266	1180.5
1832.591	1177.5
1836.913	1185.5
1841.23	1189.5
1845.543	1185.5
1849.852	1190.5
1854.156	1195.5
1858.457	1207.5
1862.754	1184.5
1867.047	1195.5
1871.335	1187.5
1875.62	1204.5
1879.9	1193.5
1884.177	1158.5
1888.449	1170.5
1892.718	1146.5
1896.982	1131.5
1901.243	1111.5
1905.499	1108.5
1909.752	1094.5
1914	1077.5
1918.245	1064.5
1922.485	1048.5
1926.722	1037.5
1930.954	1040.5
1935.183	1039.5
1939.408	1031.5
1943.628	1032.5
1947.845	1016.5
1952.058	1003.5
1956.267	1003.5
1960.472	984.5
1964.673	986.5
1968.87	965.5
1973.063	957.5
1977.252	950.5
1981.438	959.5
1985.619	953.5
1989.797	961.5
1993.971	951.5
1998.14	968.5
2002.306	955.5
2006.469	973.5
2010.627	969.5
2014.781	974.5
2018.932	962.5
2023.078	969.5
2027.221	955.5
2031.36	954.5
2035.495	939.5
2039.627	925.5
2043.754	910.5
2047.878	914.5
2051.998	913.5
2056.114	904.5
2060.226	888.5
2064.334	904.5
2068.439	890.5
2072.54	872.5
2076.637	908.5
2080.73	885.5
2084.82	874.5
2088.906	871.5
2092.988	862.5
2097.066	853.5
2101.14	840.5
2105.211	828.5
2109.278	808.5
2113.342	811.5
2117.401	790.5
2121.457	791.5
2125.509	801.5
2129.558	782.5
2133.602	787.5
2137.643	791.5
2141.681	792.5
2145.714	792.5
2149.744	779.5
2153.77	782.5
2157.793	780.5
2161.812	776.5
2165.827	767.5
2169.838	751.5
2173.846	741.5
2177.851	731.5
2181.851	720.5
2185.848	712.5
2189.841	722.5
2193.831	716.5
2197.817	688.5
2201.799	681.5
2205.778	688.5
2209.753	698.5
2213.725	697.5
2217.693	679.5
2221.657	686.5
2225.618	673.5
2229.575	681.5
2233.529	669.5
2237.479	679.5
2241.425	661.5
2245.368	640.5
2249.307	644.5
2253.243	634.5
2257.175	637.5
2261.104	599.5
2265.029	605.5
2268.95	609.5
2272.868	581.5
2276.783	599.5
2280.694	587.5
2284.601	580.5
2288.505	570.5
2292.405	565.5
2296.302	551.5
2300.195	546.5
2304.085	533.5
2307.971	536.5
2311.854	533.5
2315.734	497.5
2319.609	509.5
2323.482	506.5
2327.351	501.5
2331.216	513.5
2335.078	515.5
2338.937	499.5
2342.792	491.5
2346.643	485.5
2350.492	480.5
2354.336	482.5
2358.178	477.5
2362.015	485.5
2365.85	496.5
2369.681	493.5
2373.508	484.5
2377.333	482.5
2381.153	479.5
2384.971	492.5
2388.785	489.5
2392.595	475.5
2396.402	470.5
2400.206	473.5
2404.007	465.5
2407.804	466.5
2411.597	448.5
2415.388	448.5
2419.174	459.5
2422.958	446.5
2426.738	445.5
2430.515	447.5
2434.289	451.5
2438.059	437.5
2441.825	433.5
2445.589	432.5
2449.349	427.5
2453.106	417.5
2456.859	417.5
2460.61	404.5
2464.356	405.5
2468.1	407.5
2471.84	392.5
2475.577	395.5
2479.311	382.5
2483.041	388.5
2486.768	388.5
2490.492	379.5
2494.213	398.5
2497.93	373.5
2501.644	369.5
2505.355	373.5
2509.062	367.5
2512.766	361.5
2516.467	360.5
2520.165	357.5
2523.859	355.5
2527.551	341.5
2531.239	334.5
2534.923	319.5
2538.605	332.5
2542.283	327.5
2545.958	327.5
2549.63	319.5
2553.299	319.5
2556.964	322.5
2560.626	300.5
2564.285	301.5
2567.941	302.5
2571.594	304.5
2575.243	298.5
2578.89	294.5
2582.533	283.5
2586.173	278.5
2589.809	274.5
2593.443	288.5
2597.073	287.5
2600.701	263.5
2604.325	273.5
2607.946	265.5
2611.564	273.5
2615.178	272.5
2618.79	264.5
2622.398	270.5
2626.004	255.5
2629.606	263.5
2633.205	249.5
2636.801	248.5
2640.394	245.5
2643.983	246.5
2647.57	251.5
2651.153	247.5
2654.734	239.5
2658.311	226.5
2661.885	232.5
2665.456	234.5
2669.025	231.5
2672.589	220.5
2676.151	230.5
2679.71	224.5
2683.266	222.5
2686.819	224.5
2690.368	221.5
2693.915	214.5
2697.458	203.5
2700.999	206.5
2704.536	205.5
2708.071	192.5
2711.602	189.5
2715.13	189.5
2718.656	191.5
2722.178	184.5
2725.697	174.5
2729.214	180.5
2732.727	179.5
2736.237	183.5
2739.744	171.5
2743.249	165.5
2746.75	173.5
2750.248	167.5
2753.743	160.5
2757.236	154.5
2760.725	155.5
2764.211	154.5
2767.695	147.5
2771.175	140.5
2774.652	128.5
2778.127	145.5
2781.598	139.5
2785.067	148.5
2788.532	148.5
2791.995	137.5
2795.455	144.5
2798.911	143.5
2802.365	152.5
2805.816	149.5
2809.264	151.5
2812.709	154.5
2816.151	150.5
2819.59	146.5
2823.026	146.5
2826.46	142.5
2829.89	143.5
2833.318	144.5
2836.742	160.5
2840.164	145.5
2843.583	147.5
2846.999	157.5
2850.412	141.5
2853.822	149.5
2857.229	156.5
2860.634	160.5
2864.035	164.5
2867.434	170.5
2870.83	167.5
2874.223	185.5
2877.613	186.5
2881	198.5
2884.385	197.5
2887.766	190.5
2891.145	194.5
2894.521	200.5
2897.894	210.5
2901.264	200.5
2904.631	207.5
2907.996	208.5
2911.358	211.5
2914.717	218.5
2918.073	212.5
2921.426	222.5
2924.777	234.5
2928.124	236.5
2931.469	234.5
2934.811	242.5
2938.15	238.5
2941.487	256.5
2944.821	260.5
2948.152	253.5
2951.48	257.5
2954.805	250.5
2958.128	259.5
2961.447	256.5
2964.765	249.5
2968.079	249.5
2971.39	248.5
2974.699	271.5
2978.005	252.5
2981.308	269.5
2984.609	260.5
2987.907	248.5
2991.202	255.5
2994.494	264.5
2997.784	259.5
3001.07	278.5
3004.355	276.5
3007.636	278.5
3010.915	290.5
3014.191	289.5
3017.464	287.5
3020.734	286.5
3024.002	295.5
3027.267	307.5
3030.53	306.5
3033.789	320.5
3037.046	321.5
3040.301	332.5
3043.552	332.5
3046.801	354.5
3050.048	356.5
3053.291	363.5
3056.532	380.5
3059.771	408.5
3063.006	405.5
3066.239	420.5
3069.469	428.5
3072.697	456.5
3075.922	458.5
3079.144	471.5
3082.364	490.5
3085.581	499.5
3088.795	494.5
3092.007	511.5
3095.216	526.5
3098.423	537.5
3101.627	545.5
3104.828	557.5
3108.026	573.5
3111.222	582.5
3114.416	589.5
3117.607	603.5
3120.795	632.5
3123.98	623.5
3127.163	642.5
3130.344	658.5
3133.521	682.5
3136.696	696.5
3139.869	700.5
3143.039	721.5
3146.206	719.5
3149.371	725.5
3152.533	744.5
3155.693	742.5
3158.85	757.5
3162.005	760.5
3165.157	775.5
3168.306	760.5
3171.453	768.5
3174.597	775.5
3177.739	775.5
3180.878	787.5
3184.014	790.5
3187.149	791.5
3190.28	790.5
3193.409	787.5
3196.536	799.5
3199.659	802.5
3202.781	814.5
3205.9	808.5
3209.016	807.5
3212.13	807.5
3215.241	812.5
3218.35	790.5
3221.456	782.5
3224.56	780.5
3227.661	762.5
3230.76	755.5
3233.856	749.5
3236.95	735.5
3240.041	729.5
3243.13	717.5
3246.216	708.5
3249.3	699.5
3252.382	700.5
3255.46	689.5
3258.537	688.5
3261.611	664.5
3264.682	660.5
3267.751	670.5
3270.818	657.5
3273.882	656.5
3276.943	653.5
3280.002	655.5
3283.059	649.5
3286.113	630.5
3289.165	637.5
3292.214	619.5
3295.261	620.5
3298.306	608.5
3301.348	596.5
3304.387	596.5
3307.425	580.5
3310.459	592.5
3313.492	571.5
3316.521	578.5
3319.549	569.5
3322.574	563.5
3325.597	559.5
3328.617	559.5
3331.635	556.5
3334.65	549.5
3337.663	547.5
3340.674	556.5
3343.682	550.5
3346.688	550.5
3349.691	540.5
3352.692	538.5
3355.691	535.5
3358.687	528.5
3361.681	529.5
3364.673	524.5
3367.662	511.5
3370.649	501.5
3373.633	497.5
3376.615	497.5
3379.595	487.5
3382.572	478.5
3385.547	471.5
3388.52	460.5
3391.49	470.5
3394.458	449.5
3397.424	442.5
3400.387	430.5
3403.348	423.5
3406.307	414.5
3409.263	410.5
3412.217	414.5
3415.168	408.5
3418.118	401.5
3421.065	381.5
3424.009	383.5
3426.951	390.5
3429.891	371.5
3432.829	350.5
3435.764	361.5
3438.697	351.5
3441.628	333.5
3444.557	337.5
3447.483	312.5
3450.407	294.5
3453.328	285.5
3456.247	283.5
3459.164	266.5
3462.079	256.5
3464.991	244.5
3467.902	236.5
3470.809	236.5
3473.715	218.5
3476.618	205.5
3479.519	200.5
3482.418	197.5
3485.315	185.5
3488.209	179.5
3491.101	166.5
3493.99	174.5
3496.878	160.5
3499.763	140.5
3502.646	136.5
3505.527	131.5
3508.405	121.5
3511.281	108.5
3514.155	114.5
3517.027	103.5
3519.897	84.5
3522.764	83.5
3525.629	67.5
3528.492	58.5
3531.352	57.5
3534.211	56.5
3537.067	36.5
3539.921	48.5
3542.773	27.5
3545.622	19.5
3548.469	9.5
3551.315	12.5
3554.157	-4.5
3556.998	-5.5
3559.837	-5.5
3562.673	-7.5
3565.507	-18.5
3568.339	-22.5
3571.169	-38.5
3573.996	-31.5
3576.822	-31.5
3579.645	-37.5
3582.466	-35.5
3585.285	-43.5
3588.101	-44.5
3590.916	-55.5
3593.728	-60.5
3596.538	-55.5
3599.346	-61.5
3602.152	-59.5
3604.956	-65.5
3607.757	-61.5
3610.556	-77.5
3613.354	-71.5
3616.149	-85.5
3618.942	-85.5
3621.732	-80.5
3624.521	-84.5
3627.307	-85.5
3630.092	-83.5
3632.874	-82.5
3635.654	-95.5
3638.432	-98.5
3641.208	-93.5
3643.982	-106.5
3646.753	-106.5
3649.523	-103.5
3652.29	-101.5
3655.055	-109.5
3657.818	-112.5
3660.579	-104.5
3663.338	-111.5
3666.095	-114.5
3668.849	-115.5
3671.602	-116.5
3674.352	-117.5
3677.101	-124.5
3679.847	-127.5
3682.591	-126.5
3685.333	-126.5
3688.073	-126.5
3690.811	-125.5
3693.547	-136.5
3696.281	-130.5
3699.013	-136.5
3701.742	-134.5
3704.47	-130.5
3707.195	-127.5
3709.919	-136.5
3712.64	-132.5
3715.359	-137.5
3718.076	-132.5
3720.792	-140.5
3723.505	-145.5
3726.216	-137.5
3728.925	-146.5
3731.632	-139.5
3734.336	-147.5
3737.039	-138.5
3739.74	-143.5
3742.439	-156.5
3745.136	-144.5
3747.83	-145.5
3750.523	-141.5
3753.213	-152.5
3755.902	-137.5
3758.589	-103.5
3761.273	-139.5
3763.956	-145.5
3766.636	-148.5
3769.315	-142.5
3771.991	-144.5
3774.665	-148.5
3777.338	-143.5
3780.008	-146.5
3782.677	-148.5
3785.343	-150.5
3788.007	-153.5
3790.67	-148.5
3793.33	-146.5
3795.989	-146.5
3798.645	-144.5
3801.299	-152.5
3803.952	-159.5
3806.602	-144.5
3809.251	-156.5
3811.897	-155.5
3814.542	-154.5
3817.184	-142.5
3819.825	-147.5
3822.463	-150.5
3825.1	-154.5
3827.735	-153.5
3830.367	-154.5
3832.998	-152.5
3835.627	-150.5
3838.253	-147.5
3840.878	-148.5
3843.501	-150.5
3846.122	-155.5
3848.741	-157.5
3851.358	-146.5
3853.973	-154.5
3856.586	-151.5
3859.197	-153.5
3861.806	-151.5
3864.414	-155.5
3867.019	-151.5
3869.622	-151.5
3872.224	-139.5
3874.823	-133.5
3877.421	-123.5
3880.016	-100.5
3882.61	-79.5
3885.202	-77.5
3887.792	-100.5
3890.38	-115.5
3892.966	-141.5
3895.55	-144.5
3898.132	-146.5
3900.713	-154.5
3903.291	-158.5
3905.868	-158.5
3908.442	-152.5
3911.015	-161.5
3913.586	-151.5
3916.155	-161.5
3918.722	-159.5
3921.287	-155.5
3923.85	-155.5
3926.411	-153.5
3928.971	-150.5
3931.528	-155.5
3934.084	-156.5
3936.638	-149.5
3939.19	-161.5
3941.74	-156.5
3944.288	-152.5
3946.834	-148.5
3949.378	-148.5
3951.921	-151.5
3954.462	-159.5
3957	-155.5
3959.537	-151.5
3962.072	-161.5
3964.606	-145.5
3967.137	-152.5
3969.667	-158.5
3972.194	-155.5
3974.72	-154.5
3977.244	-157.5
3979.766	-155.5
3982.286	-157.5
3984.805	-153.5
3987.321	-154.5
3989.836	-145.5
3992.349	-154.5
3994.86	-153.5
3997.369	-151.5
3999.877	-153.5
4002.382	-150.5
4004.886	-155.5
4007.388	-152.5
4009.888	-149.5
4012.386	-150.5
4014.883	-149.5
4017.377	-155.5
4019.87	-151.5
4022.361	-150.5
4024.85	-154.5
4027.338	-150.5
4029.823	-148.5
4032.307	-146.5
4034.789	-154.5
4037.269	-151.5
4039.747	-152.5
4042.224	-153.5
4044.699	-159.5
4047.172	-148.5
4049.643	-145.5
4052.112	-150.5
4054.58	-154.5
4057.046	-150.5
4059.51	-153.5
4061.972	-152.5
4064.432	-151.5
4066.891	-155.5
4069.348	-152.5
4071.803	-154.5
4074.256	-151.5
4076.708	-148.5
4079.158	-153.5
4081.606	-147.5
4084.052	-163.5
4086.497	-153.5
4088.939	-147.5
4091.38	-151.5
4093.819	-152.5
4096.257	-164.5
4098.693	-159.5
4101.127	-164.5
4103.559	-159.5
4105.989	-0.5
4108.418	-14.5
4110.845	-12.5
4113.27	-10.5
4115.694	-12.5
4118.115	-18.5
4120.535	-151.5
4122.954	-157.5
4125.37	-153.5
4127.785	-156.5
4130.198	-154.5
4132.609	-154.5
4135.019	-161.5
4137.427	-160.5
4139.833	-160.5
4142.237	-163.5
