Data from 2018-2-8_conc=5_n=1_RamanShift_03.txt Node
Date: Mon Mar 12 15:51:28 IST 2018
User: aro
Spectrometer: QEPB0276
Trigger mode: 0
Integration Time (sec): 3.000000E1
Scans to average: 1
Electric dark correction enabled: true
Nonlinearity correction enabled: false
Boxcar width: 0
XAxis mode: Raman Shifts
Number of Pixels in Spectrum: 1044
>>>>>Begin Spectral Data<<<<<
160.701	20.6
166.742	48.6
172.777	140.6
178.805	415.6
184.826	1113.6
190.841	2394.6
196.849	3920.6
202.85	5146.6
208.845	5566.6
214.833	5595.6
220.815	5496.6
226.789	5496.6
232.758	5521.6
238.719	5501.6
244.674	5481.6
250.623	5414.6
256.565	5342.6
262.5	5292.6
268.429	5179.6
274.351	5150.6
280.267	5126.6
286.176	5103.6
292.079	5046.6
297.975	5010.6
303.865	5042.6
309.748	5003.6
315.625	4985.6
321.495	4993.6
327.359	4981.6
333.217	4963.6
339.068	4969.6
344.912	5017.6
350.751	5007.6
356.583	5052.6
362.408	5001.6
368.227	5035.6
374.04	5048.6
379.847	5070.6
385.647	5083.6
391.44	5121.6
397.228	5133.6
403.009	5145.6
408.784	5219.6
414.553	5214.6
420.315	5216.6
426.071	5231.6
431.821	5244.6
437.565	5200.6
443.302	5200.6
449.033	5199.6
454.758	5166.6
460.477	5159.6
466.189	5118.6
471.896	5088.6
477.596	5046.6
483.29	5053.6
488.978	5062.6
494.66	5007.6
500.335	4920.6
506.005	4806.6
511.668	4699.6
517.325	4534.6
522.977	4412.6
528.622	4347.6
534.261	4308.6
539.894	4254.6
545.521	4211.6
551.141	4198.6
556.756	4150.6
562.365	4136.6
567.968	4110.6
573.565	4096.6
579.155	4061.6
584.74	4052.6
590.319	4058.6
595.892	4023.6
601.459	4015.6
607.02	3998.6
612.575	3973.6
618.124	3927.6
623.667	3908.6
629.204	3874.6
634.735	3820.6
640.261	3800.6
645.781	3789.6
651.294	3775.6
656.802	3789.6
662.304	3757.6
667.8	3746.6
673.29	3720.6
678.775	3747.6
684.254	3706.6
689.726	3716.6
695.193	3707.6
700.655	3692.6
706.11	3651.6
711.56	3635.6
717.004	3631.6
722.442	3568.6
727.874	3605.6
733.301	3554.6
738.722	3546.6
744.137	3545.6
749.547	3565.6
754.951	3535.6
760.349	3532.6
765.741	3542.6
771.128	3557.6
776.509	3598.6
781.885	3595.6
787.254	3605.6
792.618	3596.6
797.977	3582.6
803.33	3554.6
808.677	3519.6
814.019	3521.6
819.355	3488.6
824.686	3449.6
830.011	3446.6
835.33	3439.6
840.644	3433.6
845.952	3414.6
851.255	3414.6
856.552	3390.6
861.844	3381.6
867.13	3356.6
872.41	3338.6
877.686	3336.6
882.955	3290.6
888.219	3277.6
893.478	3231.6
898.731	3179.6
903.979	3136.6
909.221	3111.6
914.458	3097.6
919.69	3119.6
924.916	3089.6
930.136	3098.6
935.351	3131.6
940.561	3124.6
945.766	3104.6
950.965	3109.6
956.158	3083.6
961.347	3047.6
966.529	2995.6
971.707	2968.6
976.879	2922.6
982.046	2902.6
987.208	2879.6
992.364	2879.6
997.515	2906.6
1002.66	2916.6
1007.801	2959.6
1012.936	2977.6
1018.066	2979.6
1023.19	2959.6
1028.309	2964.6
1033.423	2965.6
1038.532	2972.6
1043.636	2948.6
1048.734	2908.6
1053.827	2857.6
1058.915	2827.6
1063.998	2813.6
1069.075	2793.6
1074.147	2819.6
1079.214	2814.6
1084.276	2839.6
1089.333	2841.6
1094.385	2848.6
1099.431	2841.6
1104.472	2840.6
1109.509	2819.6
1114.54	2776.6
1119.565	2755.6
1124.586	2722.6
1129.602	2677.6
1134.613	2664.6
1139.618	2662.6
1144.619	2633.6
1149.614	2620.6
1154.604	2641.6
1159.589	2642.6
1164.57	2646.6
1169.545	2655.6
1174.515	2658.6
1179.48	2631.6
1184.44	2621.6
1189.395	2585.6
1194.345	2579.6
1199.29	2557.6
1204.23	2563.6
1209.165	2574.6
1214.095	2596.6
1219.021	2611.6
1223.941	2605.6
1228.856	2623.6
1233.766	2603.6
1238.672	2639.6
1243.572	2625.6
1248.467	2598.6
1253.358	2596.6
1258.244	2554.6
1263.124	2478.6
1268	2461.6
1272.871	2429.6
1277.737	2409.6
1282.599	2382.6
1287.455	2398.6
1292.306	2375.6
1297.153	2411.6
1301.995	2437.6
1306.832	2442.6
1311.664	2450.6
1316.491	2446.6
1321.314	2423.6
1326.132	2430.6
1330.945	2403.6
1335.753	2388.6
1340.556	2344.6
1345.354	2296.6
1350.148	2262.6
1354.937	2237.6
1359.722	2195.6
1364.501	2166.6
1369.276	2156.6
1374.046	2111.6
1378.811	2083.6
1383.572	2074.6
1388.327	2060.6
1393.079	2073.6
1397.825	2064.6
1402.567	2065.6
1407.304	2073.6
1412.036	2073.6
1416.764	2066.6
1421.487	2078.6
1426.205	2083.6
1430.919	2058.6
1435.628	2085.6
1440.333	2108.6
1445.032	2105.6
1449.727	2127.6
1454.418	2151.6
1459.104	2149.6
1463.785	2130.6
1468.462	2079.6
1473.134	2051.6
1477.802	2007.6
1482.465	1956.6
1487.123	1932.6
1491.777	1910.6
1496.426	1887.6
1501.071	1870.6
1505.711	1858.6
1510.347	1865.6
1514.978	1872.6
1519.604	1867.6
1524.226	1862.6
1528.844	1849.6
1533.457	1841.6
1538.065	1834.6
1542.669	1834.6
1547.269	1818.6
1551.864	1832.6
1556.454	1835.6
1561.041	1872.6
1565.622	1854.6
1570.199	1855.6
1574.772	1870.6
1579.34	1893.6
1583.904	1918.6
1588.464	1917.6
1593.019	1931.6
1597.569	1925.6
1602.115	1946.6
1606.657	1944.6
1611.195	1924.6
1615.728	1915.6
1620.256	1908.6
1624.78	1893.6
1629.3	1922.6
1633.816	1938.6
1638.327	1932.6
1642.834	1937.6
1647.336	1956.6
1651.834	1954.6
1656.328	1971.6
1660.817	1933.6
1665.302	1934.6
1669.783	1891.6
1674.259	1843.6
1678.732	1801.6
1683.199	1759.6
1687.663	1704.6
1692.122	1644.6
1696.577	1589.6
1701.028	1551.6
1705.474	1498.6
1709.917	1453.6
1714.355	1413.6
1718.788	1391.6
1723.218	1394.6
1727.643	1415.6
1732.064	1382.6
1736.481	1376.6
1740.893	1351.6
1745.301	1309.6
1749.705	1299.6
1754.105	1280.6
1758.501	1253.6
1762.893	1239.6
1767.28	1204.6
1771.663	1205.6
1776.042	1207.6
1780.417	1197.6
1784.787	1173.6
1789.154	1177.6
1793.516	1163.6
1797.874	1131.6
1802.228	1130.6
1806.578	1115.6
1810.924	1114.6
1815.266	1093.6
1819.603	1091.6
1823.937	1080.6
1828.266	1080.6
1832.591	1092.6
1836.913	1073.6
1841.23	1082.6
1845.543	1085.6
1849.852	1078.6
1854.156	1071.6
1858.457	1099.6
1862.754	1083.6
1867.047	1069.6
1871.335	1086.6
1875.62	1089.6
1879.9	1087.6
1884.177	1071.6
1888.449	1050.6
1892.718	1062.6
1896.982	1045.6
1901.243	1027.6
1905.499	1006.6
1909.752	1008.6
1914	979.6
1918.245	982.6
1922.485	956.6
1926.722	953.6
1930.954	957.6
1935.183	936.6
1939.408	934.6
1943.628	938.6
1947.845	912.6
1952.058	932.6
1956.267	934.6
1960.472	917.6
1964.673	885.6
1968.87	890.6
1973.063	901.6
1977.252	868.6
1981.438	878.6
1985.619	871.6
1989.797	871.6
1993.971	880.6
1998.14	887.6
2002.306	877.6
2006.469	887.6
2010.627	876.6
2014.781	879.6
2018.932	886.6
2023.078	896.6
2027.221	871.6
2031.36	859.6
2035.495	853.6
2039.627	839.6
2043.754	823.6
2047.878	816.6
2051.998	829.6
2056.114	816.6
2060.226	815.6
2064.334	811.6
2068.439	798.6
2072.54	799.6
2076.637	806.6
2080.73	791.6
2084.82	796.6
2088.906	787.6
2092.988	778.6
2097.066	768.6
2101.14	760.6
2105.211	739.6
2109.278	742.6
2113.342	723.6
2117.401	724.6
2121.457	730.6
2125.509	721.6
2129.558	722.6
2133.602	715.6
2137.643	705.6
2141.681	711.6
2145.714	698.6
2149.744	712.6
2153.77	712.6
2157.793	700.6
2161.812	708.6
2165.827	696.6
2169.838	686.6
2173.846	667.6
2177.851	649.6
2181.851	646.6
2185.848	642.6
2189.841	635.6
2193.831	636.6
2197.817	634.6
2201.799	639.6
2205.778	619.6
2209.753	609.6
2213.725	625.6
2217.693	619.6
2221.657	613.6
2225.618	616.6
2229.575	624.6
2233.529	615.6
2237.479	606.6
2241.425	589.6
2245.368	601.6
2249.307	585.6
2253.243	561.6
2257.175	561.6
2261.104	555.6
2265.029	543.6
2268.95	541.6
2272.868	522.6
2276.783	527.6
2280.694	517.6
2284.601	508.6
2288.505	505.6
2292.405	506.6
2296.302	494.6
2300.195	485.6
2304.085	476.6
2307.971	463.6
2311.854	474.6
2315.734	462.6
2319.609	447.6
2323.482	443.6
2327.351	448.6
2331.216	460.6
2335.078	459.6
2338.937	449.6
2342.792	446.6
2346.643	428.6
2350.492	421.6
2354.336	426.6
2358.178	428.6
2362.015	427.6
2365.85	431.6
2369.681	432.6
2373.508	430.6
2377.333	432.6
2381.153	424.6
2384.971	436.6
2388.785	420.6
2392.595	407.6
2396.402	421.6
2400.206	399.6
2404.007	412.6
2407.804	399.6
2411.597	400.6
2415.388	404.6
2419.174	400.6
2422.958	397.6
2426.738	390.6
2430.515	390.6
2434.289	393.6
2438.059	383.6
2441.825	385.6
2445.589	375.6
2449.349	363.6
2453.106	365.6
2456.859	363.6
2460.61	360.6
2464.356	353.6
2468.1	355.6
2471.84	335.6
2475.577	346.6
2479.311	336.6
2483.041	329.6
2486.768	333.6
2490.492	337.6
2494.213	329.6
2497.93	327.6
2501.644	313.6
2505.355	313.6
2509.062	324.6
2512.766	316.6
2516.467	313.6
2520.165	307.6
2523.859	303.6
2527.551	300.6
2531.239	289.6
2534.923	293.6
2538.605	287.6
2542.283	288.6
2545.958	294.6
2549.63	275.6
2553.299	274.6
2556.964	284.6
2560.626	264.6
2564.285	264.6
2567.941	262.6
2571.594	257.6
2575.243	258.6
2578.89	242.6
2582.533	247.6
2586.173	244.6
2589.809	235.6
2593.443	249.6
2597.073	240.6
2600.701	235.6
2604.325	224.6
2607.946	228.6
2611.564	229.6
2615.178	236.6
2618.79	231.6
2622.398	228.6
2626.004	215.6
2629.606	217.6
2633.205	217.6
2636.801	217.6
2640.394	215.6
2643.983	203.6
2647.57	204.6
2651.153	207.6
2654.734	206.6
2658.311	203.6
2661.885	200.6
2665.456	195.6
2669.025	197.6
2672.589	194.6
2676.151	190.6
2679.71	199.6
2683.266	177.6
2686.819	187.6
2690.368	183.6
2693.915	177.6
2697.458	172.6
2700.999	172.6
2704.536	178.6
2708.071	164.6
2711.602	165.6
2715.13	162.6
2718.656	153.6
2722.178	156.6
2725.697	154.6
2729.214	155.6
2732.727	152.6
2736.237	155.6
2739.744	145.6
2743.249	147.6
2746.75	143.6
2750.248	137.6
2753.743	141.6
2757.236	129.6
2760.725	135.6
2764.211	116.6
2767.695	132.6
2771.175	112.6
2774.652	124.6
2778.127	118.6
2781.598	113.6
2785.067	119.6
2788.532	116.6
2791.995	120.6
2795.455	123.6
2798.911	113.6
2802.365	123.6
2805.816	126.6
2809.264	119.6
2812.709	128.6
2816.151	119.6
2819.59	123.6
2823.026	122.6
2826.46	114.6
2829.89	120.6
2833.318	120.6
2836.742	133.6
2840.164	122.6
2843.583	133.6
2846.999	130.6
2850.412	116.6
2853.822	126.6
2857.229	129.6
2860.634	136.6
2864.035	134.6
2867.434	139.6
2870.83	151.6
2874.223	158.6
2877.613	164.6
2881	175.6
2884.385	173.6
2887.766	161.6
2891.145	169.6
2894.521	173.6
2897.894	173.6
2901.264	170.6
2904.631	163.6
2907.996	174.6
2911.358	174.6
2914.717	178.6
2918.073	187.6
2921.426	188.6
2924.777	199.6
2928.124	205.6
2931.469	194.6
2934.811	208.6
2938.15	208.6
2941.487	216.6
2944.821	218.6
2948.152	221.6
2951.48	219.6
2954.805	225.6
2958.128	211.6
2961.447	209.6
2964.765	209.6
2968.079	212.6
2971.39	212.6
2974.699	228.6
2978.005	220.6
2981.308	226.6
2984.609	222.6
2987.907	220.6
2991.202	224.6
2994.494	230.6
2997.784	225.6
3001.07	227.6
3004.355	248.6
3007.636	243.6
3010.915	236.6
3014.191	248.6
3017.464	256.6
3020.734	260.6
3024.002	246.6
3027.267	275.6
3030.53	269.6
3033.789	282.6
3037.046	285.6
3040.301	287.6
3043.552	303.6
3046.801	310.6
3050.048	306.6
3053.291	322.6
3056.532	335.6
3059.771	354.6
3063.006	354.6
3066.239	378.6
3069.469	391.6
3072.697	388.6
3075.922	405.6
3079.144	414.6
3082.364	425.6
3085.581	439.6
3088.795	441.6
3092.007	438.6
3095.216	451.6
3098.423	456.6
3101.627	482.6
3104.828	488.6
3108.026	506.6
3111.222	518.6
3114.416	512.6
3117.607	534.6
3120.795	543.6
3123.98	547.6
3127.163	573.6
3130.344	596.6
3133.521	591.6
3136.696	607.6
3139.869	628.6
3143.039	629.6
3146.206	626.6
3149.371	645.6
3152.533	647.6
3155.693	658.6
3158.85	671.6
3162.005	677.6
3165.157	668.6
3168.306	665.6
3171.453	668.6
3174.597	691.6
3177.739	692.6
3180.878	685.6
3184.014	709.6
3187.149	696.6
3190.28	696.6
3193.409	708.6
3196.536	705.6
3199.659	709.6
3202.781	708.6
3205.9	705.6
3209.016	720.6
3212.13	710.6
3215.241	721.6
3218.35	705.6
3221.456	703.6
3224.56	683.6
3227.661	677.6
3230.76	674.6
3233.856	670.6
3236.95	647.6
3240.041	647.6
3243.13	645.6
3246.216	613.6
3249.3	607.6
3252.382	609.6
3255.46	612.6
3258.537	592.6
3261.611	599.6
3264.682	593.6
3267.751	592.6
3270.818	581.6
3273.882	575.6
3276.943	573.6
3280.002	566.6
3283.059	561.6
3286.113	557.6
3289.165	568.6
3292.214	556.6
3295.261	534.6
3298.306	536.6
3301.348	526.6
3304.387	518.6
3307.425	519.6
3310.459	513.6
3313.492	508.6
3316.521	498.6
3319.549	487.6
3322.574	486.6
3325.597	487.6
3328.617	498.6
3331.635	485.6
3334.65	479.6
3337.663	481.6
3340.674	475.6
3343.682	478.6
3346.688	465.6
3349.691	473.6
3352.692	465.6
3355.691	472.6
3358.687	467.6
3361.681	471.6
3364.673	456.6
3367.662	442.6
3370.649	440.6
3373.633	426.6
3376.615	414.6
3379.595	420.6
3382.572	419.6
3385.547	401.6
3388.52	391.6
3391.49	390.6
3394.458	386.6
3397.424	371.6
3400.387	360.6
3403.348	368.6
3406.307	368.6
3409.263	352.6
3412.217	344.6
3415.168	358.6
3418.118	348.6
3421.065	336.6
3424.009	324.6
3426.951	324.6
3429.891	319.6
3432.829	311.6
3435.764	293.6
3438.697	282.6
3441.628	280.6
3444.557	267.6
3447.483	257.6
3450.407	255.6
3453.328	237.6
3456.247	239.6
3459.164	219.6
3462.079	217.6
3464.991	198.6
3467.902	190.6
3470.809	198.6
3473.715	176.6
3476.618	165.6
3479.519	166.6
3482.418	168.6
3485.315	152.6
3488.209	149.6
3491.101	139.6
3493.99	144.6
3496.878	133.6
3499.763	112.6
3502.646	115.6
3505.527	97.6
3508.405	96.6
3511.281	86.6
3514.155	76.6
3517.027	83.6
3519.897	62.6
3522.764	65.6
3525.629	57.6
3528.492	43.6
3531.352	37.6
3534.211	27.6
3537.067	24.6
3539.921	23.6
3542.773	15.6
3545.622	9.6
3548.469	-1.4
3551.315	-3.4
3554.157	-5.4
3556.998	-16.4
3559.837	-7.4
3562.673	-18.4
3565.507	-17.4
3568.339	-23.4
3571.169	-32.4
3573.996	-34.4
3576.822	-39.4
3579.645	-40.4
3582.466	-39.4
3585.285	-58.4
3588.101	-41.4
3590.916	-53.4
3593.728	-65.4
3596.538	-63.4
3599.346	-65.4
3602.152	-67.4
3604.956	-65.4
3607.757	-63.4
3610.556	-72.4
3613.354	-73.4
3616.149	-85.4
3618.942	-85.4
3621.732	-83.4
3624.521	-91.4
3627.307	-89.4
3630.092	-90.4
3632.874	-88.4
3635.654	-89.4
3638.432	-89.4
3641.208	-98.4
3643.982	-98.4
3646.753	-106.4
3649.523	-103.4
3652.29	-100.4
3655.055	-101.4
3657.818	-105.4
3660.579	-111.4
3663.338	-106.4
3666.095	-117.4
3668.849	-117.4
3671.602	-113.4
3674.352	-120.4
3677.101	-119.4
3679.847	-123.4
3682.591	-126.4
3685.333	-122.4
3688.073	-126.4
3690.811	-128.4
3693.547	-128.4
3696.281	-128.4
3699.013	-125.4
3701.742	-132.4
3704.47	-129.4
3707.195	-133.4
3709.919	-133.4
3712.64	-131.4
3715.359	-137.4
3718.076	-134.4
3720.792	-133.4
3723.505	-134.4
3726.216	-138.4
3728.925	-142.4
3731.632	-136.4
3734.336	-140.4
3737.039	-136.4
3739.74	-140.4
3742.439	-144.4
3745.136	-136.4
3747.83	-150.4
3750.523	-139.4
3753.213	-145.4
3755.902	-138.4
3758.589	-142.4
3761.273	-131.4
3763.956	-139.4
3766.636	-142.4
3769.315	-139.4
3771.991	-141.4
3774.665	-144.4
3777.338	-139.4
3780.008	-138.4
3782.677	-144.4
3785.343	-142.4
3788.007	-143.4
3790.67	-145.4
3793.33	-141.4
3795.989	-142.4
3798.645	-138.4
3801.299	-142.4
3803.952	-151.4
3806.602	-145.4
3809.251	-152.4
3811.897	-153.4
3814.542	-149.4
3817.184	-141.4
3819.825	-145.4
3822.463	-145.4
3825.1	-142.4
3827.735	-148.4
3830.367	-147.4
3832.998	-146.4
3835.627	-148.4
3838.253	-141.4
3840.878	-145.4
3843.501	-142.4
3846.122	-152.4
3848.741	-152.4
3851.358	-148.4
3853.973	-152.4
3856.586	-146.4
3859.197	-150.4
3861.806	-143.4
3864.414	-150.4
3867.019	-146.4
3869.622	-146.4
3872.224	-134.4
3874.823	-124.4
3877.421	-112.4
3880.016	-90.4
3882.61	-56.4
3885.202	-49.4
3887.792	-74.4
3890.38	-107.4
3892.966	-131.4
3895.55	-142.4
3898.132	-143.4
3900.713	-146.4
3903.291	-153.4
3905.868	-151.4
3908.442	-148.4
3911.015	-152.4
3913.586	-150.4
3916.155	-150.4
3918.722	-149.4
3921.287	-149.4
3923.85	-153.4
3926.411	-157.4
3928.971	-146.4
3931.528	-154.4
3934.084	-142.4
3936.638	-144.4
3939.19	-152.4
3941.74	-151.4
3944.288	-153.4
3946.834	-151.4
3949.378	-150.4
3951.921	-154.4
3954.462	-155.4
3957	-149.4
3959.537	-146.4
3962.072	-153.4
3964.606	-148.4
3967.137	-148.4
3969.667	-150.4
3972.194	-151.4
3974.72	-151.4
3977.244	-152.4
3979.766	-148.4
3982.286	-147.4
3984.805	-152.4
3987.321	-146.4
3989.836	-138.4
3992.349	-152.4
3994.86	-146.4
3997.369	-154.4
3999.877	-148.4
4002.382	-145.4
4004.886	-152.4
4007.388	-145.4
4009.888	-141.4
4012.386	-149.4
4014.883	-150.4
4017.377	-154.4
4019.87	-150.4
4022.361	-154.4
4024.85	-147.4
4027.338	-150.4
4029.823	-143.4
4032.307	-144.4
4034.789	-150.4
4037.269	-154.4
4039.747	-155.4
4042.224	-144.4
4044.699	-150.4
4047.172	-140.4
4049.643	-142.4
4052.112	-151.4
4054.58	-150.4
4057.046	-150.4
4059.51	-150.4
4061.972	-143.4
4064.432	-142.4
4066.891	-144.4
4069.348	-146.4
4071.803	-154.4
4074.256	-147.4
4076.708	-147.4
4079.158	-144.4
4081.606	-137.4
4084.052	-146.4
4086.497	-144.4
4088.939	-140.4
4091.38	-148.4
4093.819	-149.4
4096.257	-155.4
4098.693	-151.4
4101.127	-156.4
4103.559	-150.4
4105.989	17.6
4108.418	7.6
4110.845	4.6
4113.27	2.6
4115.694	-1.4
4118.115	-2.4
4120.535	-150.4
4122.954	-151.4
4125.37	-144.4
4127.785	-145.4
4130.198	-148.4
4132.609	-145.4
4135.019	-157.4
4137.427	-157.4
4139.833	-155.4
4142.237	-155.4
