Data from 2018-2-8_conc=2_n=7_RamanShift_04.txt Node
Date: Mon Mar 12 14:17:28 IST 2018
User: aro
Spectrometer: QEPB0276
Trigger mode: 0
Integration Time (sec): 3.000000E1
Scans to average: 1
Electric dark correction enabled: true
Nonlinearity correction enabled: false
Boxcar width: 0
XAxis mode: Raman Shifts
Number of Pixels in Spectrum: 1044
>>>>>Begin Spectral Data<<<<<
160.701	11.6
166.742	40.6
172.777	133.6
178.805	410.6
184.826	1144.6
190.841	2470.6
196.849	4141.6
202.85	5431.6
208.845	5951.6
214.833	5931.6
220.815	5888.6
226.789	5815.6
232.758	5837.6
238.719	5821.6
244.674	5796.6
250.623	5734.6
256.565	5657.6
262.5	5569.6
268.429	5507.6
274.351	5459.6
280.267	5416.6
286.176	5357.6
292.079	5308.6
297.975	5310.6
303.865	5272.6
309.748	5283.6
315.625	5252.6
321.495	5249.6
327.359	5211.6
333.217	5214.6
339.068	5226.6
344.912	5261.6
350.751	5222.6
356.583	5252.6
362.408	5265.6
368.227	5233.6
374.04	5277.6
379.847	5279.6
385.647	5297.6
391.44	5300.6
397.228	5354.6
403.009	5386.6
408.784	5383.6
414.553	5427.6
420.315	5430.6
426.071	5416.6
431.821	5431.6
437.565	5405.6
443.302	5406.6
449.033	5375.6
454.758	5343.6
460.477	5334.6
466.189	5366.6
471.896	5290.6
477.596	5250.6
483.29	5243.6
488.978	5219.6
494.66	5238.6
500.335	5170.6
506.005	5052.6
511.668	4913.6
517.325	4812.6
522.977	4715.6
528.622	4603.6
534.261	4574.6
539.894	4505.6
545.521	4485.6
551.141	4468.6
556.756	4408.6
562.365	4400.6
567.968	4376.6
573.565	4337.6
579.155	4297.6
584.74	4303.6
590.319	4285.6
595.892	4297.6
601.459	4243.6
607.02	4268.6
612.575	4235.6
618.124	4181.6
623.667	4157.6
629.204	4140.6
634.735	4070.6
640.261	4060.6
645.781	4043.6
651.294	4048.6
656.802	4049.6
662.304	4014.6
667.8	3987.6
673.29	4002.6
678.775	3999.6
684.254	3976.6
689.726	3950.6
695.193	3948.6
700.655	3912.6
706.11	3903.6
711.56	3868.6
717.004	3834.6
722.442	3841.6
727.874	3820.6
733.301	3823.6
738.722	3807.6
744.137	3790.6
749.547	3776.6
754.951	3768.6
760.349	3786.6
765.741	3774.6
771.128	3804.6
776.509	3824.6
781.885	3832.6
787.254	3815.6
792.618	3857.6
797.977	3803.6
803.33	3770.6
808.677	3768.6
814.019	3709.6
819.355	3711.6
824.686	3687.6
830.011	3659.6
835.33	3674.6
840.644	3624.6
845.952	3614.6
851.255	3629.6
856.552	3628.6
861.844	3610.6
867.13	3616.6
872.41	3592.6
877.686	3544.6
882.955	3519.6
888.219	3522.6
893.478	3455.6
898.731	3413.6
903.979	3374.6
909.221	3337.6
914.458	3341.6
919.69	3350.6
924.916	3322.6
930.136	3356.6
935.351	3334.6
940.561	3363.6
945.766	3334.6
950.965	3308.6
956.158	3293.6
961.347	3272.6
966.529	3227.6
971.707	3181.6
976.879	3139.6
982.046	3105.6
987.208	3073.6
992.364	3091.6
997.515	3116.6
1002.66	3130.6
1007.801	3144.6
1012.936	3188.6
1018.066	3199.6
1023.19	3205.6
1028.309	3172.6
1033.423	3193.6
1038.532	3189.6
1043.636	3144.6
1048.734	3114.6
1053.827	3081.6
1058.915	3045.6
1063.998	3003.6
1069.075	2998.6
1074.147	3013.6
1079.214	3037.6
1084.276	3015.6
1089.333	3044.6
1094.385	3049.6
1099.431	3052.6
1104.472	3037.6
1109.509	3039.6
1114.54	3007.6
1119.565	2965.6
1124.586	2916.6
1129.602	2887.6
1134.613	2858.6
1139.618	2823.6
1144.619	2825.6
1149.614	2828.6
1154.604	2847.6
1159.589	2844.6
1164.57	2860.6
1169.545	2875.6
1174.515	2868.6
1179.48	2842.6
1184.44	2819.6
1189.395	2800.6
1194.345	2763.6
1199.29	2768.6
1204.23	2761.6
1209.165	2753.6
1214.095	2755.6
1219.021	2797.6
1223.941	2811.6
1228.856	2803.6
1233.766	2831.6
1238.672	2850.6
1243.572	2834.6
1248.467	2785.6
1253.358	2785.6
1258.244	2739.6
1263.124	2702.6
1268	2633.6
1272.871	2605.6
1277.737	2595.6
1282.599	2585.6
1287.455	2585.6
1292.306	2600.6
1297.153	2622.6
1301.995	2611.6
1306.832	2625.6
1311.664	2644.6
1316.491	2646.6
1321.314	2638.6
1326.132	2628.6
1330.945	2608.6
1335.753	2550.6
1340.556	2524.6
1345.354	2462.6
1350.148	2416.6
1354.937	2402.6
1359.722	2367.6
1364.501	2320.6
1369.276	2291.6
1374.046	2252.6
1378.811	2207.6
1383.572	2206.6
1388.327	2187.6
1393.079	2219.6
1397.825	2207.6
1402.567	2198.6
1407.304	2227.6
1412.036	2221.6
1416.764	2215.6
1421.487	2221.6
1426.205	2222.6
1430.919	2227.6
1435.628	2250.6
1440.333	2250.6
1445.032	2275.6
1449.727	2291.6
1454.418	2303.6
1459.104	2299.6
1463.785	2258.6
1468.462	2232.6
1473.134	2178.6
1477.802	2139.6
1482.465	2070.6
1487.123	2062.6
1491.777	2022.6
1496.426	2006.6
1501.071	1991.6
1505.711	1964.6
1510.347	1963.6
1514.978	1944.6
1519.604	1958.6
1524.226	1946.6
1528.844	1938.6
1533.457	1927.6
1538.065	1931.6
1542.669	1923.6
1547.269	1914.6
1551.864	1940.6
1556.454	1936.6
1561.041	1952.6
1565.622	1975.6
1570.199	1962.6
1574.772	1989.6
1579.34	2009.6
1583.904	2044.6
1588.464	2055.6
1593.019	2065.6
1597.569	2058.6
1602.115	2071.6
1606.657	2055.6
1611.195	2041.6
1615.728	2052.6
1620.256	2033.6
1624.78	2027.6
1629.3	2045.6
1633.816	2029.6
1638.327	2042.6
1642.834	2053.6
1647.336	2059.6
1651.834	2065.6
1656.328	2056.6
1660.817	2061.6
1665.302	2065.6
1669.783	2003.6
1674.259	1972.6
1678.732	1918.6
1683.199	1862.6
1687.663	1798.6
1692.122	1733.6
1696.577	1662.6
1701.028	1599.6
1705.474	1549.6
1709.917	1485.6
1714.355	1447.6
1718.788	1458.6
1723.218	1469.6
1727.643	1452.6
1732.064	1462.6
1736.481	1440.6
1740.893	1412.6
1745.301	1378.6
1749.705	1358.6
1754.105	1319.6
1758.501	1327.6
1762.893	1284.6
1767.28	1282.6
1771.663	1255.6
1776.042	1259.6
1780.417	1236.6
1784.787	1216.6
1789.154	1212.6
1793.516	1195.6
1797.874	1178.6
1802.228	1164.6
1806.578	1149.6
1810.924	1138.6
1815.266	1123.6
1819.603	1118.6
1823.937	1127.6
1828.266	1125.6
1832.591	1111.6
1836.913	1136.6
1841.23	1131.6
1845.543	1135.6
1849.852	1120.6
1854.156	1121.6
1858.457	1126.6
1862.754	1130.6
1867.047	1120.6
1871.335	1114.6
1875.62	1129.6
1879.9	1140.6
1884.177	1104.6
1888.449	1112.6
1892.718	1081.6
1896.982	1074.6
1901.243	1049.6
1905.499	1040.6
1909.752	1045.6
1914	1019.6
1918.245	1012.6
1922.485	995.6
1926.722	977.6
1930.954	978.6
1935.183	965.6
1939.408	964.6
1943.628	953.6
1947.845	955.6
1952.058	931.6
1956.267	923.6
1960.472	920.6
1964.673	921.6
1968.87	908.6
1973.063	910.6
1977.252	898.6
1981.438	914.6
1985.619	896.6
1989.797	900.6
1993.971	903.6
1998.14	919.6
2002.306	910.6
2006.469	932.6
2010.627	917.6
2014.781	926.6
2018.932	916.6
2023.078	903.6
2027.221	908.6
2031.36	899.6
2035.495	892.6
2039.627	871.6
2043.754	851.6
2047.878	840.6
2051.998	843.6
2056.114	846.6
2060.226	829.6
2064.334	845.6
2068.439	846.6
2072.54	836.6
2076.637	833.6
2080.73	834.6
2084.82	827.6
2088.906	811.6
2092.988	810.6
2097.066	793.6
2101.14	792.6
2105.211	778.6
2109.278	755.6
2113.342	745.6
2117.401	736.6
2121.457	744.6
2125.509	744.6
2129.558	733.6
2133.602	735.6
2137.643	748.6
2141.681	740.6
2145.714	735.6
2149.744	736.6
2153.77	737.6
2157.793	731.6
2161.812	738.6
2165.827	728.6
2169.838	717.6
2173.846	693.6
2177.851	686.6
2181.851	668.6
2185.848	664.6
2189.841	673.6
2193.831	671.6
2197.817	664.6
2201.799	662.6
2205.778	660.6
2209.753	711.6
2213.725	687.6
2217.693	659.6
2221.657	648.6
2225.618	656.6
2229.575	645.6
2233.529	649.6
2237.479	639.6
2241.425	632.6
2245.368	615.6
2249.307	606.6
2253.243	599.6
2257.175	595.6
2261.104	584.6
2265.029	567.6
2268.95	572.6
2272.868	560.6
2276.783	551.6
2280.694	560.6
2284.601	536.6
2288.505	542.6
2292.405	527.6
2296.302	526.6
2300.195	530.6
2304.085	520.6
2307.971	501.6
2311.854	511.6
2315.734	477.6
2319.609	481.6
2323.482	487.6
2327.351	479.6
2331.216	497.6
2335.078	514.6
2338.937	488.6
2342.792	457.6
2346.643	468.6
2350.492	469.6
2354.336	473.6
2358.178	479.6
2362.015	472.6
2365.85	471.6
2369.681	479.6
2373.508	473.6
2377.333	479.6
2381.153	471.6
2384.971	482.6
2388.785	469.6
2392.595	465.6
2396.402	468.6
2400.206	456.6
2404.007	447.6
2407.804	452.6
2411.597	447.6
2415.388	453.6
2419.174	441.6
2422.958	451.6
2426.738	452.6
2430.515	437.6
2434.289	442.6
2438.059	427.6
2441.825	431.6
2445.589	438.6
2449.349	422.6
2453.106	415.6
2456.859	415.6
2460.61	422.6
2464.356	405.6
2468.1	392.6
2471.84	391.6
2475.577	394.6
2479.311	370.6
2483.041	377.6
2486.768	382.6
2490.492	380.6
2494.213	384.6
2497.93	370.6
2501.644	359.6
2505.355	358.6
2509.062	358.6
2512.766	363.6
2516.467	352.6
2520.165	349.6
2523.859	339.6
2527.551	346.6
2531.239	334.6
2534.923	326.6
2538.605	324.6
2542.283	316.6
2545.958	315.6
2549.63	317.6
2553.299	318.6
2556.964	312.6
2560.626	311.6
2564.285	299.6
2567.941	301.6
2571.594	296.6
2575.243	295.6
2578.89	291.6
2582.533	280.6
2586.173	281.6
2589.809	279.6
2593.443	280.6
2597.073	270.6
2600.701	265.6
2604.325	264.6
2607.946	260.6
2611.564	267.6
2615.178	261.6
2618.79	265.6
2622.398	262.6
2626.004	266.6
2629.606	254.6
2633.205	249.6
2636.801	248.6
2640.394	248.6
2643.983	251.6
2647.57	253.6
2651.153	247.6
2654.734	248.6
2658.311	227.6
2661.885	231.6
2665.456	237.6
2669.025	234.6
2672.589	232.6
2676.151	229.6
2679.71	227.6
2683.266	214.6
2686.819	221.6
2690.368	212.6
2693.915	199.6
2697.458	204.6
2700.999	205.6
2704.536	208.6
2708.071	199.6
2711.602	191.6
2715.13	184.6
2718.656	178.6
2722.178	188.6
2725.697	176.6
2729.214	178.6
2732.727	186.6
2736.237	174.6
2739.744	168.6
2743.249	170.6
2746.75	170.6
2750.248	151.6
2753.743	157.6
2757.236	164.6
2760.725	148.6
2764.211	139.6
2767.695	146.6
2771.175	136.6
2774.652	140.6
2778.127	145.6
2781.598	146.6
2785.067	141.6
2788.532	149.6
2791.995	142.6
2795.455	143.6
2798.911	138.6
2802.365	143.6
2805.816	150.6
2809.264	147.6
2812.709	149.6
2816.151	144.6
2819.59	147.6
2823.026	149.6
2826.46	136.6
2829.89	149.6
2833.318	139.6
2836.742	150.6
2840.164	148.6
2843.583	144.6
2846.999	155.6
2850.412	146.6
2853.822	147.6
2857.229	150.6
2860.634	157.6
2864.035	161.6
2867.434	169.6
2870.83	175.6
2874.223	185.6
2877.613	179.6
2881	194.6
2884.385	191.6
2887.766	181.6
2891.145	194.6
2894.521	188.6
2897.894	197.6
2901.264	198.6
2904.631	194.6
2907.996	189.6
2911.358	189.6
2914.717	203.6
2918.073	211.6
2921.426	220.6
2924.777	227.6
2928.124	231.6
2931.469	225.6
2934.811	238.6
2938.15	241.6
2941.487	238.6
2944.821	241.6
2948.152	247.6
2951.48	241.6
2954.805	253.6
2958.128	232.6
2961.447	239.6
2964.765	236.6
2968.079	230.6
2971.39	232.6
2974.699	237.6
2978.005	242.6
2981.308	248.6
2984.609	243.6
2987.907	231.6
2991.202	247.6
2994.494	238.6
2997.784	246.6
3001.07	253.6
3004.355	264.6
3007.636	252.6
3010.915	271.6
3014.191	261.6
3017.464	271.6
3020.734	271.6
3024.002	272.6
3027.267	285.6
3030.53	289.6
3033.789	298.6
3037.046	304.6
3040.301	312.6
3043.552	318.6
3046.801	317.6
3050.048	333.6
3053.291	343.6
3056.532	356.6
3059.771	378.6
3063.006	386.6
3066.239	393.6
3069.469	402.6
3072.697	415.6
3075.922	426.6
3079.144	440.6
3082.364	448.6
3085.581	458.6
3088.795	464.6
3092.007	468.6
3095.216	491.6
3098.423	491.6
3101.627	503.6
3104.828	520.6
3108.026	528.6
3111.222	539.6
3114.416	548.6
3117.607	557.6
3120.795	566.6
3123.98	567.6
3127.163	584.6
3130.344	622.6
3133.521	619.6
3136.696	632.6
3139.869	650.6
3143.039	647.6
3146.206	658.6
3149.371	683.6
3152.533	689.6
3155.693	695.6
3158.85	695.6
3162.005	703.6
3165.157	702.6
3168.306	699.6
3171.453	717.6
3174.597	720.6
3177.739	721.6
3180.878	719.6
3184.014	726.6
3187.149	727.6
3190.28	735.6
3193.409	728.6
3196.536	735.6
3199.659	744.6
3202.781	740.6
3205.9	745.6
3209.016	749.6
3212.13	755.6
3215.241	728.6
3218.35	731.6
3221.456	714.6
3224.56	726.6
3227.661	711.6
3230.76	695.6
3233.856	681.6
3236.95	675.6
3240.041	679.6
3243.13	655.6
3246.216	651.6
3249.3	647.6
3252.382	634.6
3255.46	630.6
3258.537	630.6
3261.611	612.6
3264.682	605.6
3267.751	609.6
3270.818	604.6
3273.882	604.6
3276.943	594.6
3280.002	595.6
3283.059	582.6
3286.113	586.6
3289.165	582.6
3292.214	575.6
3295.261	566.6
3298.306	558.6
3301.348	553.6
3304.387	556.6
3307.425	542.6
3310.459	535.6
3313.492	528.6
3316.521	523.6
3319.549	524.6
3322.574	512.6
3325.597	517.6
3328.617	514.6
3331.635	510.6
3334.65	518.6
3337.663	498.6
3340.674	505.6
3343.682	501.6
3346.688	493.6
3349.691	491.6
3352.692	502.6
3355.691	497.6
3358.687	500.6
3361.681	492.6
3364.673	484.6
3367.662	477.6
3370.649	453.6
3373.633	462.6
3376.615	453.6
3379.595	445.6
3382.572	437.6
3385.547	433.6
3388.52	421.6
3391.49	418.6
3394.458	401.6
3397.424	399.6
3400.387	402.6
3403.348	404.6
3406.307	381.6
3409.263	388.6
3412.217	372.6
3415.168	370.6
3418.118	362.6
3421.065	357.6
3424.009	358.6
3426.951	356.6
3429.891	344.6
3432.829	326.6
3435.764	328.6
3438.697	318.6
3441.628	316.6
3444.557	297.6
3447.483	291.6
3450.407	276.6
3453.328	268.6
3456.247	260.6
3459.164	243.6
3462.079	234.6
3464.991	221.6
3467.902	220.6
3470.809	219.6
3473.715	196.6
3476.618	187.6
3479.519	185.6
3482.418	174.6
3485.315	166.6
3488.209	154.6
3491.101	155.6
3493.99	155.6
3496.878	144.6
3499.763	124.6
3502.646	121.6
3505.527	108.6
3508.405	110.6
3511.281	98.6
3514.155	106.6
3517.027	94.6
3519.897	78.6
3522.764	69.6
3525.629	68.6
3528.492	52.6
3531.352	48.6
3534.211	33.6
3537.067	29.6
3539.921	38.6
3542.773	27.6
3545.622	16.6
3548.469	7.6
3551.315	2.6
3554.157	3.6
3556.998	-9.4
3559.837	-7.4
3562.673	-6.4
3565.507	-5.4
3568.339	-18.4
3571.169	-20.4
3573.996	-30.4
3576.822	-34.4
3579.645	-30.4
3582.466	-32.4
3585.285	-40.4
3588.101	-34.4
3590.916	-47.4
3593.728	-56.4
3596.538	-53.4
3599.346	-59.4
3602.152	-62.4
3604.956	-57.4
3607.757	-58.4
3610.556	-68.4
3613.354	-63.4
3616.149	-74.4
3618.942	-82.4
3621.732	-75.4
3624.521	-80.4
3627.307	-74.4
3630.092	-81.4
3632.874	-78.4
3635.654	-84.4
3638.432	-89.4
3641.208	-90.4
3643.982	-99.4
3646.753	-104.4
3649.523	-94.4
3652.29	-87.4
3655.055	-93.4
3657.818	-97.4
3660.579	-100.4
3663.338	-101.4
3666.095	-103.4
3668.849	-110.4
3671.602	-106.4
3674.352	-109.4
3677.101	-112.4
3679.847	-111.4
3682.591	-118.4
3685.333	-110.4
3688.073	-116.4
3690.811	-116.4
3693.547	-127.4
3696.281	-117.4
3699.013	-119.4
3701.742	-122.4
3704.47	-121.4
3707.195	-120.4
3709.919	-122.4
3712.64	-122.4
3715.359	-127.4
3718.076	-125.4
3720.792	-127.4
3723.505	-130.4
3726.216	-125.4
3728.925	-131.4
3731.632	-127.4
3734.336	-133.4
3737.039	-127.4
3739.74	-135.4
3742.439	-139.4
3745.136	-128.4
3747.83	-134.4
3750.523	-129.4
3753.213	-128.4
3755.902	-131.4
3758.589	-136.4
3761.273	-127.4
3763.956	-127.4
3766.636	-137.4
3769.315	-130.4
3771.991	-131.4
3774.665	-137.4
3777.338	-130.4
3780.008	-133.4
3782.677	-140.4
3785.343	-137.4
3788.007	-136.4
3790.67	-134.4
3793.33	-130.4
3795.989	-135.4
3798.645	-129.4
3801.299	-136.4
3803.952	-143.4
3806.602	-135.4
3809.251	-143.4
3811.897	-141.4
3814.542	-140.4
3817.184	-129.4
3819.825	-136.4
3822.463	-137.4
3825.1	-140.4
3827.735	-140.4
3830.367	-142.4
3832.998	-143.4
3835.627	-135.4
3838.253	-138.4
3840.878	-143.4
3843.501	-137.4
3846.122	-143.4
3848.741	-143.4
3851.358	-131.4
3853.973	-142.4
3856.586	-141.4
3859.197	-143.4
3861.806	-134.4
3864.414	-141.4
3867.019	-141.4
3869.622	-137.4
3872.224	-132.4
3874.823	-121.4
3877.421	-107.4
3880.016	-90.4
3882.61	-73.4
3885.202	-74.4
3887.792	-89.4
3890.38	-106.4
3892.966	-130.4
3895.55	-132.4
3898.132	-132.4
3900.713	-138.4
3903.291	-144.4
3905.868	-139.4
3908.442	-140.4
3911.015	-143.4
3913.586	-142.4
3916.155	-139.4
3918.722	-137.4
3921.287	-145.4
3923.85	-138.4
3926.411	-144.4
3928.971	-138.4
3931.528	-149.4
3934.084	-138.4
3936.638	-136.4
3939.19	-144.4
3941.74	-141.4
3944.288	-145.4
3946.834	-140.4
3949.378	-139.4
3951.921	-144.4
3954.462	-146.4
3957	-141.4
3959.537	-136.4
3962.072	-140.4
3964.606	-141.4
3967.137	-140.4
3969.667	-141.4
3972.194	-143.4
3974.72	-138.4
3977.244	-139.4
3979.766	-139.4
3982.286	-137.4
3984.805	-145.4
3987.321	-141.4
3989.836	-139.4
3992.349	-140.4
3994.86	-139.4
3997.369	-141.4
3999.877	-138.4
4002.382	-137.4
4004.886	-142.4
4007.388	-140.4
4009.888	-138.4
4012.386	-144.4
4014.883	-140.4
4017.377	-140.4
4019.87	-137.4
4022.361	-139.4
4024.85	-139.4
4027.338	-137.4
4029.823	-137.4
4032.307	-138.4
4034.789	-142.4
4037.269	-138.4
4039.747	-136.4
4042.224	-139.4
4044.699	-139.4
4047.172	-138.4
4049.643	-141.4
4052.112	-139.4
4054.58	-140.4
4057.046	-142.4
4059.51	-141.4
4061.972	-134.4
4064.432	-140.4
4066.891	-140.4
4069.348	-138.4
4071.803	-144.4
4074.256	-141.4
4076.708	-132.4
4079.158	-136.4
4081.606	-130.4
4084.052	-140.4
4086.497	-138.4
4088.939	-134.4
4091.38	-143.4
4093.819	-146.4
4096.257	-147.4
4098.693	-145.4
4101.127	-148.4
4103.559	-145.4
4105.989	-15.4
4108.418	-14.4
4110.845	-19.4
4113.27	-16.4
4115.694	-17.4
4118.115	-15.4
4120.535	-140.4
4122.954	-146.4
4125.37	-135.4
4127.785	-145.4
4130.198	-139.4
4132.609	-139.4
4135.019	-145.4
4137.427	-151.4
4139.833	-150.4
4142.237	-149.4
