Data from 2018-2-8_conc=5_n=8_RamanShift_03.txt Node
Date: Mon Mar 12 16:14:58 IST 2018
User: aro
Spectrometer: QEPB0276
Trigger mode: 0
Integration Time (sec): 3.000000E1
Scans to average: 1
Electric dark correction enabled: true
Nonlinearity correction enabled: false
Boxcar width: 0
XAxis mode: Raman Shifts
Number of Pixels in Spectrum: 1044
>>>>>Begin Spectral Data<<<<<
160.701	11.6
166.742	30.6
172.777	104.6
178.805	323.6
184.826	846.6
190.841	1843.6
196.849	3063.6
202.85	4055.6
208.845	4391.6
214.833	4432.6
220.815	4339.6
226.789	4332.6
232.758	4357.6
238.719	4343.6
244.674	4338.6
250.623	4311.6
256.565	4244.6
262.5	4175.6
268.429	4140.6
274.351	4098.6
280.267	4047.6
286.176	4055.6
292.079	4035.6
297.975	4029.6
303.865	4044.6
309.748	4010.6
315.625	3989.6
321.495	3981.6
327.359	3975.6
333.217	3989.6
339.068	3975.6
344.912	4016.6
350.751	4006.6
356.583	4013.6
362.408	4041.6
368.227	4035.6
374.04	4070.6
379.847	4059.6
385.647	4105.6
391.44	4109.6
397.228	4115.6
403.009	4139.6
408.784	4144.6
414.553	4158.6
420.315	4159.6
426.071	4188.6
431.821	4178.6
437.565	4180.6
443.302	4171.6
449.033	4178.6
454.758	4123.6
460.477	4102.6
466.189	4095.6
471.896	4034.6
477.596	4045.6
483.29	4021.6
488.978	4019.6
494.66	3995.6
500.335	3960.6
506.005	3848.6
511.668	3703.6
517.325	3599.6
522.977	3504.6
528.622	3435.6
534.261	3362.6
539.894	3351.6
545.521	3283.6
551.141	3287.6
556.756	3245.6
562.365	3238.6
567.968	3215.6
573.565	3195.6
579.155	3176.6
584.74	3193.6
590.319	3156.6
595.892	3168.6
601.459	3125.6
607.02	3139.6
612.575	3115.6
618.124	3088.6
623.667	3066.6
629.204	3034.6
634.735	3004.6
640.261	2997.6
645.781	2963.6
651.294	2934.6
656.802	2939.6
662.304	2916.6
667.8	2931.6
673.29	2898.6
678.775	2909.6
684.254	2909.6
689.726	2894.6
695.193	2869.6
700.655	2870.6
706.11	2853.6
711.56	2839.6
717.004	2829.6
722.442	2797.6
727.874	2811.6
733.301	2773.6
738.722	2754.6
744.137	2762.6
749.547	2774.6
754.951	2755.6
760.349	2785.6
765.741	2753.6
771.128	2773.6
776.509	2794.6
781.885	2790.6
787.254	2803.6
792.618	2821.6
797.977	2807.6
803.33	2794.6
808.677	2757.6
814.019	2775.6
819.355	2725.6
824.686	2721.6
830.011	2678.6
835.33	2673.6
840.644	2699.6
845.952	2672.6
851.255	2682.6
856.552	2655.6
861.844	2639.6
867.13	2630.6
872.41	2629.6
877.686	2587.6
882.955	2584.6
888.219	2544.6
893.478	2520.6
898.731	2462.6
903.979	2464.6
909.221	2425.6
914.458	2427.6
919.69	2408.6
924.916	2418.6
930.136	2455.6
935.351	2442.6
940.561	2437.6
945.766	2429.6
950.965	2412.6
956.158	2407.6
961.347	2396.6
966.529	2351.6
971.707	2302.6
976.879	2299.6
982.046	2255.6
987.208	2266.6
992.364	2254.6
997.515	2273.6
1002.66	2281.6
1007.801	2288.6
1012.936	2307.6
1018.066	2323.6
1023.19	2323.6
1028.309	2348.6
1033.423	2318.6
1038.532	2322.6
1043.636	2312.6
1048.734	2303.6
1053.827	2249.6
1058.915	2233.6
1063.998	2228.6
1069.075	2222.6
1074.147	2202.6
1079.214	2210.6
1084.276	2204.6
1089.333	2233.6
1094.385	2261.6
1099.431	2227.6
1104.472	2220.6
1109.509	2211.6
1114.54	2172.6
1119.565	2153.6
1124.586	2120.6
1129.602	2087.6
1134.613	2071.6
1139.618	2059.6
1144.619	2079.6
1149.614	2065.6
1154.604	2076.6
1159.589	2085.6
1164.57	2070.6
1169.545	2080.6
1174.515	2098.6
1179.48	2068.6
1184.44	2063.6
1189.395	2034.6
1194.345	2030.6
1199.29	2020.6
1204.23	2018.6
1209.165	1997.6
1214.095	2017.6
1219.021	2040.6
1223.941	2051.6
1228.856	2055.6
1233.766	2063.6
1238.672	2085.6
1243.572	2060.6
1248.467	2059.6
1253.358	2025.6
1258.244	1986.6
1263.124	1961.6
1268	1934.6
1272.871	1925.6
1277.737	1884.6
1282.599	1895.6
1287.455	1884.6
1292.306	1884.6
1297.153	1894.6
1301.995	1912.6
1306.832	1920.6
1311.664	1951.6
1316.491	1953.6
1321.314	1903.6
1326.132	1920.6
1330.945	1896.6
1335.753	1869.6
1340.556	1829.6
1345.354	1805.6
1350.148	1784.6
1354.937	1746.6
1359.722	1729.6
1364.501	1691.6
1369.276	1662.6
1374.046	1649.6
1378.811	1627.6
1383.572	1592.6
1388.327	1618.6
1393.079	1619.6
1397.825	1614.6
1402.567	1608.6
1407.304	1619.6
1412.036	1609.6
1416.764	1635.6
1421.487	1610.6
1426.205	1606.6
1430.919	1639.6
1435.628	1634.6
1440.333	1651.6
1445.032	1671.6
1449.727	1676.6
1454.418	1674.6
1459.104	1688.6
1463.785	1660.6
1468.462	1649.6
1473.134	1603.6
1477.802	1564.6
1482.465	1556.6
1487.123	1510.6
1491.777	1486.6
1496.426	1474.6
1501.071	1474.6
1505.711	1470.6
1510.347	1463.6
1514.978	1449.6
1519.604	1463.6
1524.226	1454.6
1528.844	1453.6
1533.457	1445.6
1538.065	1413.6
1542.669	1433.6
1547.269	1424.6
1551.864	1413.6
1556.454	1434.6
1561.041	1449.6
1565.622	1472.6
1570.199	1430.6
1574.772	1458.6
1579.34	1468.6
1583.904	1502.6
1588.464	1494.6
1593.019	1517.6
1597.569	1522.6
1602.115	1521.6
1606.657	1507.6
1611.195	1508.6
1615.728	1498.6
1620.256	1496.6
1624.78	1473.6
1629.3	1481.6
1633.816	1512.6
1638.327	1505.6
1642.834	1507.6
1647.336	1531.6
1651.834	1513.6
1656.328	1533.6
1660.817	1523.6
1665.302	1513.6
1669.783	1503.6
1674.259	1460.6
1678.732	1432.6
1683.199	1381.6
1687.663	1341.6
1692.122	1287.6
1696.577	1244.6
1701.028	1188.6
1705.474	1159.6
1709.917	1125.6
1714.355	1096.6
1718.788	1107.6
1723.218	1098.6
1727.643	1083.6
1732.064	1081.6
1736.481	1090.6
1740.893	1050.6
1745.301	1036.6
1749.705	1021.6
1754.105	1011.6
1758.501	983.6
1762.893	983.6
1767.28	960.6
1771.663	951.6
1776.042	935.6
1780.417	919.6
1784.787	921.6
1789.154	900.6
1793.516	919.6
1797.874	886.6
1802.228	881.6
1806.578	861.6
1810.924	861.6
1815.266	847.6
1819.603	856.6
1823.937	851.6
1828.266	842.6
1832.591	851.6
1836.913	849.6
1841.23	848.6
1845.543	838.6
1849.852	847.6
1854.156	837.6
1858.457	862.6
1862.754	856.6
1867.047	851.6
1871.335	843.6
1875.62	854.6
1879.9	845.6
1884.177	840.6
1888.449	836.6
1892.718	826.6
1896.982	816.6
1901.243	810.6
1905.499	798.6
1909.752	784.6
1914	773.6
1918.245	774.6
1922.485	757.6
1926.722	753.6
1930.954	755.6
1935.183	739.6
1939.408	731.6
1943.628	748.6
1947.845	731.6
1952.058	725.6
1956.267	730.6
1960.472	719.6
1964.673	703.6
1968.87	690.6
1973.063	695.6
1977.252	692.6
1981.438	689.6
1985.619	691.6
1989.797	683.6
1993.971	689.6
1998.14	688.6
2002.306	684.6
2006.469	690.6
2010.627	691.6
2014.781	696.6
2018.932	687.6
2023.078	682.6
2027.221	684.6
2031.36	686.6
2035.495	671.6
2039.627	666.6
2043.754	650.6
2047.878	644.6
2051.998	636.6
2056.114	635.6
2060.226	643.6
2064.334	632.6
2068.439	625.6
2072.54	623.6
2076.637	631.6
2080.73	629.6
2084.82	614.6
2088.906	623.6
2092.988	612.6
2097.066	613.6
2101.14	589.6
2105.211	595.6
2109.278	590.6
2113.342	577.6
2117.401	572.6
2121.457	563.6
2125.509	558.6
2129.558	561.6
2133.602	557.6
2137.643	566.6
2141.681	553.6
2145.714	558.6
2149.744	554.6
2153.77	561.6
2157.793	548.6
2161.812	539.6
2165.827	542.6
2169.838	529.6
2173.846	529.6
2177.851	521.6
2181.851	510.6
2185.848	506.6
2189.841	498.6
2193.831	506.6
2197.817	490.6
2201.799	485.6
2205.778	484.6
2209.753	489.6
2213.725	488.6
2217.693	492.6
2221.657	478.6
2225.618	486.6
2229.575	484.6
2233.529	475.6
2237.479	475.6
2241.425	467.6
2245.368	455.6
2249.307	449.6
2253.243	459.6
2257.175	426.6
2261.104	441.6
2265.029	423.6
2268.95	423.6
2272.868	419.6
2276.783	407.6
2280.694	403.6
2284.601	399.6
2288.505	405.6
2292.405	398.6
2296.302	381.6
2300.195	386.6
2304.085	374.6
2307.971	367.6
2311.854	374.6
2315.734	366.6
2319.609	354.6
2323.482	360.6
2327.351	360.6
2331.216	367.6
2335.078	379.6
2338.937	356.6
2342.792	341.6
2346.643	347.6
2350.492	350.6
2354.336	348.6
2358.178	338.6
2362.015	348.6
2365.85	348.6
2369.681	343.6
2373.508	358.6
2377.333	343.6
2381.153	346.6
2384.971	347.6
2388.785	348.6
2392.595	334.6
2396.402	335.6
2400.206	346.6
2404.007	339.6
2407.804	333.6
2411.597	330.6
2415.388	325.6
2419.174	326.6
2422.958	318.6
2426.738	323.6
2430.515	311.6
2434.289	322.6
2438.059	316.6
2441.825	303.6
2445.589	313.6
2449.349	296.6
2453.106	303.6
2456.859	301.6
2460.61	298.6
2464.356	293.6
2468.1	289.6
2471.84	283.6
2475.577	285.6
2479.311	273.6
2483.041	269.6
2486.768	281.6
2490.492	266.6
2494.213	282.6
2497.93	269.6
2501.644	269.6
2505.355	270.6
2509.062	260.6
2512.766	264.6
2516.467	257.6
2520.165	265.6
2523.859	254.6
2527.551	253.6
2531.239	243.6
2534.923	241.6
2538.605	232.6
2542.283	240.6
2545.958	239.6
2549.63	241.6
2553.299	233.6
2556.964	230.6
2560.626	226.6
2564.285	222.6
2567.941	219.6
2571.594	220.6
2575.243	220.6
2578.89	211.6
2582.533	207.6
2586.173	214.6
2589.809	208.6
2593.443	199.6
2597.073	196.6
2600.701	193.6
2604.325	200.6
2607.946	196.6
2611.564	189.6
2615.178	201.6
2618.79	195.6
2622.398	198.6
2626.004	183.6
2629.606	188.6
2633.205	176.6
2636.801	172.6
2640.394	177.6
2643.983	178.6
2647.57	178.6
2651.153	176.6
2654.734	170.6
2658.311	166.6
2661.885	163.6
2665.456	164.6
2669.025	168.6
2672.589	165.6
2676.151	166.6
2679.71	158.6
2683.266	157.6
2686.819	153.6
2690.368	148.6
2693.915	146.6
2697.458	136.6
2700.999	148.6
2704.536	151.6
2708.071	141.6
2711.602	136.6
2715.13	139.6
2718.656	133.6
2722.178	132.6
2725.697	123.6
2729.214	121.6
2732.727	134.6
2736.237	128.6
2739.744	130.6
2743.249	130.6
2746.75	119.6
2750.248	111.6
2753.743	117.6
2757.236	110.6
2760.725	114.6
2764.211	105.6
2767.695	106.6
2771.175	96.6
2774.652	96.6
2778.127	99.6
2781.598	99.6
2785.067	107.6
2788.532	106.6
2791.995	105.6
2795.455	97.6
2798.911	99.6
2802.365	109.6
2805.816	111.6
2809.264	108.6
2812.709	109.6
2816.151	106.6
2819.59	109.6
2823.026	99.6
2826.46	107.6
2829.89	105.6
2833.318	100.6
2836.742	105.6
2840.164	103.6
2843.583	107.6
2846.999	111.6
2850.412	102.6
2853.822	110.6
2857.229	113.6
2860.634	113.6
2864.035	118.6
2867.434	117.6
2870.83	127.6
2874.223	127.6
2877.613	130.6
2881	146.6
2884.385	136.6
2887.766	137.6
2891.145	125.6
2894.521	130.6
2897.894	138.6
2901.264	136.6
2904.631	141.6
2907.996	139.6
2911.358	133.6
2914.717	143.6
2918.073	150.6
2921.426	154.6
2924.777	154.6
2928.124	163.6
2931.469	148.6
2934.811	169.6
2938.15	161.6
2941.487	173.6
2944.821	170.6
2948.152	167.6
2951.48	171.6
2954.805	178.6
2958.128	168.6
2961.447	162.6
2964.765	172.6
2968.079	163.6
2971.39	167.6
2974.699	173.6
2978.005	165.6
2981.308	174.6
2984.609	171.6
2987.907	170.6
2991.202	175.6
2994.494	175.6
2997.784	165.6
3001.07	181.6
3004.355	184.6
3007.636	192.6
3010.915	186.6
3014.191	189.6
3017.464	191.6
3020.734	194.6
3024.002	191.6
3027.267	199.6
3030.53	202.6
3033.789	203.6
3037.046	209.6
3040.301	215.6
3043.552	225.6
3046.801	228.6
3050.048	238.6
3053.291	245.6
3056.532	255.6
3059.771	266.6
3063.006	261.6
3066.239	274.6
3069.469	292.6
3072.697	294.6
3075.922	309.6
3079.144	314.6
3082.364	327.6
3085.581	324.6
3088.795	322.6
3092.007	333.6
3095.216	334.6
3098.423	360.6
3101.627	369.6
3104.828	367.6
3108.026	377.6
3111.222	382.6
3114.416	390.6
3117.607	403.6
3120.795	402.6
3123.98	421.6
3127.163	442.6
3130.344	454.6
3133.521	439.6
3136.696	459.6
3139.869	467.6
3143.039	467.6
3146.206	480.6
3149.371	491.6
3152.533	491.6
3155.693	503.6
3158.85	493.6
3162.005	511.6
3165.157	506.6
3168.306	513.6
3171.453	506.6
3174.597	514.6
3177.739	505.6
3180.878	525.6
3184.014	521.6
3187.149	514.6
3190.28	523.6
3193.409	522.6
3196.536	528.6
3199.659	532.6
3202.781	536.6
3205.9	534.6
3209.016	532.6
3212.13	522.6
3215.241	517.6
3218.35	525.6
3221.456	515.6
3224.56	512.6
3227.661	504.6
3230.76	500.6
3233.856	490.6
3236.95	479.6
3240.041	478.6
3243.13	464.6
3246.216	459.6
3249.3	449.6
3252.382	451.6
3255.46	455.6
3258.537	442.6
3261.611	450.6
3264.682	433.6
3267.751	432.6
3270.818	429.6
3273.882	417.6
3276.943	422.6
3280.002	421.6
3283.059	423.6
3286.113	417.6
3289.165	411.6
3292.214	404.6
3295.261	395.6
3298.306	401.6
3301.348	394.6
3304.387	393.6
3307.425	375.6
3310.459	384.6
3313.492	355.6
3316.521	372.6
3319.549	359.6
3322.574	360.6
3325.597	365.6
3328.617	361.6
3331.635	354.6
3334.65	348.6
3337.663	350.6
3340.674	363.6
3343.682	363.6
3346.688	351.6
3349.691	358.6
3352.692	350.6
3355.691	346.6
3358.687	342.6
3361.681	345.6
3364.673	333.6
3367.662	327.6
3370.649	329.6
3373.633	317.6
3376.615	322.6
3379.595	304.6
3382.572	315.6
3385.547	303.6
3388.52	292.6
3391.49	297.6
3394.458	289.6
3397.424	274.6
3400.387	279.6
3403.348	278.6
3406.307	269.6
3409.263	253.6
3412.217	266.6
3415.168	260.6
3418.118	256.6
3421.065	254.6
3424.009	251.6
3426.951	235.6
3429.891	236.6
3432.829	222.6
3435.764	230.6
3438.697	221.6
3441.628	218.6
3444.557	207.6
3447.483	198.6
3450.407	193.6
3453.328	178.6
3456.247	172.6
3459.164	166.6
3462.079	158.6
3464.991	159.6
3467.902	155.6
3470.809	196.6
3473.715	135.6
3476.618	122.6
3479.519	122.6
3482.418	118.6
3485.315	103.6
3488.209	103.6
3491.101	91.6
3493.99	107.6
3496.878	91.6
3499.763	87.6
3502.646	77.6
3505.527	67.6
3508.405	66.6
3511.281	63.6
3514.155	57.6
3517.027	56.6
3519.897	51.6
3522.764	44.6
3525.629	42.6
3528.492	25.6
3531.352	26.6
3534.211	23.6
3537.067	11.6
3539.921	21.6
3542.773	11.6
3545.622	3.6
3548.469	0.6
3551.315	-1.4
3554.157	-8.4
3556.998	-13.4
3559.837	-9.4
3562.673	-16.4
3565.507	-14.4
3568.339	-20.4
3571.169	-31.4
3573.996	-34.4
3576.822	-30.4
3579.645	-27.4
3582.466	-27.4
3585.285	-40.4
3588.101	-30.4
3590.916	-47.4
3593.728	-51.4
3596.538	-50.4
3599.346	-53.4
3602.152	-47.4
3604.956	-48.4
3607.757	-49.4
3610.556	-59.4
3613.354	-51.4
3616.149	-65.4
3618.942	-69.4
3621.732	-65.4
3624.521	-67.4
3627.307	-64.4
3630.092	-61.4
3632.874	-61.4
3635.654	-76.4
3638.432	-70.4
3641.208	-74.4
3643.982	-79.4
3646.753	-80.4
3649.523	-83.4
3652.29	-80.4
3655.055	-78.4
3657.818	-88.4
3660.579	-82.4
3663.338	-83.4
3666.095	-88.4
3668.849	-86.4
3671.602	-82.4
3674.352	-87.4
3677.101	-91.4
3679.847	-93.4
3682.591	-98.4
3685.333	-87.4
3688.073	-90.4
3690.811	-88.4
3693.547	-104.4
3696.281	-97.4
3699.013	-97.4
3701.742	-97.4
3704.47	-98.4
3707.195	-96.4
3709.919	-99.4
3712.64	-97.4
3715.359	-103.4
3718.076	-102.4
3720.792	-106.4
3723.505	-108.4
3726.216	-98.4
3728.925	-101.4
3731.632	-100.4
3734.336	-111.4
3737.039	-101.4
3739.74	-104.4
3742.439	-116.4
3745.136	-101.4
3747.83	-110.4
3750.523	-109.4
3753.213	-105.4
3755.902	-102.4
3758.589	-108.4
3761.273	-106.4
3763.956	-106.4
3766.636	-110.4
3769.315	-104.4
3771.991	-105.4
3774.665	-110.4
3777.338	-103.4
3780.008	-105.4
3782.677	-109.4
3785.343	-109.4
3788.007	-109.4
3790.67	-109.4
3793.33	-105.4
3795.989	-108.4
3798.645	-102.4
3801.299	-108.4
3803.952	-116.4
3806.602	-104.4
3809.251	-117.4
3811.897	-113.4
3814.542	-114.4
3817.184	-105.4
3819.825	-104.4
3822.463	-109.4
3825.1	-105.4
3827.735	-108.4
3830.367	-116.4
3832.998	-114.4
3835.627	-115.4
3838.253	-111.4
3840.878	-106.4
3843.501	-108.4
3846.122	-112.4
3848.741	-117.4
3851.358	-107.4
3853.973	-118.4
3856.586	-114.4
3859.197	-117.4
3861.806	-108.4
3864.414	-115.4
3867.019	-106.4
3869.622	-110.4
3872.224	-104.4
3874.823	-97.4
3877.421	-91.4
3880.016	-66.4
3882.61	-50.4
3885.202	-47.4
3887.792	-63.4
3890.38	-89.4
3892.966	-109.4
3895.55	-106.4
3898.132	-112.4
3900.713	-109.4
3903.291	-111.4
3905.868	-115.4
3908.442	-109.4
3911.015	-111.4
3913.586	-116.4
3916.155	-122.4
3918.722	-113.4
3921.287	-114.4
3923.85	-112.4
3926.411	-114.4
3928.971	-110.4
3931.528	-116.4
3934.084	-107.4
3936.638	-114.4
3939.19	-118.4
3941.74	-122.4
3944.288	-117.4
3946.834	-109.4
3949.378	-111.4
3951.921	-114.4
3954.462	-119.4
3957	-118.4
3959.537	-112.4
3962.072	-115.4
3964.606	-111.4
3967.137	-109.4
3969.667	-114.4
3972.194	-115.4
3974.72	-110.4
3977.244	-114.4
3979.766	-118.4
3982.286	-115.4
3984.805	-116.4
3987.321	-110.4
3989.836	-106.4
3992.349	-115.4
3994.86	-114.4
3997.369	-113.4
3999.877	-116.4
4002.382	-110.4
4004.886	-116.4
4007.388	-110.4
4009.888	-109.4
4012.386	-117.4
4014.883	-114.4
4017.377	-112.4
4019.87	-111.4
4022.361	-118.4
4024.85	-114.4
4027.338	-108.4
4029.823	-109.4
4032.307	-106.4
4034.789	-114.4
4037.269	-114.4
4039.747	-107.4
4042.224	-112.4
4044.699	-112.4
4047.172	-113.4
4049.643	-105.4
4052.112	-106.4
4054.58	-116.4
4057.046	-113.4
4059.51	-116.4
4061.972	-108.4
4064.432	-107.4
4066.891	-114.4
4069.348	-106.4
4071.803	-111.4
4074.256	-113.4
4076.708	-108.4
4079.158	-108.4
4081.606	-106.4
4084.052	-112.4
4086.497	-112.4
4088.939	-102.4
4091.38	-98.4
4093.819	36.6
4096.257	-118.4
4098.693	-116.4
4101.127	-113.4
4103.559	-111.4
4105.989	-0.4
4108.418	-4.4
4110.845	-10.4
4113.27	-9.4
4115.694	-11.4
4118.115	-5.4
4120.535	9.6
4122.954	-105.4
4125.37	-111.4
4127.785	-114.4
4130.198	-113.4
4132.609	-111.4
4135.019	-115.4
4137.427	-118.4
4139.833	-119.4
4142.237	-117.4
