Data from 2018-2-8_conc=4_n=4_RamanShift_04.txt Node
Date: Mon Mar 12 15:23:28 IST 2018
User: aro
Spectrometer: QEPB0276
Trigger mode: 0
Integration Time (sec): 3.000000E1
Scans to average: 1
Electric dark correction enabled: true
Nonlinearity correction enabled: false
Boxcar width: 0
XAxis mode: Raman Shifts
Number of Pixels in Spectrum: 1044
>>>>>Begin Spectral Data<<<<<
160.701	11.4
166.742	40.4
172.777	121.4
178.805	365.4
184.826	1012.4
190.841	2180.4
196.849	3637.4
202.85	4764.4
208.845	5264.4
214.833	5271.4
220.815	5180.4
226.789	5157.4
232.758	5184.4
238.719	5191.4
244.674	5135.4
250.623	5083.4
256.565	5010.4
262.5	4935.4
268.429	4864.4
274.351	4800.4
280.267	4790.4
286.176	4776.4
292.079	4747.4
297.975	4715.4
303.865	4718.4
309.748	4688.4
315.625	4683.4
321.495	4670.4
327.359	4680.4
333.217	4688.4
339.068	4672.4
344.912	4675.4
350.751	4664.4
356.583	4678.4
362.408	4698.4
368.227	4695.4
374.04	4687.4
379.847	4739.4
385.647	4744.4
391.44	4787.4
397.228	4759.4
403.009	4800.4
408.784	4832.4
414.553	4870.4
420.315	4854.4
426.071	4870.4
431.821	4865.4
437.565	4841.4
443.302	4844.4
449.033	4805.4
454.758	4798.4
460.477	4780.4
466.189	4780.4
471.896	4731.4
477.596	4730.4
483.29	4717.4
488.978	4681.4
494.66	4670.4
500.335	4605.4
506.005	4536.4
511.668	4372.4
517.325	4238.4
522.977	4164.4
528.622	4091.4
534.261	4047.4
539.894	3988.4
545.521	3943.4
551.141	3933.4
556.756	3902.4
562.365	3896.4
567.968	3874.4
573.565	3863.4
579.155	3809.4
584.74	3817.4
590.319	3789.4
595.892	3774.4
601.459	3781.4
607.02	3756.4
612.575	3728.4
618.124	3705.4
623.667	3658.4
629.204	3642.4
634.735	3603.4
640.261	3564.4
645.781	3572.4
651.294	3561.4
656.802	3549.4
662.304	3548.4
667.8	3532.4
673.29	3534.4
678.775	3513.4
684.254	3508.4
689.726	3489.4
695.193	3478.4
700.655	3447.4
706.11	3443.4
711.56	3443.4
717.004	3395.4
722.442	3376.4
727.874	3377.4
733.301	3357.4
738.722	3361.4
744.137	3339.4
749.547	3330.4
754.951	3321.4
760.349	3343.4
765.741	3339.4
771.128	3332.4
776.509	3351.4
781.885	3370.4
787.254	3374.4
792.618	3390.4
797.977	3372.4
803.33	3354.4
808.677	3340.4
814.019	3315.4
819.355	3266.4
824.686	3232.4
830.011	3222.4
835.33	3231.4
840.644	3200.4
845.952	3237.4
851.255	3188.4
856.552	3228.4
861.844	3175.4
867.13	3176.4
872.41	3172.4
877.686	3132.4
882.955	3115.4
888.219	3110.4
893.478	3051.4
898.731	3018.4
903.979	2971.4
909.221	2937.4
914.458	2938.4
919.69	2927.4
924.916	2944.4
930.136	2959.4
935.351	2951.4
940.561	2944.4
945.766	2925.4
950.965	2929.4
956.158	2909.4
961.347	2886.4
966.529	2859.4
971.707	2810.4
976.879	2764.4
982.046	2741.4
987.208	2725.4
992.364	2734.4
997.515	2749.4
1002.66	2766.4
1007.801	2807.4
1012.936	2777.4
1018.066	2816.4
1023.19	2800.4
1028.309	2822.4
1033.423	2806.4
1038.532	2802.4
1043.636	2772.4
1048.734	2744.4
1053.827	2719.4
1058.915	2674.4
1063.998	2652.4
1069.075	2658.4
1074.147	2674.4
1079.214	2680.4
1084.276	2668.4
1089.333	2696.4
1094.385	2683.4
1099.431	2693.4
1104.472	2717.4
1109.509	2687.4
1114.54	2629.4
1119.565	2623.4
1124.586	2571.4
1129.602	2553.4
1134.613	2523.4
1139.618	2503.4
1144.619	2508.4
1149.614	2493.4
1154.604	2507.4
1159.589	2503.4
1164.57	2510.4
1169.545	2529.4
1174.515	2538.4
1179.48	2518.4
1184.44	2504.4
1189.395	2484.4
1194.345	2452.4
1199.29	2442.4
1204.23	2432.4
1209.165	2423.4
1214.095	2443.4
1219.021	2453.4
1223.941	2482.4
1228.856	2469.4
1233.766	2500.4
1238.672	2499.4
1243.572	2492.4
1248.467	2489.4
1253.358	2434.4
1258.244	2415.4
1263.124	2378.4
1268	2308.4
1272.871	2310.4
1277.737	2296.4
1282.599	2279.4
1287.455	2287.4
1292.306	2300.4
1297.153	2268.4
1301.995	2300.4
1306.832	2316.4
1311.664	2355.4
1316.491	2342.4
1321.314	2345.4
1326.132	2319.4
1330.945	2303.4
1335.753	2283.4
1340.556	2223.4
1345.354	2196.4
1350.148	2156.4
1354.937	2137.4
1359.722	2096.4
1364.501	2072.4
1369.276	2025.4
1374.046	1994.4
1378.811	1968.4
1383.572	1952.4
1388.327	1956.4
1393.079	1942.4
1397.825	1945.4
1402.567	1952.4
1407.304	1946.4
1412.036	1947.4
1416.764	1969.4
1421.487	1966.4
1426.205	1984.4
1430.919	1963.4
1435.628	1978.4
1440.333	1994.4
1445.032	2018.4
1449.727	2048.4
1454.418	2036.4
1459.104	2036.4
1463.785	1998.4
1468.462	1974.4
1473.134	1930.4
1477.802	1903.4
1482.465	1863.4
1487.123	1827.4
1491.777	1790.4
1496.426	1788.4
1501.071	1754.4
1505.711	1765.4
1510.347	1754.4
1514.978	1744.4
1519.604	1767.4
1524.226	1750.4
1528.844	1740.4
1533.457	1715.4
1538.065	1715.4
1542.669	1700.4
1547.269	1729.4
1551.864	1721.4
1556.454	1731.4
1561.041	1740.4
1565.622	1749.4
1570.199	1755.4
1574.772	1743.4
1579.34	1769.4
1583.904	1816.4
1588.464	1845.4
1593.019	1824.4
1597.569	1830.4
1602.115	1822.4
1606.657	1810.4
1611.195	1797.4
1615.728	1817.4
1620.256	1829.4
1624.78	1798.4
1629.3	1814.4
1633.816	1840.4
1638.327	1835.4
1642.834	1837.4
1647.336	1854.4
1651.834	1845.4
1656.328	1874.4
1660.817	1854.4
1665.302	1841.4
1669.783	1776.4
1674.259	1749.4
1678.732	1722.4
1683.199	1674.4
1687.663	1624.4
1692.122	1549.4
1696.577	1477.4
1701.028	1444.4
1705.474	1396.4
1709.917	1347.4
1714.355	1318.4
1718.788	1301.4
1723.218	1296.4
1727.643	1315.4
1732.064	1306.4
1736.481	1321.4
1740.893	1248.4
1745.301	1244.4
1749.705	1213.4
1754.105	1206.4
1758.501	1169.4
1762.893	1152.4
1767.28	1156.4
1771.663	1138.4
1776.042	1108.4
1780.417	1116.4
1784.787	1106.4
1789.154	1091.4
1793.516	1077.4
1797.874	1055.4
1802.228	1046.4
1806.578	1042.4
1810.924	1008.4
1815.266	1018.4
1819.603	1009.4
1823.937	1034.4
1828.266	1026.4
1832.591	1019.4
1836.913	1005.4
1841.23	1016.4
1845.543	1020.4
1849.852	1008.4
1854.156	1003.4
1858.457	1017.4
1862.754	1023.4
1867.047	1018.4
1871.335	1016.4
1875.62	1024.4
1879.9	1012.4
1884.177	1007.4
1888.449	1009.4
1892.718	980.4
1896.982	971.4
1901.243	963.4
1905.499	945.4
1909.752	932.4
1914	912.4
1918.245	910.4
1922.485	902.4
1926.722	898.4
1930.954	889.4
1935.183	896.4
1939.408	871.4
1943.628	870.4
1947.845	856.4
1952.058	860.4
1956.267	868.4
1960.472	847.4
1964.673	838.4
1968.87	820.4
1973.063	827.4
1977.252	808.4
1981.438	815.4
1985.619	816.4
1989.797	816.4
1993.971	830.4
1998.14	828.4
2002.306	822.4
2006.469	827.4
2010.627	823.4
2014.781	829.4
2018.932	827.4
2023.078	825.4
2027.221	807.4
2031.36	795.4
2035.495	801.4
2039.627	794.4
2043.754	776.4
2047.878	763.4
2051.998	770.4
2056.114	777.4
2060.226	744.4
2064.334	760.4
2068.439	749.4
2072.54	749.4
2076.637	745.4
2080.73	749.4
2084.82	741.4
2088.906	733.4
2092.988	730.4
2097.066	725.4
2101.14	715.4
2105.211	702.4
2109.278	688.4
2113.342	683.4
2117.401	673.4
2121.457	691.4
2125.509	666.4
2129.558	666.4
2133.602	655.4
2137.643	680.4
2141.681	674.4
2145.714	669.4
2149.744	655.4
2153.77	670.4
2157.793	667.4
2161.812	670.4
2165.827	650.4
2169.838	642.4
2173.846	628.4
2177.851	626.4
2181.851	605.4
2185.848	616.4
2189.841	607.4
2193.831	609.4
2197.817	586.4
2201.799	583.4
2205.778	595.4
2209.753	590.4
2213.725	589.4
2217.693	590.4
2221.657	592.4
2225.618	584.4
2229.575	580.4
2233.529	581.4
2237.479	570.4
2241.425	559.4
2245.368	553.4
2249.307	560.4
2253.243	535.4
2257.175	527.4
2261.104	522.4
2265.029	507.4
2268.95	512.4
2272.868	502.4
2276.783	497.4
2280.694	496.4
2284.601	494.4
2288.505	497.4
2292.405	480.4
2296.302	484.4
2300.195	467.4
2304.085	451.4
2307.971	446.4
2311.854	449.4
2315.734	441.4
2319.609	436.4
2323.482	431.4
2327.351	430.4
2331.216	448.4
2335.078	449.4
2338.937	440.4
2342.792	413.4
2346.643	414.4
2350.492	414.4
2354.336	414.4
2358.178	417.4
2362.015	416.4
2365.85	424.4
2369.681	409.4
2373.508	427.4
2377.333	416.4
2381.153	420.4
2384.971	426.4
2388.785	412.4
2392.595	409.4
2396.402	404.4
2400.206	402.4
2404.007	402.4
2407.804	392.4
2411.597	396.4
2415.388	404.4
2419.174	391.4
2422.958	388.4
2426.738	389.4
2430.515	385.4
2434.289	384.4
2438.059	386.4
2441.825	376.4
2445.589	377.4
2449.349	369.4
2453.106	375.4
2456.859	358.4
2460.61	356.4
2464.356	350.4
2468.1	352.4
2471.84	345.4
2475.577	340.4
2479.311	342.4
2483.041	332.4
2486.768	332.4
2490.492	330.4
2494.213	336.4
2497.93	326.4
2501.644	323.4
2505.355	321.4
2509.062	318.4
2512.766	321.4
2516.467	315.4
2520.165	301.4
2523.859	308.4
2527.551	306.4
2531.239	297.4
2534.923	292.4
2538.605	290.4
2542.283	288.4
2545.958	288.4
2549.63	283.4
2553.299	273.4
2556.964	276.4
2560.626	279.4
2564.285	262.4
2567.941	264.4
2571.594	256.4
2575.243	263.4
2578.89	254.4
2582.533	245.4
2586.173	253.4
2589.809	246.4
2593.443	246.4
2597.073	238.4
2600.701	233.4
2604.325	237.4
2607.946	225.4
2611.564	227.4
2615.178	239.4
2618.79	232.4
2622.398	231.4
2626.004	232.4
2629.606	219.4
2633.205	225.4
2636.801	217.4
2640.394	227.4
2643.983	217.4
2647.57	218.4
2651.153	221.4
2654.734	214.4
2658.311	200.4
2661.885	204.4
2665.456	211.4
2669.025	204.4
2672.589	196.4
2676.151	205.4
2679.71	205.4
2683.266	197.4
2686.819	191.4
2690.368	186.4
2693.915	184.4
2697.458	183.4
2700.999	178.4
2704.536	174.4
2708.071	173.4
2711.602	178.4
2715.13	169.4
2718.656	165.4
2722.178	152.4
2725.697	149.4
2729.214	158.4
2732.727	148.4
2736.237	161.4
2739.744	148.4
2743.249	152.4
2746.75	144.4
2750.248	135.4
2753.743	147.4
2757.236	135.4
2760.725	138.4
2764.211	132.4
2767.695	133.4
2771.175	119.4
2774.652	127.4
2778.127	128.4
2781.598	118.4
2785.067	133.4
2788.532	122.4
2791.995	132.4
2795.455	129.4
2798.911	121.4
2802.365	132.4
2805.816	129.4
2809.264	129.4
2812.709	132.4
2816.151	138.4
2819.59	138.4
2823.026	131.4
2826.46	123.4
2829.89	127.4
2833.318	132.4
2836.742	131.4
2840.164	126.4
2843.583	136.4
2846.999	142.4
2850.412	131.4
2853.822	131.4
2857.229	133.4
2860.634	140.4
2864.035	141.4
2867.434	148.4
2870.83	159.4
2874.223	161.4
2877.613	170.4
2881	176.4
2884.385	179.4
2887.766	168.4
2891.145	166.4
2894.521	171.4
2897.894	178.4
2901.264	174.4
2904.631	170.4
2907.996	181.4
2911.358	176.4
2914.717	171.4
2918.073	185.4
2921.426	187.4
2924.777	195.4
2928.124	202.4
2931.469	201.4
2934.811	197.4
2938.15	209.4
2941.487	216.4
2944.821	214.4
2948.152	217.4
2951.48	217.4
2954.805	215.4
2958.128	209.4
2961.447	195.4
2964.765	209.4
2968.079	202.4
2971.39	202.4
2974.699	212.4
2978.005	212.4
2981.308	212.4
2984.609	215.4
2987.907	210.4
2991.202	226.4
2994.494	215.4
2997.784	222.4
3001.07	225.4
3004.355	234.4
3007.636	234.4
3010.915	230.4
3014.191	238.4
3017.464	241.4
3020.734	240.4
3024.002	236.4
3027.267	252.4
3030.53	261.4
3033.789	265.4
3037.046	265.4
3040.301	264.4
3043.552	276.4
3046.801	289.4
3050.048	288.4
3053.291	321.4
3056.532	310.4
3059.771	317.4
3063.006	334.4
3066.239	348.4
3069.469	354.4
3072.697	367.4
3075.922	376.4
3079.144	392.4
3082.364	401.4
3085.581	403.4
3088.795	396.4
3092.007	413.4
3095.216	410.4
3098.423	434.4
3101.627	456.4
3104.828	457.4
3108.026	467.4
3111.222	484.4
3114.416	474.4
3117.607	505.4
3120.795	512.4
3123.98	497.4
3127.163	539.4
3130.344	561.4
3133.521	550.4
3136.696	572.4
3139.869	568.4
3143.039	580.4
3146.206	597.4
3149.371	608.4
3152.533	603.4
3155.693	612.4
3158.85	613.4
3162.005	627.4
3165.157	624.4
3168.306	626.4
3171.453	640.4
3174.597	633.4
3177.739	639.4
3180.878	646.4
3184.014	649.4
3187.149	643.4
3190.28	654.4
3193.409	644.4
3196.536	652.4
3199.659	652.4
3202.781	653.4
3205.9	665.4
3209.016	657.4
3212.13	655.4
3215.241	652.4
3218.35	646.4
3221.456	638.4
3224.56	647.4
3227.661	617.4
3230.76	625.4
3233.856	611.4
3236.95	605.4
3240.041	591.4
3243.13	585.4
3246.216	569.4
3249.3	563.4
3252.382	557.4
3255.46	562.4
3258.537	549.4
3261.611	553.4
3264.682	536.4
3267.751	539.4
3270.818	539.4
3273.882	534.4
3276.943	519.4
3280.002	519.4
3283.059	520.4
3286.113	518.4
3289.165	516.4
3292.214	502.4
3295.261	491.4
3298.306	491.4
3301.348	493.4
3304.387	473.4
3307.425	477.4
3310.459	476.4
3313.492	467.4
3316.521	468.4
3319.549	459.4
3322.574	457.4
3325.597	442.4
3328.617	451.4
3331.635	440.4
3334.65	455.4
3337.663	433.4
3340.674	457.4
3343.682	444.4
3346.688	450.4
3349.691	442.4
3352.692	430.4
3355.691	434.4
3358.687	426.4
3361.681	433.4
3364.673	429.4
3367.662	418.4
3370.649	411.4
3373.633	401.4
3376.615	394.4
3379.595	387.4
3382.572	388.4
3385.547	372.4
3388.52	380.4
3391.49	363.4
3394.458	368.4
3397.424	360.4
3400.387	334.4
3403.348	346.4
3406.307	340.4
3409.263	338.4
3412.217	336.4
3415.168	330.4
3418.118	322.4
3421.065	312.4
3424.009	314.4
3426.951	312.4
3429.891	287.4
3432.829	290.4
3435.764	285.4
3438.697	272.4
3441.628	280.4
3444.557	259.4
3447.483	251.4
3450.407	242.4
3453.328	240.4
3456.247	219.4
3459.164	206.4
3462.079	213.4
3464.991	195.4
3467.902	185.4
3470.809	186.4
3473.715	171.4
3476.618	165.4
3479.519	162.4
3482.418	145.4
3485.315	148.4
3488.209	135.4
3491.101	140.4
3493.99	129.4
3496.878	127.4
3499.763	113.4
3502.646	104.4
3505.527	101.4
3508.405	102.4
3511.281	91.4
3514.155	86.4
3517.027	79.4
3519.897	67.4
3522.764	55.4
3525.629	47.4
3528.492	48.4
3531.352	43.4
3534.211	38.4
3537.067	27.4
3539.921	30.4
3542.773	18.4
3545.622	7.4
3548.469	2.4
3551.315	1.4
3554.157	-1.6
3556.998	-6.6
3559.837	-3.6
3562.673	-10.6
3565.507	-17.6
3568.339	-14.6
3571.169	-27.6
3573.996	-28.6
3576.822	-28.6
3579.645	-23.6
3582.466	-26.6
3585.285	-37.6
3588.101	-31.6
3590.916	-44.6
3593.728	-54.6
3596.538	-53.6
3599.346	-51.6
3602.152	-48.6
3604.956	-52.6
3607.757	-54.6
3610.556	-56.6
3613.354	-57.6
3616.149	-70.6
3618.942	-74.6
3621.732	-69.6
3624.521	-68.6
3627.307	-73.6
3630.092	-71.6
3632.874	-71.6
3635.654	-81.6
3638.432	-83.6
3641.208	-82.6
3643.982	-84.6
3646.753	-87.6
3649.523	-83.6
3652.29	-81.6
3655.055	-88.6
3657.818	-86.6
3660.579	-88.6
3663.338	-91.6
3666.095	-95.6
3668.849	-102.6
3671.602	-96.6
3674.352	-98.6
3677.101	-99.6
3679.847	-103.6
3682.591	-108.6
3685.333	-105.6
3688.073	-101.6
3690.811	-104.6
3693.547	-116.6
3696.281	-107.6
3699.013	-103.6
3701.742	-113.6
3704.47	-112.6
3707.195	-107.6
3709.919	-108.6
3712.64	-114.6
3715.359	-115.6
3718.076	-117.6
3720.792	-112.6
3723.505	-114.6
3726.216	-112.6
3728.925	-122.6
3731.632	-116.6
3734.336	-125.6
3737.039	-113.6
3739.74	-117.6
3742.439	-119.6
3745.136	-116.6
3747.83	-126.6
3750.523	-122.6
3753.213	-130.6
3755.902	-119.6
3758.589	-123.6
3761.273	-117.6
3763.956	-120.6
3766.636	-118.6
3769.315	-117.6
3771.991	-120.6
3774.665	-125.6
3777.338	-118.6
3780.008	-119.6
3782.677	-120.6
3785.343	-117.6
3788.007	-121.6
3790.67	-125.6
3793.33	-125.6
3795.989	-119.6
3798.645	-119.6
3801.299	-125.6
3803.952	-129.6
3806.602	-126.6
3809.251	-131.6
3811.897	-127.6
3814.542	-129.6
3817.184	-121.6
3819.825	-122.6
3822.463	-122.6
3825.1	-124.6
3827.735	-128.6
3830.367	-122.6
3832.998	-132.6
3835.627	-126.6
3838.253	-122.6
3840.878	-118.6
3843.501	-119.6
3846.122	-127.6
3848.741	-129.6
3851.358	-128.6
3853.973	-132.6
3856.586	-128.6
3859.197	-134.6
3861.806	-121.6
3864.414	-126.6
3867.019	-123.6
3869.622	-126.6
3872.224	-112.6
3874.823	-110.6
3877.421	-102.6
3880.016	-88.6
3882.61	-67.6
3885.202	-65.6
3887.792	-80.6
3890.38	-103.6
3892.966	-120.6
3895.55	-126.6
3898.132	-129.6
3900.713	-131.6
3903.291	-130.6
3905.868	-127.6
3908.442	-122.6
3911.015	-130.6
3913.586	-131.6
3916.155	-130.6
3918.722	-130.6
3921.287	-125.6
3923.85	-130.6
3926.411	-131.6
3928.971	-126.6
3931.528	-129.6
3934.084	-128.6
3936.638	-123.6
3939.19	-133.6
3941.74	-129.6
3944.288	-128.6
3946.834	-131.6
3949.378	-124.6
3951.921	-123.6
3954.462	-136.6
3957	-127.6
3959.537	-129.6
3962.072	-129.6
3964.606	-118.6
3967.137	-127.6
3969.667	-128.6
3972.194	-131.6
3974.72	-125.6
3977.244	-129.6
3979.766	-134.6
3982.286	-128.6
3984.805	-129.6
3987.321	-122.6
3989.836	-120.6
3992.349	-127.6
3994.86	-128.6
3997.369	-135.6
3999.877	-128.6
4002.382	-126.6
4004.886	-131.6
4007.388	-126.6
4009.888	-121.6
4012.386	-120.6
4014.883	-132.6
4017.377	-125.6
4019.87	-131.6
4022.361	-128.6
4024.85	-125.6
4027.338	-126.6
4029.823	-125.6
4032.307	-118.6
4034.789	-133.6
4037.269	-129.6
4039.747	-127.6
4042.224	-126.6
4044.699	-130.6
4047.172	-123.6
4049.643	-118.6
4052.112	-130.6
4054.58	-130.6
4057.046	-128.6
4059.51	-126.6
4061.972	-127.6
4064.432	-120.6
4066.891	-123.6
4069.348	-124.6
4071.803	-132.6
4074.256	-125.6
4076.708	-126.6
4079.158	-127.6
4081.606	-120.6
4084.052	-125.6
4086.497	-125.6
4088.939	-120.6
4091.38	-130.6
4093.819	-131.6
4096.257	-132.6
4098.693	-130.6
4101.127	-134.6
4103.559	-130.6
4105.989	-3.6
4108.418	-13.6
4110.845	-12.6
4113.27	-9.6
4115.694	-16.6
4118.115	-15.6
4120.535	-132.6
4122.954	-129.6
4125.37	-125.6
4127.785	-128.6
4130.198	-126.6
4132.609	-129.6
4135.019	-134.6
4137.427	-136.6
4139.833	-133.6
4142.237	-133.6
