Data from 2018-2-8_conc=2_n=2_RamanShift_05.txt Node
Date: Mon Mar 12 14:00:28 IST 2018
User: aro
Spectrometer: QEPB0276
Trigger mode: 0
Integration Time (sec): 3.000000E1
Scans to average: 1
Electric dark correction enabled: true
Nonlinearity correction enabled: false
Boxcar width: 0
XAxis mode: Raman Shifts
Number of Pixels in Spectrum: 1044
>>>>>Begin Spectral Data<<<<<
160.701	8.6
166.742	39.6
172.777	124.6
178.805	405.6
184.826	1121.6
190.841	2433.6
196.849	4093.6
202.85	5376.6
208.845	5883.6
214.833	5876.6
220.815	5803.6
226.789	5775.6
232.758	5760.6
238.719	5769.6
244.674	5737.6
250.623	5679.6
256.565	5586.6
262.5	5512.6
268.429	5415.6
274.351	5339.6
280.267	5316.6
286.176	5279.6
292.079	5257.6
297.975	5236.6
303.865	5202.6
309.748	5172.6
315.625	5163.6
321.495	5189.6
327.359	5153.6
333.217	5130.6
339.068	5146.6
344.912	5173.6
350.751	5144.6
356.583	5142.6
362.408	5192.6
368.227	5183.6
374.04	5182.6
379.847	5188.6
385.647	5259.6
391.44	5241.6
397.228	5261.6
403.009	5272.6
408.784	5295.6
414.553	5328.6
420.315	5343.6
426.071	5345.6
431.821	5330.6
437.565	5317.6
443.302	5325.6
449.033	5315.6
454.758	5275.6
460.477	5257.6
466.189	5246.6
471.896	5233.6
477.596	5161.6
483.29	5156.6
488.978	5167.6
494.66	5134.6
500.335	5098.6
506.005	4952.6
511.668	4856.6
517.325	4726.6
522.977	4646.6
528.622	4571.6
534.261	4499.6
539.894	4422.6
545.521	4412.6
551.141	4382.6
556.756	4367.6
562.365	4355.6
567.968	4321.6
573.565	4311.6
579.155	4261.6
584.74	4270.6
590.319	4232.6
595.892	4217.6
601.459	4208.6
607.02	4171.6
612.575	4162.6
618.124	4138.6
623.667	4107.6
629.204	4068.6
634.735	4029.6
640.261	4007.6
645.781	4022.6
651.294	3976.6
656.802	4011.6
662.304	3948.6
667.8	3943.6
673.29	3956.6
678.775	3919.6
684.254	3909.6
689.726	3908.6
695.193	3909.6
700.655	3877.6
706.11	3860.6
711.56	3836.6
717.004	3792.6
722.442	3787.6
727.874	3784.6
733.301	3761.6
738.722	3743.6
744.137	3735.6
749.547	3736.6
754.951	3740.6
760.349	3746.6
765.741	3742.6
771.128	3732.6
776.509	3780.6
781.885	3767.6
787.254	3762.6
792.618	3780.6
797.977	3761.6
803.33	3723.6
808.677	3726.6
814.019	3698.6
819.355	3641.6
824.686	3628.6
830.011	3630.6
835.33	3616.6
840.644	3603.6
845.952	3592.6
851.255	3600.6
856.552	3589.6
861.844	3562.6
867.13	3555.6
872.41	3565.6
877.686	3542.6
882.955	3483.6
888.219	3457.6
893.478	3431.6
898.731	3365.6
903.979	3320.6
909.221	3306.6
914.458	3294.6
919.69	3288.6
924.916	3279.6
930.136	3302.6
935.351	3300.6
940.561	3319.6
945.766	3286.6
950.965	3280.6
956.158	3265.6
961.347	3224.6
966.529	3206.6
971.707	3126.6
976.879	3075.6
982.046	3058.6
987.208	3069.6
992.364	3044.6
997.515	3084.6
1002.66	3099.6
1007.801	3119.6
1012.936	3123.6
1018.066	3155.6
1023.19	3114.6
1028.309	3153.6
1033.423	3152.6
1038.532	3130.6
1043.636	3109.6
1048.734	3080.6
1053.827	3039.6
1058.915	2981.6
1063.998	2971.6
1069.075	2949.6
1074.147	2952.6
1079.214	2966.6
1084.276	2986.6
1089.333	3006.6
1094.385	2981.6
1099.431	3011.6
1104.472	3026.6
1109.509	3019.6
1114.54	2954.6
1119.565	2926.6
1124.586	2888.6
1129.602	2845.6
1134.613	2803.6
1139.618	2804.6
1144.619	2775.6
1149.614	2774.6
1154.604	2807.6
1159.589	2811.6
1164.57	2819.6
1169.545	2812.6
1174.515	2833.6
1179.48	2803.6
1184.44	2795.6
1189.395	2753.6
1194.345	2735.6
1199.29	2728.6
1204.23	2726.6
1209.165	2742.6
1214.095	2742.6
1219.021	2741.6
1223.941	2777.6
1228.856	2785.6
1233.766	2779.6
1238.672	2797.6
1243.572	2765.6
1248.467	2775.6
1253.358	2744.6
1258.244	2715.6
1263.124	2658.6
1268	2600.6
1272.871	2567.6
1277.737	2566.6
1282.599	2561.6
1287.455	2553.6
1292.306	2553.6
1297.153	2589.6
1301.995	2583.6
1306.832	2591.6
1311.664	2616.6
1316.491	2604.6
1321.314	2616.6
1326.132	2588.6
1330.945	2568.6
1335.753	2529.6
1340.556	2498.6
1345.354	2439.6
1350.148	2392.6
1354.937	2351.6
1359.722	2319.6
1364.501	2269.6
1369.276	2242.6
1374.046	2206.6
1378.811	2185.6
1383.572	2174.6
1388.327	2170.6
1393.079	2188.6
1397.825	2188.6
1402.567	2190.6
1407.304	2180.6
1412.036	2191.6
1416.764	2198.6
1421.487	2194.6
1426.205	2180.6
1430.919	2188.6
1435.628	2207.6
1440.333	2238.6
1445.032	2259.6
1449.727	2287.6
1454.418	2550.6
1459.104	2269.6
1463.785	2240.6
1468.462	2200.6
1473.134	2155.6
1477.802	2105.6
1482.465	2076.6
1487.123	2010.6
1491.777	1988.6
1496.426	1953.6
1501.071	1953.6
1505.711	1922.6
1510.347	1925.6
1514.978	1937.6
1519.604	1910.6
1524.226	1918.6
1528.844	1917.6
1533.457	1886.6
1538.065	1910.6
1542.669	1881.6
1547.269	1886.6
1551.864	1899.6
1556.454	1909.6
1561.041	1924.6
1565.622	1951.6
1570.199	1947.6
1574.772	1954.6
1579.34	1980.6
1583.904	2000.6
1588.464	2021.6
1593.019	2053.6
1597.569	2035.6
1602.115	2044.6
1606.657	2000.6
1611.195	2007.6
1615.728	2006.6
1620.256	2027.6
1624.78	2019.6
1629.3	2014.6
1633.816	2023.6
1638.327	2033.6
1642.834	2025.6
1647.336	2019.6
1651.834	2041.6
1656.328	2056.6
1660.817	2043.6
1665.302	2020.6
1669.783	1973.6
1674.259	1915.6
1678.732	1888.6
1683.199	1827.6
1687.663	1763.6
1692.122	1701.6
1696.577	1642.6
1701.028	1575.6
1705.474	1526.6
1709.917	1469.6
1714.355	1446.6
1718.788	1440.6
1723.218	1444.6
1727.643	1448.6
1732.064	1433.6
1736.481	1412.6
1740.893	1380.6
1745.301	1360.6
1749.705	1342.6
1754.105	1315.6
1758.501	1273.6
1762.893	1263.6
1767.28	1249.6
1771.663	1250.6
1776.042	1225.6
1780.417	1200.6
1784.787	1196.6
1789.154	1182.6
1793.516	1184.6
1797.874	1166.6
1802.228	1159.6
1806.578	1139.6
1810.924	1112.6
1815.266	1096.6
1819.603	1118.6
1823.937	1091.6
1828.266	1109.6
1832.591	1091.6
1836.913	1104.6
1841.23	1112.6
1845.543	1114.6
1849.852	1120.6
1854.156	1121.6
1858.457	1118.6
1862.754	1112.6
1867.047	1107.6
1871.335	1119.6
1875.62	1103.6
1879.9	1090.6
1884.177	1078.6
1888.449	1078.6
1892.718	1083.6
1896.982	1048.6
1901.243	1040.6
1905.499	1026.6
1909.752	999.6
1914	970.6
1918.245	997.6
1922.485	970.6
1926.722	960.6
1930.954	980.6
1935.183	939.6
1939.408	942.6
1943.628	944.6
1947.845	922.6
1952.058	930.6
1956.267	912.6
1960.472	921.6
1964.673	911.6
1968.87	894.6
1973.063	885.6
1977.252	879.6
1981.438	889.6
1985.619	890.6
1989.797	890.6
1993.971	901.6
1998.14	896.6
2002.306	886.6
2006.469	918.6
2010.627	901.6
2014.781	903.6
2018.932	906.6
2023.078	915.6
2027.221	888.6
2031.36	885.6
2035.495	859.6
2039.627	858.6
2043.754	830.6
2047.878	828.6
2051.998	824.6
2056.114	834.6
2060.226	830.6
2064.334	839.6
2068.439	820.6
2072.54	813.6
2076.637	805.6
2080.73	809.6
2084.82	794.6
2088.906	801.6
2092.988	795.6
2097.066	784.6
2101.14	772.6
2105.211	761.6
2109.278	760.6
2113.342	750.6
2117.401	742.6
2121.457	736.6
2125.509	731.6
2129.558	748.6
2133.602	723.6
2137.643	723.6
2141.681	733.6
2145.714	712.6
2149.744	724.6
2153.77	723.6
2157.793	725.6
2161.812	719.6
2165.827	714.6
2169.838	700.6
2173.846	679.6
2177.851	682.6
2181.851	669.6
2185.848	661.6
2189.841	668.6
2193.831	654.6
2197.817	650.6
2201.799	654.6
2205.778	654.6
2209.753	641.6
2213.725	633.6
2217.693	637.6
2221.657	650.6
2225.618	647.6
2229.575	641.6
2233.529	629.6
2237.479	626.6
2241.425	616.6
2245.368	612.6
2249.307	602.6
2253.243	589.6
2257.175	581.6
2261.104	572.6
2265.029	562.6
2268.95	570.6
2272.868	552.6
2276.783	553.6
2280.694	544.6
2284.601	532.6
2288.505	536.6
2292.405	514.6
2296.302	518.6
2300.195	517.6
2304.085	508.6
2307.971	492.6
2311.854	494.6
2315.734	475.6
2319.609	475.6
2323.482	470.6
2327.351	477.6
2331.216	475.6
2335.078	508.6
2338.937	485.6
2342.792	459.6
2346.643	458.6
2350.492	462.6
2354.336	461.6
2358.178	454.6
2362.015	467.6
2365.85	460.6
2369.681	463.6
2373.508	474.6
2377.333	461.6
2381.153	448.6
2384.971	463.6
2388.785	469.6
2392.595	456.6
2396.402	448.6
2400.206	459.6
2404.007	442.6
2407.804	439.6
2411.597	436.6
2415.388	433.6
2419.174	440.6
2422.958	442.6
2426.738	438.6
2430.515	423.6
2434.289	424.6
2438.059	419.6
2441.825	419.6
2445.589	415.6
2449.349	406.6
2453.106	403.6
2456.859	408.6
2460.61	400.6
2464.356	380.6
2468.1	395.6
2471.84	375.6
2475.577	369.6
2479.311	368.6
2483.041	360.6
2486.768	361.6
2490.492	367.6
2494.213	365.6
2497.93	353.6
2501.644	347.6
2505.355	349.6
2509.062	349.6
2512.766	342.6
2516.467	335.6
2520.165	334.6
2523.859	334.6
2527.551	332.6
2531.239	312.6
2534.923	315.6
2538.605	303.6
2542.283	313.6
2545.958	304.6
2549.63	315.6
2553.299	306.6
2556.964	314.6
2560.626	299.6
2564.285	288.6
2567.941	297.6
2571.594	285.6
2575.243	280.6
2578.89	275.6
2582.533	261.6
2586.173	265.6
2589.809	263.6
2593.443	272.6
2597.073	265.6
2600.701	252.6
2604.325	258.6
2607.946	253.6
2611.564	254.6
2615.178	262.6
2618.79	261.6
2622.398	257.6
2626.004	253.6
2629.606	250.6
2633.205	238.6
2636.801	239.6
2640.394	245.6
2643.983	226.6
2647.57	252.6
2651.153	239.6
2654.734	233.6
2658.311	215.6
2661.885	213.6
2665.456	226.6
2669.025	222.6
2672.589	228.6
2676.151	220.6
2679.71	224.6
2683.266	208.6
2686.819	201.6
2690.368	203.6
2693.915	188.6
2697.458	197.6
2700.999	200.6
2704.536	191.6
2708.071	185.6
2711.602	185.6
2715.13	178.6
2718.656	176.6
2722.178	176.6
2725.697	178.6
2729.214	169.6
2732.727	168.6
2736.237	167.6
2739.744	171.6
2743.249	162.6
2746.75	156.6
2750.248	152.6
2753.743	153.6
2757.236	146.6
2760.725	153.6
2764.211	140.6
2767.695	140.6
2771.175	128.6
2774.652	131.6
2778.127	136.6
2781.598	138.6
2785.067	142.6
2788.532	136.6
2791.995	137.6
2795.455	142.6
2798.911	132.6
2802.365	142.6
2805.816	148.6
2809.264	142.6
2812.709	146.6
2816.151	148.6
2819.59	158.6
2823.026	143.6
2826.46	138.6
2829.89	140.6
2833.318	131.6
2836.742	147.6
2840.164	146.6
2843.583	143.6
2846.999	149.6
2850.412	144.6
2853.822	149.6
2857.229	147.6
2860.634	144.6
2864.035	149.6
2867.434	167.6
2870.83	172.6
2874.223	177.6
2877.613	172.6
2881	192.6
2884.385	185.6
2887.766	180.6
2891.145	183.6
2894.521	195.6
2897.894	193.6
2901.264	198.6
2904.631	202.6
2907.996	189.6
2911.358	195.6
2914.717	198.6
2918.073	205.6
2921.426	218.6
2924.777	223.6
2928.124	223.6
2931.469	216.6
2934.811	225.6
2938.15	230.6
2941.487	234.6
2944.821	248.6
2948.152	244.6
2951.48	242.6
2954.805	239.6
2958.128	232.6
2961.447	223.6
2964.765	222.6
2968.079	228.6
2971.39	232.6
2974.699	243.6
2978.005	230.6
2981.308	242.6
2984.609	231.6
2987.907	237.6
2991.202	244.6
2994.494	247.6
2997.784	246.6
3001.07	255.6
3004.355	275.6
3007.636	258.6
3010.915	260.6
3014.191	261.6
3017.464	264.6
3020.734	274.6
3024.002	279.6
3027.267	285.6
3030.53	298.6
3033.789	301.6
3037.046	306.6
3040.301	304.6
3043.552	313.6
3046.801	331.6
3050.048	337.6
3053.291	338.6
3056.532	354.6
3059.771	383.6
3063.006	382.6
3066.239	395.6
3069.469	402.6
3072.697	410.6
3075.922	422.6
3079.144	444.6
3082.364	457.6
3085.581	464.6
3088.795	460.6
3092.007	464.6
3095.216	478.6
3098.423	487.6
3101.627	508.6
3104.828	514.6
3108.026	517.6
3111.222	539.6
3114.416	545.6
3117.607	559.6
3120.795	567.6
3123.98	589.6
3127.163	587.6
3130.344	604.6
3133.521	620.6
3136.696	634.6
3139.869	639.6
3143.039	654.6
3146.206	655.6
3149.371	670.6
3152.533	688.6
3155.693	689.6
3158.85	698.6
3162.005	700.6
3165.157	697.6
3168.306	709.6
3171.453	701.6
3174.597	727.6
3177.739	710.6
3180.878	723.6
3184.014	725.6
3187.149	719.6
3190.28	737.6
3193.409	744.6
3196.536	736.6
3199.659	750.6
3202.781	734.6
3205.9	754.6
3209.016	743.6
3212.13	743.6
3215.241	738.6
3218.35	731.6
3221.456	715.6
3224.56	718.6
3227.661	695.6
3230.76	703.6
3233.856	702.6
3236.95	677.6
3240.041	676.6
3243.13	663.6
3246.216	651.6
3249.3	650.6
3252.382	643.6
3255.46	648.6
3258.537	631.6
3261.611	621.6
3264.682	599.6
3267.751	610.6
3270.818	617.6
3273.882	602.6
3276.943	602.6
3280.002	602.6
3283.059	586.6
3286.113	593.6
3289.165	583.6
3292.214	578.6
3295.261	576.6
3298.306	567.6
3301.348	551.6
3304.387	544.6
3307.425	544.6
3310.459	543.6
3313.492	547.6
3316.521	518.6
3319.549	532.6
3322.574	508.6
3325.597	520.6
3328.617	528.6
3331.635	507.6
3334.65	502.6
3337.663	501.6
3340.674	517.6
3343.682	507.6
3346.688	514.6
3349.691	505.6
3352.692	493.6
3355.691	500.6
3358.687	483.6
3361.681	488.6
3364.673	486.6
3367.662	473.6
3370.649	470.6
3373.633	453.6
3376.615	451.6
3379.595	430.6
3382.572	444.6
3385.547	428.6
3388.52	432.6
3391.49	419.6
3394.458	419.6
3397.424	400.6
3400.387	393.6
3403.348	381.6
3406.307	390.6
3409.263	382.6
3412.217	388.6
3415.168	381.6
3418.118	368.6
3421.065	353.6
3424.009	364.6
3426.951	355.6
3429.891	350.6
3432.829	332.6
3435.764	325.6
3438.697	324.6
3441.628	316.6
3444.557	307.6
3447.483	288.6
3450.407	279.6
3453.328	269.6
3456.247	260.6
3459.164	252.6
3462.079	234.6
3464.991	229.6
3467.902	218.6
3470.809	222.6
3473.715	193.6
3476.618	199.6
3479.519	181.6
3482.418	181.6
3485.315	173.6
3488.209	158.6
3491.101	156.6
3493.99	155.6
3496.878	145.6
3499.763	142.6
3502.646	134.6
3505.527	117.6
3508.405	118.6
3511.281	100.6
3514.155	97.6
3517.027	86.6
3519.897	86.6
3522.764	76.6
3525.629	65.6
3528.492	63.6
3531.352	48.6
3534.211	38.6
3537.067	39.6
3539.921	38.6
3542.773	34.6
3545.622	23.6
3548.469	17.6
3551.315	10.6
3554.157	6.6
3556.998	2.6
3559.837	-2.4
3562.673	-5.4
3565.507	-10.4
3568.339	-20.4
3571.169	-28.4
3573.996	-17.4
3576.822	-25.4
3579.645	-28.4
3582.466	-34.4
3585.285	-42.4
3588.101	-30.4
3590.916	-48.4
3593.728	-54.4
3596.538	-51.4
3599.346	-54.4
3602.152	-50.4
3604.956	-53.4
3607.757	-53.4
3610.556	-65.4
3613.354	-65.4
3616.149	-75.4
3618.942	-81.4
3621.732	-77.4
3624.521	-73.4
3627.307	-77.4
3630.092	-77.4
3632.874	-73.4
3635.654	-88.4
3638.432	-83.4
3641.208	-85.4
3643.982	-88.4
3646.753	-96.4
3649.523	-91.4
3652.29	-91.4
3655.055	-88.4
3657.818	-97.4
3660.579	-100.4
3663.338	-101.4
3666.095	-106.4
3668.849	-109.4
3671.602	-102.4
3674.352	-109.4
3677.101	-112.4
3679.847	-112.4
3682.591	-109.4
3685.333	-112.4
3688.073	-111.4
3690.811	-112.4
3693.547	-123.4
3696.281	-113.4
3699.013	-116.4
3701.742	-122.4
3704.47	-120.4
3707.195	-119.4
3709.919	-124.4
3712.64	-120.4
3715.359	-125.4
3718.076	-121.4
3720.792	-123.4
3723.505	-126.4
3726.216	-124.4
3728.925	-127.4
3731.632	-124.4
3734.336	-132.4
3737.039	-126.4
3739.74	-127.4
3742.439	-137.4
3745.136	-122.4
3747.83	-133.4
3750.523	-128.4
3753.213	-135.4
3755.902	-127.4
3758.589	-136.4
3761.273	-129.4
3763.956	-125.4
3766.636	-126.4
3769.315	-126.4
3771.991	-135.4
3774.665	-137.4
3777.338	-128.4
3780.008	-129.4
3782.677	-128.4
3785.343	-132.4
3788.007	-129.4
3790.67	-133.4
3793.33	-128.4
3795.989	-131.4
3798.645	-132.4
3801.299	-136.4
3803.952	-133.4
3806.602	-134.4
3809.251	-133.4
3811.897	-136.4
3814.542	-134.4
3817.184	-132.4
3819.825	-136.4
3822.463	-140.4
3825.1	-138.4
3827.735	-135.4
3830.367	-139.4
3832.998	-140.4
3835.627	-136.4
3838.253	-132.4
3840.878	-137.4
3843.501	-137.4
3846.122	-137.4
3848.741	-139.4
3851.358	-136.4
3853.973	-141.4
3856.586	-139.4
3859.197	-140.4
3861.806	-136.4
3864.414	-141.4
3867.019	-139.4
3869.622	-134.4
3872.224	-128.4
3874.823	-120.4
3877.421	-109.4
3880.016	-99.4
3882.61	-81.4
3885.202	-87.4
3887.792	-95.4
3890.38	-112.4
3892.966	-135.4
3895.55	-131.4
3898.132	-132.4
3900.713	-139.4
3903.291	-140.4
3905.868	-140.4
3908.442	-133.4
3911.015	-140.4
3913.586	-137.4
3916.155	-142.4
3918.722	-140.4
3921.287	-141.4
3923.85	-138.4
3926.411	-144.4
3928.971	-144.4
3931.528	-147.4
3934.084	-143.4
3936.638	-136.4
3939.19	-139.4
3941.74	-140.4
3944.288	-139.4
3946.834	-136.4
3949.378	-140.4
3951.921	-135.4
3954.462	-142.4
3957	-140.4
3959.537	-135.4
3962.072	-140.4
3964.606	-133.4
3967.137	-143.4
3969.667	-143.4
3972.194	-141.4
3974.72	-139.4
3977.244	-140.4
3979.766	-136.4
3982.286	-140.4
3984.805	-136.4
3987.321	-138.4
3989.836	-135.4
3992.349	-137.4
3994.86	-141.4
3997.369	-129.4
3999.877	-136.4
4002.382	-135.4
4004.886	-142.4
4007.388	-141.4
4009.888	-132.4
4012.386	-144.4
4014.883	-136.4
4017.377	-139.4
4019.87	-139.4
4022.361	-137.4
4024.85	-142.4
4027.338	-140.4
4029.823	-133.4
4032.307	-136.4
4034.789	-142.4
4037.269	-134.4
4039.747	-132.4
4042.224	-133.4
4044.699	-137.4
4047.172	-136.4
4049.643	-132.4
4052.112	-138.4
4054.58	-139.4
4057.046	-138.4
4059.51	-139.4
4061.972	-139.4
4064.432	-141.4
4066.891	-141.4
4069.348	-136.4
4071.803	-139.4
4074.256	-142.4
4076.708	-132.4
4079.158	-137.4
4081.606	-130.4
4084.052	-142.4
4086.497	-141.4
4088.939	-127.4
4091.38	-133.4
4093.819	-136.4
4096.257	-144.4
4098.693	-144.4
4101.127	-143.4
4103.559	-142.4
4105.989	-21.4
4108.418	-25.4
4110.845	-20.4
4113.27	-24.4
4115.694	-21.4
4118.115	-22.4
4120.535	-141.4
4122.954	-139.4
4125.37	-136.4
4127.785	-144.4
4130.198	-137.4
4132.609	-137.4
4135.019	-144.4
4137.427	-145.4
4139.833	-142.4
4142.237	-146.4
