Data from 2018-2-8_conc=3_n=9_RamanShift_01.txt Node
Date: Mon Mar 12 14:55:58 IST 2018
User: aro
Spectrometer: QEPB0276
Trigger mode: 0
Integration Time (sec): 3.000000E1
Scans to average: 1
Electric dark correction enabled: true
Nonlinearity correction enabled: false
Boxcar width: 0
XAxis mode: Raman Shifts
Number of Pixels in Spectrum: 1044
>>>>>Begin Spectral Data<<<<<
160.701	17.4
166.742	39.4
172.777	116.4
178.805	331.4
184.826	897.4
190.841	1919.4
196.849	3204.4
202.85	4207.4
208.845	4605.4
214.833	4603.4
220.815	4552.4
226.789	4521.4
232.758	4529.4
238.719	4499.4
244.674	4471.4
250.623	4428.4
256.565	4352.4
262.5	4334.4
268.429	4251.4
274.351	4227.4
280.267	4163.4
286.176	4161.4
292.079	4150.4
297.975	4094.4
303.865	4124.4
309.748	4102.4
315.625	4095.4
321.495	4089.4
327.359	4081.4
333.217	4059.4
339.068	4079.4
344.912	4118.4
350.751	4096.4
356.583	4137.4
362.408	4130.4
368.227	4146.4
374.04	4138.4
379.847	4186.4
385.647	4181.4
391.44	4196.4
397.228	4224.4
403.009	4248.4
408.784	4256.4
414.553	4269.4
420.315	4302.4
426.071	4295.4
431.821	4305.4
437.565	4291.4
443.302	4245.4
449.033	4256.4
454.758	4257.4
460.477	4228.4
466.189	4192.4
471.896	4171.4
477.596	4133.4
483.29	4136.4
488.978	4130.4
494.66	4090.4
500.335	4044.4
506.005	3920.4
511.668	3781.4
517.325	3668.4
522.977	3552.4
528.622	3479.4
534.261	3406.4
539.894	3386.4
545.521	3377.4
551.141	3306.4
556.756	3314.4
562.365	3277.4
567.968	3250.4
573.565	3244.4
579.155	3221.4
584.74	3192.4
590.319	3163.4
595.892	3193.4
601.459	3150.4
607.02	3162.4
612.575	3161.4
618.124	3123.4
623.667	3082.4
629.204	3052.4
634.735	2999.4
640.261	3002.4
645.781	3015.4
651.294	2979.4
656.802	2969.4
662.304	2952.4
667.8	2941.4
673.29	2949.4
678.775	2947.4
684.254	2906.4
689.726	2906.4
695.193	2909.4
700.655	2878.4
706.11	2878.4
711.56	2830.4
717.004	2848.4
722.442	2810.4
727.874	2806.4
733.301	2792.4
738.722	2778.4
744.137	2791.4
749.547	2759.4
754.951	2788.4
760.349	2752.4
765.741	2783.4
771.128	2804.4
776.509	2811.4
781.885	2841.4
787.254	2829.4
792.618	2828.4
797.977	2831.4
803.33	2808.4
808.677	2800.4
814.019	2776.4
819.355	2748.4
824.686	2721.4
830.011	2705.4
835.33	2725.4
840.644	2707.4
845.952	2707.4
851.255	2698.4
856.552	2700.4
861.844	2658.4
867.13	2664.4
872.41	2631.4
877.686	2604.4
882.955	2590.4
888.219	2577.4
893.478	2523.4
898.731	2498.4
903.979	2477.4
909.221	2419.4
914.458	2442.4
919.69	2442.4
924.916	2441.4
930.136	2439.4
935.351	2449.4
940.561	2450.4
945.766	2433.4
950.965	2441.4
956.158	2411.4
961.347	2389.4
966.529	2350.4
971.707	2331.4
976.879	2294.4
982.046	2275.4
987.208	2251.4
992.364	2265.4
997.515	2269.4
1002.66	2293.4
1007.801	2305.4
1012.936	2334.4
1018.066	2345.4
1023.19	2352.4
1028.309	2355.4
1033.423	2318.4
1038.532	2325.4
1043.636	2309.4
1048.734	2289.4
1053.827	2269.4
1058.915	2243.4
1063.998	2227.4
1069.075	2202.4
1074.147	2210.4
1079.214	2226.4
1084.276	2217.4
1089.333	2236.4
1094.385	2244.4
1099.431	2215.4
1104.472	2234.4
1109.509	2217.4
1114.54	2202.4
1119.565	2179.4
1124.586	2133.4
1129.602	2109.4
1134.613	2078.4
1139.618	2089.4
1144.619	2068.4
1149.614	2081.4
1154.604	2104.4
1159.589	2082.4
1164.57	2083.4
1169.545	2091.4
1174.515	2102.4
1179.48	2089.4
1184.44	2048.4
1189.395	2053.4
1194.345	2048.4
1199.29	2026.4
1204.23	2022.4
1209.165	2029.4
1214.095	2037.4
1219.021	2060.4
1223.941	2067.4
1228.856	2065.4
1233.766	2082.4
1238.672	2081.4
1243.572	2066.4
1248.467	2030.4
1253.358	2046.4
1258.244	2016.4
1263.124	1970.4
1268	1928.4
1272.871	1927.4
1277.737	1902.4
1282.599	1893.4
1287.455	1879.4
1292.306	1888.4
1297.153	1897.4
1301.995	1905.4
1306.832	1937.4
1311.664	1930.4
1316.491	1931.4
1321.314	1933.4
1326.132	1913.4
1330.945	1922.4
1335.753	1875.4
1340.556	1865.4
1345.354	1822.4
1350.148	1823.4
1354.937	1767.4
1359.722	1738.4
1364.501	1715.4
1369.276	1689.4
1374.046	1651.4
1378.811	1635.4
1383.572	1628.4
1388.327	1631.4
1393.079	1632.4
1397.825	1625.4
1402.567	1633.4
1407.304	1618.4
1412.036	1623.4
1416.764	1630.4
1421.487	1641.4
1426.205	1649.4
1430.919	1640.4
1435.628	1667.4
1440.333	1664.4
1445.032	1679.4
1449.727	1693.4
1454.418	1684.4
1459.104	1702.4
1463.785	1676.4
1468.462	1654.4
1473.134	1599.4
1477.802	1581.4
1482.465	1555.4
1487.123	1529.4
1491.777	1483.4
1496.426	1481.4
1501.071	1478.4
1505.711	1471.4
1510.347	1478.4
1514.978	1480.4
1519.604	1465.4
1524.226	1456.4
1528.844	1450.4
1533.457	1441.4
1538.065	1448.4
1542.669	1423.4
1547.269	1440.4
1551.864	1416.4
1556.454	1445.4
1561.041	1473.4
1565.622	1470.4
1570.199	1462.4
1574.772	1484.4
1579.34	1502.4
1583.904	1519.4
1588.464	1528.4
1593.019	1546.4
1597.569	1535.4
1602.115	1529.4
1606.657	1523.4
1611.195	1518.4
1615.728	1528.4
1620.256	1509.4
1624.78	1522.4
1629.3	1510.4
1633.816	1526.4
1638.327	1544.4
1642.834	1545.4
1647.336	1568.4
1651.834	1557.4
1656.328	1562.4
1660.817	1550.4
1665.302	1522.4
1669.783	1513.4
1674.259	1470.4
1678.732	1444.4
1683.199	1398.4
1687.663	1361.4
1692.122	1304.4
1696.577	1264.4
1701.028	1226.4
1705.474	1202.4
1709.917	1146.4
1714.355	1112.4
1718.788	1099.4
1723.218	1107.4
1727.643	1112.4
1732.064	1084.4
1736.481	1085.4
1740.893	1061.4
1745.301	1038.4
1749.705	1018.4
1754.105	995.4
1758.501	1000.4
1762.893	980.4
1767.28	962.4
1771.663	953.4
1776.042	939.4
1780.417	949.4
1784.787	925.4
1789.154	920.4
1793.516	915.4
1797.874	894.4
1802.228	887.4
1806.578	882.4
1810.924	871.4
1815.266	856.4
1819.603	860.4
1823.937	852.4
1828.266	850.4
1832.591	854.4
1836.913	855.4
1841.23	845.4
1845.543	848.4
1849.852	841.4
1854.156	834.4
1858.457	854.4
1862.754	838.4
1867.047	850.4
1871.335	865.4
1875.62	865.4
1879.9	855.4
1884.177	848.4
1888.449	835.4
1892.718	824.4
1896.982	816.4
1901.243	813.4
1905.499	810.4
1909.752	793.4
1914	766.4
1918.245	772.4
1922.485	760.4
1926.722	755.4
1930.954	760.4
1935.183	755.4
1939.408	742.4
1943.628	745.4
1947.845	734.4
1952.058	738.4
1956.267	725.4
1960.472	730.4
1964.673	712.4
1968.87	690.4
1973.063	702.4
1977.252	694.4
1981.438	698.4
1985.619	690.4
1989.797	696.4
1993.971	688.4
1998.14	693.4
2002.306	694.4
2006.469	695.4
2010.627	709.4
2014.781	709.4
2018.932	691.4
2023.078	689.4
2027.221	679.4
2031.36	676.4
2035.495	678.4
2039.627	669.4
2043.754	645.4
2047.878	655.4
2051.998	661.4
2056.114	636.4
2060.226	635.4
2064.334	646.4
2068.439	638.4
2072.54	636.4
2076.637	636.4
2080.73	641.4
2084.82	622.4
2088.906	624.4
2092.988	630.4
2097.066	604.4
2101.14	596.4
2105.211	604.4
2109.278	596.4
2113.342	584.4
2117.401	576.4
2121.457	567.4
2125.509	557.4
2129.558	568.4
2133.602	574.4
2137.643	573.4
2141.681	572.4
2145.714	571.4
2149.744	554.4
2153.77	568.4
2157.793	561.4
2161.812	558.4
2165.827	543.4
2169.838	538.4
2173.846	532.4
2177.851	534.4
2181.851	517.4
2185.848	506.4
2189.841	506.4
2193.831	497.4
2197.817	491.4
2201.799	499.4
2205.778	499.4
2209.753	484.4
2213.725	493.4
2217.693	498.4
2221.657	485.4
2225.618	493.4
2229.575	487.4
2233.529	493.4
2237.479	477.4
2241.425	477.4
2245.368	462.4
2249.307	458.4
2253.243	446.4
2257.175	448.4
2261.104	436.4
2265.029	432.4
2268.95	431.4
2272.868	426.4
2276.783	424.4
2280.694	412.4
2284.601	406.4
2288.505	401.4
2292.405	405.4
2296.302	394.4
2300.195	392.4
2304.085	378.4
2307.971	373.4
2311.854	370.4
2315.734	354.4
2319.609	354.4
2323.482	362.4
2327.351	359.4
2331.216	370.4
2335.078	379.4
2338.937	364.4
2342.792	344.4
2346.643	347.4
2350.492	346.4
2354.336	344.4
2358.178	347.4
2362.015	340.4
2365.85	353.4
2369.681	352.4
2373.508	349.4
2377.333	345.4
2381.153	343.4
2384.971	340.4
2388.785	345.4
2392.595	335.4
2396.402	334.4
2400.206	328.4
2404.007	331.4
2407.804	333.4
2411.597	335.4
2415.388	319.4
2419.174	323.4
2422.958	324.4
2426.738	318.4
2430.515	309.4
2434.289	316.4
2438.059	308.4
2441.825	302.4
2445.589	305.4
2449.349	302.4
2453.106	298.4
2456.859	301.4
2460.61	300.4
2464.356	281.4
2468.1	281.4
2471.84	277.4
2475.577	288.4
2479.311	265.4
2483.041	277.4
2486.768	273.4
2490.492	273.4
2494.213	268.4
2497.93	262.4
2501.644	274.4
2505.355	259.4
2509.062	252.4
2512.766	255.4
2516.467	251.4
2520.165	252.4
2523.859	253.4
2527.551	251.4
2531.239	241.4
2534.923	244.4
2538.605	240.4
2542.283	229.4
2545.958	230.4
2549.63	227.4
2553.299	214.4
2556.964	234.4
2560.626	218.4
2564.285	215.4
2567.941	211.4
2571.594	210.4
2575.243	208.4
2578.89	214.4
2582.533	198.4
2586.173	201.4
2589.809	190.4
2593.443	197.4
2597.073	196.4
2600.701	192.4
2604.325	175.4
2607.946	191.4
2611.564	194.4
2615.178	195.4
2618.79	189.4
2622.398	189.4
2626.004	189.4
2629.606	183.4
2633.205	179.4
2636.801	180.4
2640.394	180.4
2643.983	165.4
2647.57	179.4
2651.153	168.4
2654.734	164.4
2658.311	165.4
2661.885	159.4
2665.456	162.4
2669.025	163.4
2672.589	164.4
2676.151	164.4
2679.71	159.4
2683.266	149.4
2686.819	154.4
2690.368	150.4
2693.915	143.4
2697.458	139.4
2700.999	142.4
2704.536	145.4
2708.071	131.4
2711.602	129.4
2715.13	128.4
2718.656	127.4
2722.178	133.4
2725.697	118.4
2729.214	120.4
2732.727	121.4
2736.237	123.4
2739.744	119.4
2743.249	116.4
2746.75	117.4
2750.248	122.4
2753.743	115.4
2757.236	102.4
2760.725	105.4
2764.211	103.4
2767.695	101.4
2771.175	97.4
2774.652	97.4
2778.127	97.4
2781.598	99.4
2785.067	102.4
2788.532	95.4
2791.995	98.4
2795.455	94.4
2798.911	97.4
2802.365	104.4
2805.816	100.4
2809.264	101.4
2812.709	109.4
2816.151	101.4
2819.59	103.4
2823.026	98.4
2826.46	104.4
2829.89	101.4
2833.318	98.4
2836.742	105.4
2840.164	105.4
2843.583	106.4
2846.999	100.4
2850.412	98.4
2853.822	104.4
2857.229	108.4
2860.634	117.4
2864.035	113.4
2867.434	120.4
2870.83	117.4
2874.223	129.4
2877.613	130.4
2881	143.4
2884.385	148.4
2887.766	127.4
2891.145	131.4
2894.521	134.4
2897.894	143.4
2901.264	136.4
2904.631	139.4
2907.996	146.4
2911.358	148.4
2914.717	149.4
2918.073	145.4
2921.426	155.4
2924.777	160.4
2928.124	159.4
2931.469	161.4
2934.811	168.4
2938.15	178.4
2941.487	179.4
2944.821	177.4
2948.152	182.4
2951.48	183.4
2954.805	182.4
2958.128	171.4
2961.447	168.4
2964.765	171.4
2968.079	166.4
2971.39	166.4
2974.699	175.4
2978.005	175.4
2981.308	174.4
2984.609	174.4
2987.907	175.4
2991.202	178.4
2994.494	190.4
2997.784	189.4
3001.07	194.4
3004.355	190.4
3007.636	203.4
3010.915	202.4
3014.191	201.4
3017.464	208.4
3020.734	212.4
3024.002	206.4
3027.267	213.4
3030.53	227.4
3033.789	223.4
3037.046	228.4
3040.301	222.4
3043.552	245.4
3046.801	253.4
3050.048	258.4
3053.291	263.4
3056.532	270.4
3059.771	282.4
3063.006	288.4
3066.239	303.4
3069.469	311.4
3072.697	316.4
3075.922	316.4
3079.144	340.4
3082.364	341.4
3085.581	367.4
3088.795	348.4
3092.007	360.4
3095.216	368.4
3098.423	372.4
3101.627	382.4
3104.828	389.4
3108.026	398.4
3111.222	423.4
3114.416	425.4
3117.607	441.4
3120.795	444.4
3123.98	449.4
3127.163	460.4
3130.344	472.4
3133.521	487.4
3136.696	501.4
3139.869	507.4
3143.039	499.4
3146.206	518.4
3149.371	524.4
3152.533	533.4
3155.693	533.4
3158.85	551.4
3162.005	538.4
3165.157	546.4
3168.306	547.4
3171.453	550.4
3174.597	556.4
3177.739	560.4
3180.878	551.4
3184.014	572.4
3187.149	559.4
3190.28	580.4
3193.409	570.4
3196.536	565.4
3199.659	572.4
3202.781	585.4
3205.9	581.4
3209.016	584.4
3212.13	586.4
3215.241	583.4
3218.35	568.4
3221.456	563.4
3224.56	563.4
3227.661	560.4
3230.76	543.4
3233.856	542.4
3236.95	526.4
3240.041	519.4
3243.13	512.4
3246.216	500.4
3249.3	496.4
3252.382	506.4
3255.46	491.4
3258.537	492.4
3261.611	483.4
3264.682	465.4
3267.751	483.4
3270.818	479.4
3273.882	470.4
3276.943	472.4
3280.002	468.4
3283.059	464.4
3286.113	457.4
3289.165	456.4
3292.214	451.4
3295.261	439.4
3298.306	431.4
3301.348	417.4
3304.387	428.4
3307.425	432.4
3310.459	417.4
3313.492	411.4
3316.521	412.4
3319.549	403.4
3322.574	398.4
3325.597	401.4
3328.617	401.4
3331.635	387.4
3334.65	390.4
3337.663	382.4
3340.674	387.4
3343.682	382.4
3346.688	374.4
3349.691	392.4
3352.692	384.4
3355.691	383.4
3358.687	375.4
3361.681	378.4
3364.673	378.4
3367.662	360.4
3370.649	354.4
3373.633	341.4
3376.615	351.4
3379.595	335.4
3382.572	336.4
3385.547	333.4
3388.52	335.4
3391.49	329.4
3394.458	326.4
3397.424	303.4
3400.387	310.4
3403.348	307.4
3406.307	289.4
3409.263	293.4
3412.217	295.4
3415.168	290.4
3418.118	282.4
3421.065	278.4
3424.009	284.4
3426.951	267.4
3429.891	253.4
3432.829	251.4
3435.764	252.4
3438.697	238.4
3441.628	238.4
3444.557	231.4
3447.483	223.4
3450.407	210.4
3453.328	204.4
3456.247	198.4
3459.164	188.4
3462.079	177.4
3464.991	171.4
3467.902	165.4
3470.809	162.4
3473.715	150.4
3476.618	148.4
3479.519	145.4
3482.418	131.4
3485.315	120.4
3488.209	119.4
3491.101	119.4
3493.99	116.4
3496.878	104.4
3499.763	97.4
3502.646	89.4
3505.527	82.4
3508.405	77.4
3511.281	73.4
3514.155	71.4
3517.027	68.4
3519.897	60.4
3522.764	50.4
3525.629	33.4
3528.492	39.4
3531.352	30.4
3534.211	21.4
3537.067	21.4
3539.921	29.4
3542.773	20.4
3545.622	3.4
3548.469	-1.6
3551.315	-4.6
3554.157	-8.6
3556.998	-12.6
3559.837	-11.6
3562.673	-13.6
3565.507	-18.6
3568.339	-18.6
3571.169	-37.6
3573.996	-32.6
3576.822	-32.6
3579.645	-27.6
3582.466	-33.6
3585.285	-43.6
3588.101	-27.6
3590.916	-42.6
3593.728	-56.6
3596.538	-49.6
3599.346	-56.6
3602.152	-55.6
3604.956	-55.6
3607.757	-54.6
3610.556	-58.6
3613.354	-60.6
3616.149	-65.6
3618.942	-79.6
3621.732	-69.6
3624.521	-74.6
3627.307	-68.6
3630.092	-70.6
3632.874	-68.6
3635.654	-83.6
3638.432	-76.6
3641.208	-75.6
3643.982	-82.6
3646.753	-80.6
3649.523	-87.6
3652.29	-81.6
3655.055	-87.6
3657.818	-86.6
3660.579	-89.6
3663.338	-87.6
3666.095	-87.6
3668.849	-96.6
3671.602	-93.6
3674.352	-93.6
3677.101	-100.6
3679.847	-98.6
3682.591	-103.6
3685.333	-99.6
3688.073	-97.6
3690.811	-98.6
3693.547	-105.6
3696.281	-104.6
3699.013	-105.6
3701.742	-109.6
3704.47	-101.6
3707.195	-104.6
3709.919	-109.6
3712.64	-103.6
3715.359	-108.6
3718.076	-108.6
3720.792	-115.6
3723.505	-117.6
3726.216	-111.6
3728.925	-109.6
3731.632	-106.6
3734.336	-117.6
3737.039	-112.6
3739.74	-115.6
3742.439	-121.6
3745.136	-110.6
3747.83	-121.6
3750.523	-117.6
3753.213	-121.6
3755.902	-116.6
3758.589	-115.6
3761.273	-112.6
3763.956	-115.6
3766.636	-115.6
3769.315	-112.6
3771.991	-113.6
3774.665	-119.6
3777.338	-106.6
3780.008	-115.6
3782.677	-118.6
3785.343	-118.6
3788.007	-117.6
3790.67	-115.6
3793.33	-112.6
3795.989	-115.6
3798.645	-113.6
3801.299	-113.6
3803.952	-121.6
3806.602	-112.6
3809.251	-123.6
3811.897	-122.6
3814.542	-122.6
3817.184	-114.6
3819.825	-120.6
3822.463	-116.6
3825.1	-117.6
3827.735	-117.6
3830.367	-121.6
3832.998	-124.6
3835.627	-121.6
3838.253	-114.6
3840.878	-118.6
3843.501	-109.6
3846.122	-116.6
3848.741	-127.6
3851.358	-117.6
3853.973	-127.6
3856.586	-117.6
3859.197	-127.6
3861.806	-117.6
3864.414	-123.6
3867.019	-115.6
3869.622	-122.6
3872.224	-103.6
3874.823	-101.6
3877.421	-94.6
3880.016	-70.6
3882.61	-47.6
3885.202	-40.6
3887.792	-62.6
3890.38	-85.6
3892.966	-106.6
3895.55	-115.6
3898.132	-113.6
3900.713	-119.6
3903.291	-121.6
3905.868	-117.6
3908.442	-113.6
3911.015	-120.6
3913.586	-122.6
3916.155	-123.6
3918.722	-121.6
3921.287	-125.6
3923.85	-127.6
3926.411	-126.6
3928.971	-122.6
3931.528	-126.6
3934.084	-123.6
3936.638	-118.6
3939.19	-126.6
3941.74	-127.6
3944.288	-125.6
3946.834	-121.6
3949.378	-121.6
3951.921	-122.6
3954.462	-127.6
3957	-120.6
3959.537	-118.6
3962.072	-121.6
3964.606	-118.6
3967.137	-119.6
3969.667	-117.6
3972.194	-121.6
3974.72	-121.6
3977.244	-123.6
3979.766	-117.6
3982.286	-120.6
3984.805	-127.6
3987.321	-123.6
3989.836	-113.6
3992.349	-122.6
3994.86	-118.6
3997.369	-123.6
3999.877	-119.6
4002.382	-118.6
4004.886	-125.6
4007.388	-122.6
4009.888	-118.6
4012.386	-127.6
4014.883	-126.6
4017.377	-122.6
4019.87	-118.6
4022.361	-122.6
4024.85	-121.6
4027.338	-122.6
4029.823	-121.6
4032.307	-116.6
4034.789	-120.6
4037.269	-118.6
4039.747	-117.6
4042.224	-117.6
4044.699	-120.6
4047.172	-114.6
4049.643	-118.6
4052.112	-120.6
4054.58	-120.6
4057.046	-124.6
4059.51	-118.6
4061.972	-118.6
4064.432	-121.6
4066.891	-120.6
4069.348	-118.6
4071.803	-124.6
4074.256	-121.6
4076.708	-118.6
4079.158	-120.6
4081.606	-115.6
4084.052	-124.6
4086.497	-120.6
4088.939	-113.6
4091.38	-123.6
4093.819	-119.6
4096.257	-126.6
4098.693	-128.6
4101.127	-126.6
4103.559	-122.6
4105.989	6.4
4108.418	5.4
4110.845	0.4
4113.27	-2.6
4115.694	-2.6
4118.115	3.4
4120.535	-122.6
4122.954	-121.6
4125.37	-115.6
4127.785	-119.6
4130.198	-123.6
4132.609	-120.6
4135.019	-127.6
4137.427	-127.6
4139.833	-124.6
4142.237	-124.6
