Data from 2018-2-8_conc=2_n=4_RamanShift_05.txt Node
Date: Mon Mar 12 14:07:58 IST 2018
User: aro
Spectrometer: QEPB0276
Trigger mode: 0
Integration Time (sec): 3.000000E1
Scans to average: 1
Electric dark correction enabled: true
Nonlinearity correction enabled: false
Boxcar width: 0
XAxis mode: Raman Shifts
Number of Pixels in Spectrum: 1044
>>>>>Begin Spectral Data<<<<<
160.701	-0.5
166.742	40.5
172.777	120.5
178.805	397.5
184.826	1081.5
190.841	2340.5
196.849	3951.5
202.85	5178.5
208.845	5646.5
214.833	5695.5
220.815	5592.5
226.789	5608.5
232.758	5575.5
238.719	5595.5
244.674	5543.5
250.623	5464.5
256.565	5422.5
262.5	5304.5
268.429	5261.5
274.351	5192.5
280.267	5140.5
286.176	5124.5
292.079	5109.5
297.975	5049.5
303.865	5039.5
309.748	5018.5
315.625	5019.5
321.495	5020.5
327.359	4989.5
333.217	4987.5
339.068	5014.5
344.912	5000.5
350.751	4977.5
356.583	5030.5
362.408	4997.5
368.227	5014.5
374.04	5027.5
379.847	5043.5
385.647	5053.5
391.44	5087.5
397.228	5138.5
403.009	5135.5
408.784	5145.5
414.553	5184.5
420.315	5145.5
426.071	5157.5
431.821	5164.5
437.565	5132.5
443.302	5141.5
449.033	5134.5
454.758	5107.5
460.477	5102.5
466.189	5080.5
471.896	5027.5
477.596	5031.5
483.29	5000.5
488.978	4988.5
494.66	4971.5
500.335	4906.5
506.005	4849.5
511.668	4693.5
517.325	4581.5
522.977	4471.5
528.622	4387.5
534.261	4345.5
539.894	4313.5
545.521	4261.5
551.141	4250.5
556.756	4227.5
562.365	4198.5
567.968	4196.5
573.565	4153.5
579.155	4129.5
584.74	4110.5
590.319	4079.5
595.892	4093.5
601.459	4101.5
607.02	4039.5
612.575	4040.5
618.124	4007.5
623.667	3961.5
629.204	3954.5
634.735	3911.5
640.261	3889.5
645.781	3894.5
651.294	3841.5
656.802	3841.5
662.304	3822.5
667.8	3820.5
673.29	3813.5
678.775	3793.5
684.254	3796.5
689.726	3772.5
695.193	3769.5
700.655	3759.5
706.11	3724.5
711.56	3697.5
717.004	3699.5
722.442	3660.5
727.874	3642.5
733.301	3632.5
738.722	3619.5
744.137	3606.5
749.547	3590.5
754.951	3619.5
760.349	3609.5
765.741	3606.5
771.128	3611.5
776.509	3641.5
781.885	3652.5
787.254	3661.5
792.618	3669.5
797.977	3647.5
803.33	3592.5
808.677	3590.5
814.019	3556.5
819.355	3538.5
824.686	3523.5
830.011	3493.5
835.33	3509.5
840.644	3483.5
845.952	3475.5
851.255	3488.5
856.552	3485.5
861.844	3450.5
867.13	3459.5
872.41	3438.5
877.686	3423.5
882.955	3386.5
888.219	3346.5
893.478	3311.5
898.731	3265.5
903.979	3214.5
909.221	3214.5
914.458	3179.5
919.69	3185.5
924.916	3199.5
930.136	3178.5
935.351	3204.5
940.561	3200.5
945.766	3214.5
950.965	3189.5
956.158	3182.5
961.347	3146.5
966.529	3085.5
971.707	3038.5
976.879	3000.5
982.046	2965.5
987.208	2968.5
992.364	2956.5
997.515	2983.5
1002.66	3014.5
1007.801	3063.5
1012.936	3033.5
1018.066	3039.5
1023.19	3061.5
1028.309	3069.5
1033.423	3064.5
1038.532	3023.5
1043.636	3014.5
1048.734	2978.5
1053.827	2970.5
1058.915	2925.5
1063.998	2916.5
1069.075	2881.5
1074.147	2874.5
1079.214	2885.5
1084.276	2920.5
1089.333	2909.5
1094.385	2946.5
1099.431	2950.5
1104.472	2952.5
1109.509	2911.5
1114.54	2871.5
1119.565	2839.5
1124.586	2811.5
1129.602	2765.5
1134.613	2760.5
1139.618	2710.5
1144.619	2710.5
1149.614	2739.5
1154.604	2741.5
1159.589	2755.5
1164.57	2731.5
1169.545	2752.5
1174.515	2736.5
1179.48	2741.5
1184.44	2723.5
1189.395	2702.5
1194.345	2690.5
1199.29	2646.5
1204.23	2649.5
1209.165	2667.5
1214.095	2690.5
1219.021	2689.5
1223.941	2697.5
1228.856	2707.5
1233.766	2731.5
1238.672	2728.5
1243.572	2732.5
1248.467	2711.5
1253.358	2684.5
1258.244	2625.5
1263.124	2598.5
1268	2538.5
1272.871	2522.5
1277.737	2508.5
1282.599	2498.5
1287.455	2472.5
1292.306	2485.5
1297.153	2512.5
1301.995	2524.5
1306.832	2520.5
1311.664	2549.5
1316.491	2556.5
1321.314	2540.5
1326.132	2527.5
1330.945	2499.5
1335.753	2467.5
1340.556	2428.5
1345.354	2378.5
1350.148	2343.5
1354.937	2310.5
1359.722	2272.5
1364.501	2252.5
1369.276	2198.5
1374.046	2159.5
1378.811	2123.5
1383.572	2124.5
1388.327	2098.5
1393.079	2126.5
1397.825	2132.5
1402.567	2135.5
1407.304	2129.5
1412.036	2139.5
1416.764	2143.5
1421.487	2142.5
1426.205	2159.5
1430.919	2157.5
1435.628	2147.5
1440.333	2174.5
1445.032	2188.5
1449.727	2223.5
1454.418	2225.5
1459.104	2223.5
1463.785	2170.5
1468.462	2164.5
1473.134	2106.5
1477.802	2056.5
1482.465	2019.5
1487.123	1970.5
1491.777	1945.5
1496.426	1930.5
1501.071	1898.5
1505.711	1899.5
1510.347	1904.5
1514.978	1878.5
1519.604	1883.5
1524.226	1894.5
1528.844	1865.5
1533.457	1851.5
1538.065	1842.5
1542.669	1846.5
1547.269	1827.5
1551.864	1843.5
1556.454	1878.5
1561.041	1893.5
1565.622	1888.5
1570.199	1893.5
1574.772	1913.5
1579.34	1939.5
1583.904	1973.5
1588.464	1981.5
1593.019	1984.5
1597.569	1980.5
1602.115	1986.5
1606.657	1981.5
1611.195	1976.5
1615.728	1968.5
1620.256	1952.5
1624.78	1966.5
1629.3	1957.5
1633.816	1974.5
1638.327	1995.5
1642.834	1984.5
1647.336	2009.5
1651.834	1982.5
1656.328	1994.5
1660.817	1975.5
1665.302	1977.5
1669.783	1949.5
1674.259	1890.5
1678.732	1842.5
1683.199	1792.5
1687.663	1726.5
1692.122	1682.5
1696.577	1616.5
1701.028	1542.5
1705.474	1470.5
1709.917	1436.5
1714.355	1415.5
1718.788	1384.5
1723.218	1399.5
1727.643	1399.5
1732.064	1394.5
1736.481	1385.5
1740.893	1367.5
1745.301	1332.5
1749.705	1322.5
1754.105	1290.5
1758.501	1267.5
1762.893	1225.5
1767.28	1234.5
1771.663	1224.5
1776.042	1209.5
1780.417	1186.5
1784.787	1172.5
1789.154	1166.5
1793.516	1157.5
1797.874	1119.5
1802.228	1116.5
1806.578	1090.5
1810.924	1095.5
1815.266	1074.5
1819.603	1080.5
1823.937	1089.5
1828.266	1086.5
1832.591	1075.5
1836.913	1087.5
1841.23	1104.5
1845.543	1096.5
1849.852	1082.5
1854.156	1087.5
1858.457	1090.5
1862.754	1087.5
1867.047	1112.5
1871.335	1098.5
1875.62	1097.5
1879.9	1066.5
1884.177	1077.5
1888.449	1076.5
1892.718	1050.5
1896.982	1044.5
1901.243	1020.5
1905.499	1020.5
1909.752	1008.5
1914	977.5
1918.245	985.5
1922.485	955.5
1926.722	961.5
1930.954	940.5
1935.183	954.5
1939.408	934.5
1943.628	938.5
1947.845	923.5
1952.058	911.5
1956.267	902.5
1960.472	896.5
1964.673	886.5
1968.87	885.5
1973.063	885.5
1977.252	868.5
1981.438	880.5
1985.619	877.5
1989.797	871.5
1993.971	880.5
1998.14	878.5
2002.306	882.5
2006.469	883.5
2010.627	878.5
2014.781	893.5
2018.932	894.5
2023.078	892.5
2027.221	866.5
2031.36	875.5
2035.495	845.5
2039.627	845.5
2043.754	829.5
2047.878	818.5
2051.998	827.5
2056.114	816.5
2060.226	805.5
2064.334	825.5
2068.439	809.5
2072.54	797.5
2076.637	815.5
2080.73	807.5
2084.82	794.5
2088.906	790.5
2092.988	783.5
2097.066	769.5
2101.14	753.5
2105.211	736.5
2109.278	726.5
2113.342	728.5
2117.401	719.5
2121.457	719.5
2125.509	714.5
2129.558	712.5
2133.602	721.5
2137.643	729.5
2141.681	714.5
2145.714	722.5
2149.744	723.5
2153.77	713.5
2157.793	707.5
2161.812	704.5
2165.827	691.5
2169.838	680.5
2173.846	686.5
2177.851	670.5
2181.851	663.5
2185.848	663.5
2189.841	658.5
2193.831	646.5
2197.817	649.5
2201.799	640.5
2205.778	643.5
2209.753	635.5
2213.725	634.5
2217.693	636.5
2221.657	632.5
2225.618	636.5
2229.575	618.5
2233.529	631.5
2237.479	625.5
2241.425	609.5
2245.368	601.5
2249.307	596.5
2253.243	590.5
2257.175	582.5
2261.104	579.5
2265.029	551.5
2268.95	559.5
2272.868	547.5
2276.783	545.5
2280.694	535.5
2284.601	536.5
2288.505	530.5
2292.405	523.5
2296.302	529.5
2300.195	513.5
2304.085	510.5
2307.971	496.5
2311.854	501.5
2315.734	481.5
2319.609	480.5
2323.482	475.5
2327.351	483.5
2331.216	481.5
2335.078	498.5
2338.937	477.5
2342.792	465.5
2346.643	467.5
2350.492	470.5
2354.336	460.5
2358.178	469.5
2362.015	460.5
2365.85	465.5
2369.681	481.5
2373.508	471.5
2377.333	463.5
2381.153	466.5
2384.971	474.5
2388.785	473.5
2392.595	469.5
2396.402	454.5
2400.206	462.5
2404.007	450.5
2407.804	455.5
2411.597	458.5
2415.388	446.5
2419.174	439.5
2422.958	435.5
2426.738	439.5
2430.515	437.5
2434.289	443.5
2438.059	430.5
2441.825	426.5
2445.589	428.5
2449.349	415.5
2453.106	412.5
2456.859	410.5
2460.61	409.5
2464.356	389.5
2468.1	401.5
2471.84	397.5
2475.577	395.5
2479.311	369.5
2483.041	371.5
2486.768	379.5
2490.492	377.5
2494.213	375.5
2497.93	371.5
2501.644	370.5
2505.355	361.5
2509.062	353.5
2512.766	361.5
2516.467	351.5
2520.165	350.5
2523.859	347.5
2527.551	351.5
2531.239	330.5
2534.923	332.5
2538.605	319.5
2542.283	325.5
2545.958	318.5
2549.63	320.5
2553.299	307.5
2556.964	312.5
2560.626	307.5
2564.285	297.5
2567.941	307.5
2571.594	305.5
2575.243	296.5
2578.89	291.5
2582.533	284.5
2586.173	283.5
2589.809	278.5
2593.443	282.5
2597.073	276.5
2600.701	266.5
2604.325	264.5
2607.946	256.5
2611.564	263.5
2615.178	271.5
2618.79	264.5
2622.398	260.5
2626.004	259.5
2629.606	259.5
2633.205	255.5
2636.801	244.5
2640.394	251.5
2643.983	246.5
2647.57	258.5
2651.153	243.5
2654.734	245.5
2658.311	238.5
2661.885	234.5
2665.456	240.5
2669.025	227.5
2672.589	237.5
2676.151	228.5
2679.71	231.5
2683.266	215.5
2686.819	221.5
2690.368	212.5
2693.915	214.5
2697.458	203.5
2700.999	210.5
2704.536	213.5
2708.071	199.5
2711.602	197.5
2715.13	199.5
2718.656	198.5
2722.178	180.5
2725.697	181.5
2729.214	175.5
2732.727	194.5
2736.237	181.5
2739.744	176.5
2743.249	173.5
2746.75	169.5
2750.248	163.5
2753.743	153.5
2757.236	154.5
2760.725	146.5
2764.211	143.5
2767.695	147.5
2771.175	144.5
2774.652	148.5
2778.127	146.5
2781.598	137.5
2785.067	155.5
2788.532	148.5
2791.995	149.5
2795.455	157.5
2798.911	147.5
2802.365	158.5
2805.816	149.5
2809.264	151.5
2812.709	155.5
2816.151	153.5
2819.59	151.5
2823.026	152.5
2826.46	143.5
2829.89	145.5
2833.318	150.5
2836.742	147.5
2840.164	142.5
2843.583	145.5
2846.999	159.5
2850.412	156.5
2853.822	156.5
2857.229	147.5
2860.634	158.5
2864.035	170.5
2867.434	161.5
2870.83	172.5
2874.223	184.5
2877.613	191.5
2881	202.5
2884.385	192.5
2887.766	185.5
2891.145	183.5
2894.521	191.5
2897.894	194.5
2901.264	199.5
2904.631	203.5
2907.996	193.5
2911.358	195.5
2914.717	202.5
2918.073	207.5
2921.426	210.5
2924.777	231.5
2928.124	225.5
2931.469	226.5
2934.811	232.5
2938.15	233.5
2941.487	233.5
2944.821	242.5
2948.152	243.5
2951.48	234.5
2954.805	255.5
2958.128	232.5
2961.447	236.5
2964.765	232.5
2968.079	234.5
2971.39	229.5
2974.699	240.5
2978.005	238.5
2981.308	241.5
2984.609	242.5
2987.907	239.5
2991.202	248.5
2994.494	241.5
2997.784	231.5
3001.07	245.5
3004.355	258.5
3007.636	256.5
3010.915	257.5
3014.191	250.5
3017.464	263.5
3020.734	269.5
3024.002	265.5
3027.267	289.5
3030.53	282.5
3033.789	291.5
3037.046	290.5
3040.301	295.5
3043.552	306.5
3046.801	321.5
3050.048	317.5
3053.291	345.5
3056.532	344.5
3059.771	360.5
3063.006	367.5
3066.239	379.5
3069.469	389.5
3072.697	401.5
3075.922	411.5
3079.144	432.5
3082.364	435.5
3085.581	453.5
3088.795	446.5
3092.007	458.5
3095.216	469.5
3098.423	484.5
3101.627	488.5
3104.828	504.5
3108.026	513.5
3111.222	517.5
3114.416	538.5
3117.607	540.5
3120.795	555.5
3123.98	566.5
3127.163	573.5
3130.344	593.5
3133.521	610.5
3136.696	615.5
3139.869	620.5
3143.039	639.5
3146.206	650.5
3149.371	650.5
3152.533	663.5
3155.693	656.5
3158.85	672.5
3162.005	678.5
3165.157	682.5
3168.306	673.5
3171.453	680.5
3174.597	690.5
3177.739	689.5
3180.878	699.5
3184.014	707.5
3187.149	693.5
3190.28	704.5
3193.409	698.5
3196.536	710.5
3199.659	717.5
3202.781	721.5
3205.9	725.5
3209.016	720.5
3212.13	706.5
3215.241	711.5
3218.35	701.5
3221.456	696.5
3224.56	681.5
3227.661	674.5
3230.76	669.5
3233.856	654.5
3236.95	643.5
3240.041	644.5
3243.13	621.5
3246.216	619.5
3249.3	612.5
3252.382	613.5
3255.46	610.5
3258.537	603.5
3261.611	604.5
3264.682	586.5
3267.751	578.5
3270.818	581.5
3273.882	576.5
3276.943	565.5
3280.002	564.5
3283.059	570.5
3286.113	554.5
3289.165	555.5
3292.214	547.5
3295.261	533.5
3298.306	537.5
3301.348	528.5
3304.387	514.5
3307.425	521.5
3310.459	515.5
3313.492	510.5
3316.521	501.5
3319.549	495.5
3322.574	493.5
3325.597	499.5
3328.617	493.5
3331.635	497.5
3334.65	481.5
3337.663	470.5
3340.674	481.5
3343.682	485.5
3346.688	476.5
3349.691	472.5
3352.692	474.5
3355.691	478.5
3358.687	467.5
3361.681	475.5
3364.673	458.5
3367.662	449.5
3370.649	455.5
3373.633	432.5
3376.615	434.5
3379.595	425.5
3382.572	418.5
3385.547	421.5
3388.52	402.5
3391.49	403.5
3394.458	416.5
3397.424	381.5
3400.387	390.5
3403.348	376.5
3406.307	361.5
3409.263	360.5
3412.217	362.5
3415.168	367.5
3418.118	358.5
3421.065	343.5
3424.009	350.5
3426.951	342.5
3429.891	334.5
3432.829	313.5
3435.764	315.5
3438.697	305.5
3441.628	302.5
3444.557	289.5
3447.483	274.5
3450.407	272.5
3453.328	252.5
3456.247	240.5
3459.164	236.5
3462.079	225.5
3464.991	219.5
3467.902	212.5
3470.809	207.5
3473.715	199.5
3476.618	180.5
3479.519	183.5
3482.418	168.5
3485.315	159.5
3488.209	153.5
3491.101	157.5
3493.99	156.5
3496.878	141.5
3499.763	130.5
3502.646	120.5
3505.527	110.5
3508.405	124.5
3511.281	93.5
3514.155	97.5
3517.027	87.5
3519.897	81.5
3522.764	68.5
3525.629	57.5
3528.492	57.5
3531.352	57.5
3534.211	45.5
3537.067	47.5
3539.921	34.5
3542.773	24.5
3545.622	17.5
3548.469	23.5
3551.315	14.5
3554.157	2.5
3556.998	-13.5
3559.837	-6.5
3562.673	-2.5
3565.507	-12.5
3568.339	-14.5
3571.169	-27.5
3573.996	-18.5
3576.822	-27.5
3579.645	-21.5
3582.466	-30.5
3585.285	-33.5
3588.101	-30.5
3590.916	-44.5
3593.728	-49.5
3596.538	-46.5
3599.346	-55.5
3602.152	-52.5
3604.956	-54.5
3607.757	-56.5
3610.556	-52.5
3613.354	-55.5
3616.149	-69.5
3618.942	-73.5
3621.732	-72.5
3624.521	-70.5
3627.307	-73.5
3630.092	-77.5
3632.874	-75.5
3635.654	-78.5
3638.432	-77.5
3641.208	-80.5
3643.982	-84.5
3646.753	-88.5
3649.523	-88.5
3652.29	-89.5
3655.055	-85.5
3657.818	-85.5
3660.579	-87.5
3663.338	-93.5
3666.095	-94.5
3668.849	-99.5
3671.602	-98.5
3674.352	-102.5
3677.101	-102.5
3679.847	-106.5
3682.591	-106.5
3685.333	-103.5
3688.073	-106.5
3690.811	-112.5
3693.547	-118.5
3696.281	-110.5
3699.013	-113.5
3701.742	-114.5
3704.47	-118.5
3707.195	-113.5
3709.919	-113.5
3712.64	-115.5
3715.359	-123.5
3718.076	-117.5
3720.792	-122.5
3723.505	-122.5
3726.216	-115.5
3728.925	-120.5
3731.632	-116.5
3734.336	-124.5
3737.039	-125.5
3739.74	-121.5
3742.439	-132.5
3745.136	-124.5
3747.83	-129.5
3750.523	-126.5
3753.213	-137.5
3755.902	-119.5
3758.589	-127.5
3761.273	-120.5
3763.956	-122.5
3766.636	-121.5
3769.315	-120.5
3771.991	-118.5
3774.665	-129.5
3777.338	-118.5
3780.008	-130.5
3782.677	-126.5
3785.343	-124.5
3788.007	-133.5
3790.67	-132.5
3793.33	-125.5
3795.989	-128.5
3798.645	-121.5
3801.299	-128.5
3803.952	-129.5
3806.602	-122.5
3809.251	-134.5
3811.897	-133.5
3814.542	-128.5
3817.184	-123.5
3819.825	-127.5
3822.463	-130.5
3825.1	-127.5
3827.735	-133.5
3830.367	-133.5
3832.998	-132.5
3835.627	-131.5
3838.253	-125.5
3840.878	-125.5
3843.501	-126.5
3846.122	-130.5
3848.741	-134.5
3851.358	-130.5
3853.973	-135.5
3856.586	-129.5
3859.197	-131.5
3861.806	-121.5
3864.414	-131.5
3867.019	-129.5
3869.622	-130.5
3872.224	-122.5
3874.823	-122.5
3877.421	-112.5
3880.016	-94.5
3882.61	-73.5
3885.202	-78.5
3887.792	-84.5
3890.38	-108.5
3892.966	-127.5
3895.55	-127.5
3898.132	-126.5
3900.713	-133.5
3903.291	-130.5
3905.868	-135.5
3908.442	-127.5
3911.015	-135.5
3913.586	-135.5
3916.155	-139.5
3918.722	-134.5
3921.287	-132.5
3923.85	-136.5
3926.411	-136.5
3928.971	-133.5
3931.528	-129.5
3934.084	-130.5
3936.638	-132.5
3939.19	-135.5
3941.74	-135.5
3944.288	-133.5
3946.834	-130.5
3949.378	-129.5
3951.921	-134.5
3954.462	-142.5
3957	-136.5
3959.537	-130.5
3962.072	-134.5
3964.606	-128.5
3967.137	-126.5
3969.667	-137.5
3972.194	-137.5
3974.72	-133.5
3977.244	-136.5
3979.766	-131.5
3982.286	-132.5
3984.805	-130.5
3987.321	-131.5
3989.836	-125.5
3992.349	-133.5
3994.86	-133.5
3997.369	-133.5
3999.877	-129.5
4002.382	-124.5
4004.886	-132.5
4007.388	-128.5
4009.888	-126.5
4012.386	-130.5
4014.883	-134.5
4017.377	-134.5
4019.87	-131.5
4022.361	-129.5
4024.85	-126.5
4027.338	-128.5
4029.823	-128.5
4032.307	-125.5
4034.789	-132.5
4037.269	-129.5
4039.747	-131.5
4042.224	-127.5
4044.699	-129.5
4047.172	-131.5
4049.643	-128.5
4052.112	-133.5
4054.58	-132.5
4057.046	-130.5
4059.51	-135.5
4061.972	-130.5
4064.432	-126.5
4066.891	-136.5
4069.348	-133.5
4071.803	-135.5
4074.256	-134.5
4076.708	-129.5
4079.158	-132.5
4081.606	-124.5
4084.052	-129.5
4086.497	-126.5
4088.939	-123.5
4091.38	-132.5
4093.819	-133.5
4096.257	-139.5
4098.693	-136.5
4101.127	-138.5
4103.559	-129.5
4105.989	-21.5
4108.418	-20.5
4110.845	-28.5
4113.27	-17.5
4115.694	-25.5
4118.115	-24.5
4120.535	-135.5
4122.954	-134.5
4125.37	-129.5
4127.785	-133.5
4130.198	-125.5
4132.609	-127.5
4135.019	-139.5
4137.427	-141.5
4139.833	-138.5
4142.237	-138.5
