Data from 2018-2-8_conc=2_n=9_RamanShift_04.txt Node
Date: Mon Mar 12 14:23:28 IST 2018
User: aro
Spectrometer: QEPB0276
Trigger mode: 0
Integration Time (sec): 3.000000E1
Scans to average: 1
Electric dark correction enabled: true
Nonlinearity correction enabled: false
Boxcar width: 0
XAxis mode: Raman Shifts
Number of Pixels in Spectrum: 1044
>>>>>Begin Spectral Data<<<<<
160.701	8.9
166.742	39.9
172.777	118.9
178.805	376.9
184.826	1042.9
190.841	2276.9
196.849	3759.9
202.85	4987.9
208.845	5432.9
214.833	5431.9
220.815	5346.9
226.789	5354.9
232.758	5391.9
238.719	5339.9
244.674	5324.9
250.623	5232.9
256.565	5185.9
262.5	5118.9
268.429	5038.9
274.351	4951.9
280.267	4947.9
286.176	4931.9
292.079	4888.9
297.975	4870.9
303.865	4856.9
309.748	4846.9
315.625	4814.9
321.495	4821.9
327.359	4820.9
333.217	4795.9
339.068	4820.9
344.912	4817.9
350.751	4808.9
356.583	4857.9
362.408	4837.9
368.227	4833.9
374.04	4833.9
379.847	4887.9
385.647	4879.9
391.44	4932.9
397.228	4925.9
403.009	4936.9
408.784	5001.9
414.553	5007.9
420.315	4995.9
426.071	4998.9
431.821	4996.9
437.565	5018.9
443.302	4959.9
449.033	4967.9
454.758	4921.9
460.477	4936.9
466.189	4900.9
471.896	4845.9
477.596	4846.9
483.29	4825.9
488.978	4829.9
494.66	4795.9
500.335	4745.9
506.005	4627.9
511.668	4517.9
517.325	4377.9
522.977	4289.9
528.622	4203.9
534.261	4140.9
539.894	4103.9
545.521	4068.9
551.141	4050.9
556.756	4016.9
562.365	4017.9
567.968	3990.9
573.565	3950.9
579.155	3926.9
584.74	3923.9
590.319	3911.9
595.892	3895.9
601.459	3883.9
607.02	3868.9
612.575	3863.9
618.124	3796.9
623.667	3788.9
629.204	3755.9
634.735	3721.9
640.261	3709.9
645.781	3663.9
651.294	3691.9
656.802	3683.9
662.304	3651.9
667.8	3660.9
673.29	3643.9
678.775	3597.9
684.254	3605.9
689.726	3613.9
695.193	3585.9
700.655	3569.9
706.11	3536.9
711.56	3527.9
717.004	3521.9
722.442	3473.9
727.874	3463.9
733.301	3439.9
738.722	3420.9
744.137	3434.9
749.547	3424.9
754.951	3428.9
760.349	3436.9
765.741	3438.9
771.128	3449.9
776.509	3468.9
781.885	3489.9
787.254	3493.9
792.618	3472.9
797.977	3459.9
803.33	3450.9
808.677	3417.9
814.019	3405.9
819.355	3363.9
824.686	3335.9
830.011	3346.9
835.33	3312.9
840.644	3346.9
845.952	3295.9
851.255	3307.9
856.552	3308.9
861.844	3281.9
867.13	3270.9
872.41	3254.9
877.686	3242.9
882.955	3185.9
888.219	3186.9
893.478	3163.9
898.731	3099.9
903.979	3055.9
909.221	3018.9
914.458	3026.9
919.69	3009.9
924.916	3034.9
930.136	3050.9
935.351	3033.9
940.561	3065.9
945.766	3029.9
950.965	3046.9
956.158	2987.9
961.347	2992.9
966.529	2932.9
971.707	2902.9
976.879	2840.9
982.046	2814.9
987.208	2806.9
992.364	2832.9
997.515	2820.9
1002.66	2860.9
1007.801	2869.9
1012.936	2889.9
1018.066	2910.9
1023.19	2884.9
1028.309	2897.9
1033.423	2895.9
1038.532	2897.9
1043.636	2861.9
1048.734	2844.9
1053.827	2807.9
1058.915	2784.9
1063.998	2729.9
1069.075	2749.9
1074.147	2731.9
1079.214	2746.9
1084.276	2766.9
1089.333	2764.9
1094.385	2788.9
1099.431	2770.9
1104.472	2762.9
1109.509	2752.9
1114.54	2736.9
1119.565	2695.9
1124.586	2646.9
1129.602	2626.9
1134.613	2593.9
1139.618	2584.9
1144.619	2596.9
1149.614	2587.9
1154.604	2575.9
1159.589	2596.9
1164.57	2623.9
1169.545	2598.9
1174.515	2619.9
1179.48	2590.9
1184.44	2570.9
1189.395	2562.9
1194.345	2543.9
1199.29	2496.9
1204.23	2531.9
1209.165	2522.9
1214.095	2514.9
1219.021	2541.9
1223.941	2561.9
1228.856	2583.9
1233.766	2574.9
1238.672	2602.9
1243.572	2586.9
1248.467	2566.9
1253.358	2547.9
1258.244	2499.9
1263.124	2431.9
1268	2385.9
1272.871	2387.9
1277.737	2369.9
1282.599	2341.9
1287.455	2334.9
1292.306	2346.9
1297.153	2360.9
1301.995	2379.9
1306.832	2384.9
1311.664	2411.9
1316.491	2402.9
1321.314	2412.9
1326.132	2397.9
1330.945	2356.9
1335.753	2303.9
1340.556	2300.9
1345.354	2274.9
1350.148	2206.9
1354.937	2180.9
1359.722	2153.9
1364.501	2119.9
1369.276	2075.9
1374.046	2038.9
1378.811	2028.9
1383.572	2019.9
1388.327	1986.9
1393.079	1994.9
1397.825	2006.9
1402.567	2013.9
1407.304	2005.9
1412.036	2004.9
1416.764	2021.9
1421.487	2018.9
1426.205	2028.9
1430.919	2022.9
1435.628	2014.9
1440.333	2066.9
1445.032	2068.9
1449.727	2089.9
1454.418	2104.9
1459.104	2095.9
1463.785	2058.9
1468.462	2038.9
1473.134	1985.9
1477.802	1937.9
1482.465	1902.9
1487.123	1872.9
1491.777	1839.9
1496.426	1828.9
1501.071	1788.9
1505.711	1802.9
1510.347	1785.9
1514.978	1789.9
1519.604	1762.9
1524.226	1757.9
1528.844	1759.9
1533.457	1748.9
1538.065	1739.9
1542.669	1741.9
1547.269	1746.9
1551.864	1726.9
1556.454	1758.9
1561.041	1775.9
1565.622	1783.9
1570.199	1788.9
1574.772	1806.9
1579.34	1833.9
1583.904	1847.9
1588.464	1855.9
1593.019	1859.9
1597.569	1898.9
1602.115	1884.9
1606.657	1869.9
1611.195	1869.9
1615.728	1860.9
1620.256	1865.9
1624.78	1845.9
1629.3	1849.9
1633.816	1856.9
1638.327	1866.9
1642.834	1870.9
1647.336	1888.9
1651.834	1898.9
1656.328	1877.9
1660.817	1888.9
1665.302	1842.9
1669.783	1828.9
1674.259	1784.9
1678.732	1751.9
1683.199	1692.9
1687.663	1639.9
1692.122	1603.9
1696.577	1521.9
1701.028	1446.9
1705.474	1391.9
1709.917	1349.9
1714.355	1313.9
1718.788	1312.9
1723.218	1329.9
1727.643	1321.9
1732.064	1332.9
1736.481	1312.9
1740.893	1277.9
1745.301	1245.9
1749.705	1227.9
1754.105	1208.9
1758.501	1190.9
1762.893	1171.9
1767.28	1170.9
1771.663	1145.9
1776.042	1134.9
1780.417	1127.9
1784.787	1117.9
1789.154	1106.9
1793.516	1088.9
1797.874	1066.9
1802.228	1050.9
1806.578	1046.9
1810.924	1035.9
1815.266	1030.9
1819.603	1020.9
1823.937	1016.9
1828.266	1016.9
1832.591	1014.9
1836.913	1026.9
1841.23	1026.9
1845.543	1037.9
1849.852	1027.9
1854.156	1018.9
1858.457	1028.9
1862.754	1033.9
1867.047	1022.9
1871.335	1012.9
1875.62	1035.9
1879.9	1019.9
1884.177	1019.9
1888.449	1000.9
1892.718	997.9
1896.982	962.9
1901.243	945.9
1905.499	937.9
1909.752	936.9
1914	919.9
1918.245	908.9
1922.485	907.9
1926.722	894.9
1930.954	884.9
1935.183	863.9
1939.408	873.9
1943.628	876.9
1947.845	862.9
1952.058	849.9
1956.267	852.9
1960.472	845.9
1964.673	837.9
1968.87	823.9
1973.063	826.9
1977.252	806.9
1981.438	821.9
1985.619	837.9
1989.797	811.9
1993.971	836.9
1998.14	826.9
2002.306	819.9
2006.469	838.9
2010.627	833.9
2014.781	836.9
2018.932	827.9
2023.078	851.9
2027.221	816.9
2031.36	825.9
2035.495	810.9
2039.627	794.9
2043.754	774.9
2047.878	763.9
2051.998	749.9
2056.114	769.9
2060.226	762.9
2064.334	757.9
2068.439	755.9
2072.54	739.9
2076.637	754.9
2080.73	743.9
2084.82	739.9
2088.906	726.9
2092.988	737.9
2097.066	719.9
2101.14	706.9
2105.211	702.9
2109.278	685.9
2113.342	687.9
2117.401	663.9
2121.457	682.9
2125.509	670.9
2129.558	666.9
2133.602	668.9
2137.643	679.9
2141.681	663.9
2145.714	673.9
2149.744	659.9
2153.77	676.9
2157.793	666.9
2161.812	659.9
2165.827	653.9
2169.838	646.9
2173.846	645.9
2177.851	635.9
2181.851	616.9
2185.848	611.9
2189.841	610.9
2193.831	623.9
2197.817	612.9
2201.799	589.9
2205.778	599.9
2209.753	586.9
2213.725	588.9
2217.693	586.9
2221.657	593.9
2225.618	608.9
2229.575	596.9
2233.529	591.9
2237.479	576.9
2241.425	572.9
2245.368	556.9
2249.307	556.9
2253.243	548.9
2257.175	533.9
2261.104	523.9
2265.029	537.9
2268.95	512.9
2272.868	514.9
2276.783	513.9
2280.694	505.9
2284.601	485.9
2288.505	494.9
2292.405	485.9
2296.302	483.9
2300.195	472.9
2304.085	462.9
2307.971	461.9
2311.854	460.9
2315.734	452.9
2319.609	446.9
2323.482	444.9
2327.351	451.9
2331.216	450.9
2335.078	446.9
2338.937	457.9
2342.792	422.9
2346.643	434.9
2350.492	429.9
2354.336	427.9
2358.178	437.9
2362.015	428.9
2365.85	440.9
2369.681	417.9
2373.508	430.9
2377.333	424.9
2381.153	442.9
2384.971	439.9
2388.785	434.9
2392.595	425.9
2396.402	417.9
2400.206	410.9
2404.007	413.9
2407.804	422.9
2411.597	412.9
2415.388	408.9
2419.174	407.9
2422.958	403.9
2426.738	412.9
2430.515	400.9
2434.289	396.9
2438.059	388.9
2441.825	385.9
2445.589	388.9
2449.349	379.9
2453.106	382.9
2456.859	385.9
2460.61	365.9
2464.356	368.9
2468.1	362.9
2471.84	354.9
2475.577	361.9
2479.311	351.9
2483.041	354.9
2486.768	353.9
2490.492	339.9
2494.213	341.9
2497.93	332.9
2501.644	338.9
2505.355	329.9
2509.062	328.9
2512.766	327.9
2516.467	321.9
2520.165	319.9
2523.859	312.9
2527.551	298.9
2531.239	292.9
2534.923	293.9
2538.605	297.9
2542.283	294.9
2545.958	287.9
2549.63	280.9
2553.299	294.9
2556.964	286.9
2560.626	275.9
2564.285	273.9
2567.941	270.9
2571.594	269.9
2575.243	268.9
2578.89	264.9
2582.533	257.9
2586.173	250.9
2589.809	250.9
2593.443	237.9
2597.073	247.9
2600.701	244.9
2604.325	241.9
2607.946	241.9
2611.564	235.9
2615.178	244.9
2618.79	236.9
2622.398	238.9
2626.004	228.9
2629.606	241.9
2633.205	224.9
2636.801	226.9
2640.394	220.9
2643.983	223.9
2647.57	225.9
2651.153	219.9
2654.734	221.9
2658.311	214.9
2661.885	206.9
2665.456	214.9
2669.025	210.9
2672.589	205.9
2676.151	203.9
2679.71	197.9
2683.266	195.9
2686.819	203.9
2690.368	188.9
2693.915	189.9
2697.458	181.9
2700.999	185.9
2704.536	174.9
2708.071	174.9
2711.602	173.9
2715.13	181.9
2718.656	161.9
2722.178	165.9
2725.697	161.9
2729.214	155.9
2732.727	162.9
2736.237	168.9
2739.744	156.9
2743.249	155.9
2746.75	151.9
2750.248	144.9
2753.743	138.9
2757.236	133.9
2760.725	146.9
2764.211	140.9
2767.695	131.9
2771.175	127.9
2774.652	109.9
2778.127	126.9
2781.598	123.9
2785.067	132.9
2788.532	129.9
2791.995	124.9
2795.455	137.9
2798.911	127.9
2802.365	136.9
2805.816	138.9
2809.264	132.9
2812.709	143.9
2816.151	134.9
2819.59	132.9
2823.026	132.9
2826.46	123.9
2829.89	133.9
2833.318	129.9
2836.742	140.9
2840.164	133.9
2843.583	139.9
2846.999	144.9
2850.412	131.9
2853.822	139.9
2857.229	137.9
2860.634	141.9
2864.035	142.9
2867.434	146.9
2870.83	160.9
2874.223	167.9
2877.613	168.9
2881	181.9
2884.385	176.9
2887.766	166.9
2891.145	168.9
2894.521	174.9
2897.894	183.9
2901.264	178.9
2904.631	182.9
2907.996	184.9
2911.358	190.9
2914.717	185.9
2918.073	197.9
2921.426	190.9
2924.777	214.9
2928.124	207.9
2931.469	212.9
2934.811	212.9
2938.15	215.9
2941.487	215.9
2944.821	228.9
2948.152	225.9
2951.48	226.9
2954.805	226.9
2958.128	220.9
2961.447	208.9
2964.765	216.9
2968.079	208.9
2971.39	212.9
2974.699	226.9
2978.005	221.9
2981.308	222.9
2984.609	222.9
2987.907	218.9
2991.202	224.9
2994.494	230.9
2997.784	227.9
3001.07	237.9
3004.355	230.9
3007.636	236.9
3010.915	241.9
3014.191	235.9
3017.464	249.9
3020.734	249.9
3024.002	253.9
3027.267	260.9
3030.53	255.9
3033.789	264.9
3037.046	278.9
3040.301	281.9
3043.552	293.9
3046.801	295.9
3050.048	313.9
3053.291	320.9
3056.532	323.9
3059.771	341.9
3063.006	342.9
3066.239	362.9
3069.469	372.9
3072.697	380.9
3075.922	393.9
3079.144	389.9
3082.364	411.9
3085.581	419.9
3088.795	429.9
3092.007	423.9
3095.216	429.9
3098.423	461.9
3101.627	470.9
3104.828	474.9
3108.026	480.9
3111.222	488.9
3114.416	500.9
3117.607	508.9
3120.795	517.9
3123.98	538.9
3127.163	542.9
3130.344	573.9
3133.521	576.9
3136.696	586.9
3139.869	605.9
3143.039	609.9
3146.206	606.9
3149.371	621.9
3152.533	639.9
3155.693	637.9
3158.85	640.9
3162.005	647.9
3165.157	643.9
3168.306	646.9
3171.453	645.9
3174.597	652.9
3177.739	646.9
3180.878	651.9
3184.014	667.9
3187.149	657.9
3190.28	655.9
3193.409	657.9
3196.536	670.9
3199.659	675.9
3202.781	684.9
3205.9	682.9
3209.016	683.9
3212.13	680.9
3215.241	675.9
3218.35	678.9
3221.456	657.9
3224.56	647.9
3227.661	641.9
3230.76	624.9
3233.856	628.9
3236.95	622.9
3240.041	619.9
3243.13	593.9
3246.216	591.9
3249.3	583.9
3252.382	591.9
3255.46	580.9
3258.537	571.9
3261.611	571.9
3264.682	556.9
3267.751	561.9
3270.818	556.9
3273.882	541.9
3276.943	552.9
3280.002	555.9
3283.059	537.9
3286.113	529.9
3289.165	542.9
3292.214	525.9
3295.261	505.9
3298.306	516.9
3301.348	500.9
3304.387	496.9
3307.425	497.9
3310.459	487.9
3313.492	481.9
3316.521	473.9
3319.549	481.9
3322.574	469.9
3325.597	467.9
3328.617	476.9
3331.635	460.9
3334.65	467.9
3337.663	457.9
3340.674	463.9
3343.682	461.9
3346.688	452.9
3349.691	454.9
3352.692	451.9
3355.691	452.9
3358.687	453.9
3361.681	446.9
3364.673	435.9
3367.662	424.9
3370.649	432.9
3373.633	409.9
3376.615	416.9
3379.595	394.9
3382.572	402.9
3385.547	387.9
3388.52	394.9
3391.49	382.9
3394.458	385.9
3397.424	370.9
3400.387	354.9
3403.348	364.9
3406.307	349.9
3409.263	350.9
3412.217	341.9
3415.168	351.9
3418.118	337.9
3421.065	329.9
3424.009	327.9
3426.951	327.9
3429.891	314.9
3432.829	299.9
3435.764	298.9
3438.697	298.9
3441.628	282.9
3444.557	272.9
3447.483	262.9
3450.407	255.9
3453.328	246.9
3456.247	234.9
3459.164	222.9
3462.079	217.9
3464.991	209.9
3467.902	186.9
3470.809	207.9
3473.715	186.9
3476.618	173.9
3479.519	170.9
3482.418	150.9
3485.315	152.9
3488.209	142.9
3491.101	147.9
3493.99	142.9
3496.878	133.9
3499.763	116.9
3502.646	108.9
3505.527	102.9
3508.405	101.9
3511.281	97.9
3514.155	85.9
3517.027	79.9
3519.897	68.9
3522.764	61.9
3525.629	54.9
3528.492	43.9
3531.352	42.9
3534.211	34.9
3537.067	36.9
3539.921	32.9
3542.773	23.9
3545.622	14.9
3548.469	9.9
3551.315	9.9
3554.157	0.9
3556.998	-12.1
3559.837	-6.1
3562.673	-12.1
3565.507	-8.1
3568.339	-19.1
3571.169	-22.1
3573.996	-21.1
3576.822	-29.1
3579.645	-31.1
3582.466	-29.1
3585.285	-40.1
3588.101	-28.1
3590.916	-40.1
3593.728	-48.1
3596.538	-56.1
3599.346	-57.1
3602.152	-57.1
3604.956	-56.1
3607.757	-58.1
3610.556	-57.1
3613.354	-54.1
3616.149	-67.1
3618.942	-73.1
3621.732	-71.1
3624.521	-72.1
3627.307	-72.1
3630.092	-73.1
3632.874	-68.1
3635.654	-76.1
3638.432	-72.1
3641.208	-86.1
3643.982	-90.1
3646.753	-88.1
3649.523	-87.1
3652.29	-89.1
3655.055	-87.1
3657.818	-89.1
3660.579	-85.1
3663.338	-89.1
3666.095	-96.1
3668.849	-97.1
3671.602	-99.1
3674.352	-103.1
3677.101	-106.1
3679.847	-104.1
3682.591	-106.1
3685.333	-101.1
3688.073	-107.1
3690.811	-105.1
3693.547	-112.1
3696.281	-114.1
3699.013	-109.1
3701.742	-111.1
3704.47	-107.1
3707.195	-107.1
3709.919	-108.1
3712.64	-111.1
3715.359	-121.1
3718.076	-115.1
3720.792	-116.1
3723.505	-116.1
3726.216	-118.1
3728.925	-114.1
3731.632	-114.1
3734.336	-122.1
3737.039	-115.1
3739.74	-128.1
3742.439	-131.1
3745.136	-117.1
3747.83	-125.1
3750.523	-122.1
3753.213	-118.1
3755.902	-120.1
3758.589	-123.1
3761.273	-121.1
3763.956	-116.1
3766.636	-122.1
3769.315	-115.1
3771.991	-118.1
3774.665	-123.1
3777.338	-118.1
3780.008	-124.1
3782.677	-125.1
3785.343	-122.1
3788.007	-127.1
3790.67	-123.1
3793.33	-121.1
3795.989	-122.1
3798.645	-119.1
3801.299	-122.1
3803.952	-131.1
3806.602	-121.1
3809.251	-126.1
3811.897	-130.1
3814.542	-126.1
3817.184	-119.1
3819.825	-128.1
3822.463	-126.1
3825.1	-129.1
3827.735	-127.1
3830.367	-134.1
3832.998	-127.1
3835.627	-123.1
3838.253	-124.1
3840.878	-125.1
3843.501	-129.1
3846.122	-127.1
3848.741	-127.1
3851.358	-122.1
3853.973	-129.1
3856.586	-126.1
3859.197	-131.1
3861.806	-119.1
3864.414	-129.1
3867.019	-127.1
3869.622	-128.1
3872.224	-115.1
3874.823	-108.1
3877.421	-99.1
3880.016	-81.1
3882.61	-67.1
3885.202	-64.1
3887.792	-77.1
3890.38	-96.1
3892.966	-120.1
3895.55	-117.1
3898.132	-122.1
3900.713	-122.1
3903.291	-132.1
3905.868	-129.1
3908.442	-123.1
3911.015	-135.1
3913.586	-128.1
3916.155	-130.1
3918.722	-128.1
3921.287	-124.1
3923.85	-132.1
3926.411	-133.1
3928.971	-127.1
3931.528	-132.1
3934.084	-127.1
3936.638	-123.1
3939.19	-133.1
3941.74	-131.1
3944.288	-129.1
3946.834	-128.1
3949.378	-128.1
3951.921	-130.1
3954.462	-135.1
3957	-133.1
3959.537	-127.1
3962.072	-134.1
3964.606	-122.1
3967.137	-129.1
3969.667	-132.1
3972.194	-133.1
3974.72	-127.1
3977.244	-132.1
3979.766	-129.1
3982.286	-130.1
3984.805	-131.1
3987.321	-128.1
3989.836	-122.1
3992.349	-128.1
3994.86	-127.1
3997.369	-126.1
3999.877	-126.1
4002.382	-122.1
4004.886	-131.1
4007.388	-127.1
4009.888	-126.1
4012.386	-128.1
4014.883	-127.1
4017.377	-128.1
4019.87	-125.1
4022.361	-131.1
4024.85	-128.1
4027.338	-130.1
4029.823	-127.1
4032.307	-122.1
4034.789	-128.1
4037.269	-130.1
4039.747	-126.1
4042.224	-123.1
4044.699	-133.1
4047.172	-128.1
4049.643	-125.1
4052.112	-126.1
4054.58	-127.1
4057.046	-126.1
4059.51	-129.1
4061.972	-130.1
4064.432	-132.1
4066.891	-128.1
4069.348	-124.1
4071.803	-133.1
4074.256	-128.1
4076.708	-127.1
4079.158	-129.1
4081.606	-123.1
4084.052	-132.1
4086.497	-127.1
4088.939	-118.1
4091.38	-127.1
4093.819	-131.1
4096.257	-135.1
4098.693	-132.1
4101.127	-136.1
4103.559	-132.1
4105.989	-8.1
4108.418	-8.1
4110.845	-11.1
4113.27	-10.1
4115.694	-11.1
4118.115	-8.1
4120.535	-131.1
4122.954	-137.1
4125.37	-127.1
4127.785	-132.1
4130.198	-128.1
4132.609	-124.1
4135.019	-134.1
4137.427	-138.1
4139.833	-136.1
4142.237	-136.1
