Data from 2018-2-8_conc=5_n=3_RamanShift_03.txt Node
Date: Mon Mar 12 15:57:58 IST 2018
User: aro
Spectrometer: QEPB0276
Trigger mode: 0
Integration Time (sec): 3.000000E1
Scans to average: 1
Electric dark correction enabled: true
Nonlinearity correction enabled: false
Boxcar width: 0
XAxis mode: Raman Shifts
Number of Pixels in Spectrum: 1044
>>>>>Begin Spectral Data<<<<<
160.701	25.4
166.742	52.4
172.777	112.4
178.805	337.4
184.826	901.4
190.841	1888.4
196.849	3122.4
202.85	4091.4
208.845	4477.4
214.833	4452.4
220.815	4383.4
226.789	4395.4
232.758	4413.4
238.719	4427.4
244.674	4395.4
250.623	4361.4
256.565	4289.4
262.5	4245.4
268.429	4190.4
274.351	4154.4
280.267	4120.4
286.176	4129.4
292.079	4087.4
297.975	4104.4
303.865	4072.4
309.748	4088.4
315.625	4085.4
321.495	4046.4
327.359	4065.4
333.217	4062.4
339.068	4102.4
344.912	4098.4
350.751	4107.4
356.583	4100.4
362.408	4108.4
368.227	4132.4
374.04	4139.4
379.847	4145.4
385.647	4160.4
391.44	4182.4
397.228	4225.4
403.009	4257.4
408.784	4258.4
414.553	4274.4
420.315	4274.4
426.071	4285.4
431.821	4259.4
437.565	4263.4
443.302	4252.4
449.033	4265.4
454.758	4230.4
460.477	4230.4
466.189	4194.4
471.896	4153.4
477.596	4123.4
483.29	4123.4
488.978	4095.4
494.66	4104.4
500.335	4031.4
506.005	3908.4
511.668	3788.4
517.325	3635.4
522.977	3553.4
528.622	3456.4
534.261	3388.4
539.894	3348.4
545.521	3299.4
551.141	3281.4
556.756	3265.4
562.365	3209.4
567.968	3231.4
573.565	3178.4
579.155	3173.4
584.74	3170.4
590.319	3148.4
595.892	3165.4
601.459	3139.4
607.02	3121.4
612.575	3099.4
618.124	3067.4
623.667	3046.4
629.204	3034.4
634.735	2992.4
640.261	2969.4
645.781	2949.4
651.294	2969.4
656.802	2942.4
662.304	2944.4
667.8	2928.4
673.29	2917.4
678.775	2881.4
684.254	2900.4
689.726	2882.4
695.193	2866.4
700.655	2872.4
706.11	2827.4
711.56	2820.4
717.004	2795.4
722.442	2798.4
727.874	2788.4
733.301	2764.4
738.722	2767.4
744.137	2767.4
749.547	2769.4
754.951	2743.4
760.349	2764.4
765.741	2769.4
771.128	2751.4
776.509	2784.4
781.885	2787.4
787.254	2810.4
792.618	2821.4
797.977	2832.4
803.33	2783.4
808.677	2778.4
814.019	2739.4
819.355	2719.4
824.686	2702.4
830.011	2679.4
835.33	2692.4
840.644	2689.4
845.952	2665.4
851.255	2668.4
856.552	2658.4
861.844	2626.4
867.13	2614.4
872.41	2614.4
877.686	2571.4
882.955	2551.4
888.219	2543.4
893.478	2515.4
898.731	2472.4
903.979	2438.4
909.221	2434.4
914.458	2422.4
919.69	2405.4
924.916	2430.4
930.136	2438.4
935.351	2421.4
940.561	2438.4
945.766	2423.4
950.965	2409.4
956.158	2414.4
961.347	2376.4
966.529	2348.4
971.707	2305.4
976.879	2268.4
982.046	2260.4
987.208	2242.4
992.364	2237.4
997.515	2247.4
1002.66	2285.4
1007.801	2308.4
1012.936	2330.4
1018.066	2317.4
1023.19	2305.4
1028.309	2324.4
1033.423	2330.4
1038.532	2296.4
1043.636	2292.4
1048.734	2264.4
1053.827	2264.4
1058.915	2210.4
1063.998	2204.4
1069.075	2202.4
1074.147	2196.4
1079.214	2212.4
1084.276	2194.4
1089.333	2230.4
1094.385	2220.4
1099.431	2224.4
1104.472	2223.4
1109.509	2207.4
1114.54	2163.4
1119.565	2161.4
1124.586	2118.4
1129.602	2088.4
1134.613	2095.4
1139.618	2069.4
1144.619	2058.4
1149.614	2065.4
1154.604	2078.4
1159.589	2080.4
1164.57	2078.4
1169.545	2073.4
1174.515	2091.4
1179.48	2089.4
1184.44	2050.4
1189.395	2044.4
1194.345	2033.4
1199.29	2034.4
1204.23	2020.4
1209.165	2044.4
1214.095	2035.4
1219.021	2036.4
1223.941	2039.4
1228.856	2074.4
1233.766	2079.4
1238.672	2085.4
1243.572	2065.4
1248.467	2057.4
1253.358	2055.4
1258.244	1988.4
1263.124	1977.4
1268	1919.4
1272.871	1932.4
1277.737	1882.4
1282.599	1885.4
1287.455	1882.4
1292.306	1903.4
1297.153	1884.4
1301.995	1909.4
1306.832	1912.4
1311.664	1941.4
1316.491	1930.4
1321.314	1942.4
1326.132	1922.4
1330.945	1907.4
1335.753	1867.4
1340.556	1858.4
1345.354	1819.4
1350.148	1801.4
1354.937	1753.4
1359.722	1754.4
1364.501	1699.4
1369.276	1694.4
1374.046	1660.4
1378.811	1616.4
1383.572	1630.4
1388.327	1618.4
1393.079	1608.4
1397.825	1636.4
1402.567	1622.4
1407.304	1618.4
1412.036	1616.4
1416.764	1648.4
1421.487	1629.4
1426.205	1645.4
1430.919	1649.4
1435.628	1653.4
1440.333	1665.4
1445.032	1669.4
1449.727	1700.4
1454.418	1707.4
1459.104	1694.4
1463.785	1675.4
1468.462	1655.4
1473.134	1613.4
1477.802	1580.4
1482.465	1546.4
1487.123	1536.4
1491.777	1503.4
1496.426	1496.4
1501.071	1484.4
1505.711	1481.4
1510.347	1478.4
1514.978	1484.4
1519.604	1469.4
1524.226	1471.4
1528.844	1461.4
1533.457	1455.4
1538.065	1433.4
1542.669	1439.4
1547.269	1431.4
1551.864	1435.4
1556.454	1453.4
1561.041	1468.4
1565.622	1469.4
1570.199	1464.4
1574.772	1468.4
1579.34	1500.4
1583.904	1509.4
1588.464	1535.4
1593.019	1537.4
1597.569	1548.4
1602.115	1531.4
1606.657	1534.4
1611.195	1518.4
1615.728	1496.4
1620.256	1514.4
1624.78	1528.4
1629.3	1527.4
1633.816	1526.4
1638.327	1527.4
1642.834	1530.4
1647.336	1539.4
1651.834	1538.4
1656.328	1540.4
1660.817	1548.4
1665.302	1548.4
1669.783	1513.4
1674.259	1478.4
1678.732	1448.4
1683.199	1406.4
1687.663	1363.4
1692.122	1316.4
1696.577	1301.4
1701.028	1226.4
1705.474	1190.4
1709.917	1139.4
1714.355	1132.4
1718.788	1113.4
1723.218	1101.4
1727.643	1104.4
1732.064	1099.4
1736.481	1103.4
1740.893	1067.4
1745.301	1060.4
1749.705	1035.4
1754.105	1026.4
1758.501	1010.4
1762.893	976.4
1767.28	955.4
1771.663	955.4
1776.042	952.4
1780.417	938.4
1784.787	956.4
1789.154	928.4
1793.516	926.4
1797.874	900.4
1802.228	911.4
1806.578	886.4
1810.924	874.4
1815.266	872.4
1819.603	862.4
1823.937	872.4
1828.266	851.4
1832.591	864.4
1836.913	862.4
1841.23	867.4
1845.543	863.4
1849.852	876.4
1854.156	881.4
1858.457	870.4
1862.754	869.4
1867.047	856.4
1871.335	865.4
1875.62	883.4
1879.9	863.4
1884.177	859.4
1888.449	847.4
1892.718	841.4
1896.982	837.4
1901.243	818.4
1905.499	803.4
1909.752	808.4
1914	793.4
1918.245	785.4
1922.485	770.4
1926.722	766.4
1930.954	774.4
1935.183	764.4
1939.408	755.4
1943.628	779.4
1947.845	748.4
1952.058	727.4
1956.267	735.4
1960.472	719.4
1964.673	718.4
1968.87	715.4
1973.063	711.4
1977.252	703.4
1981.438	709.4
1985.619	690.4
1989.797	689.4
1993.971	698.4
1998.14	727.4
2002.306	704.4
2006.469	700.4
2010.627	713.4
2014.781	716.4
2018.932	712.4
2023.078	700.4
2027.221	696.4
2031.36	695.4
2035.495	680.4
2039.627	672.4
2043.754	659.4
2047.878	664.4
2051.998	656.4
2056.114	640.4
2060.226	654.4
2064.334	654.4
2068.439	654.4
2072.54	648.4
2076.637	642.4
2080.73	632.4
2084.82	637.4
2088.906	632.4
2092.988	624.4
2097.066	634.4
2101.14	627.4
2105.211	610.4
2109.278	607.4
2113.342	594.4
2117.401	593.4
2121.457	577.4
2125.509	568.4
2129.558	575.4
2133.602	570.4
2137.643	571.4
2141.681	566.4
2145.714	574.4
2149.744	573.4
2153.77	565.4
2157.793	566.4
2161.812	560.4
2165.827	558.4
2169.838	556.4
2173.846	545.4
2177.851	533.4
2181.851	511.4
2185.848	531.4
2189.841	521.4
2193.831	512.4
2197.817	508.4
2201.799	505.4
2205.778	507.4
2209.753	497.4
2213.725	499.4
2217.693	493.4
2221.657	496.4
2225.618	497.4
2229.575	495.4
2233.529	487.4
2237.479	490.4
2241.425	481.4
2245.368	468.4
2249.307	468.4
2253.243	453.4
2257.175	459.4
2261.104	442.4
2265.029	440.4
2268.95	442.4
2272.868	425.4
2276.783	416.4
2280.694	416.4
2284.601	414.4
2288.505	413.4
2292.405	411.4
2296.302	405.4
2300.195	396.4
2304.085	393.4
2307.971	383.4
2311.854	386.4
2315.734	375.4
2319.609	364.4
2323.482	374.4
2327.351	373.4
2331.216	378.4
2335.078	396.4
2338.937	371.4
2342.792	351.4
2346.643	356.4
2350.492	350.4
2354.336	347.4
2358.178	357.4
2362.015	348.4
2365.85	360.4
2369.681	357.4
2373.508	357.4
2377.333	346.4
2381.153	353.4
2384.971	359.4
2388.785	350.4
2392.595	343.4
2396.402	345.4
2400.206	342.4
2404.007	343.4
2407.804	344.4
2411.597	339.4
2415.388	335.4
2419.174	329.4
2422.958	322.4
2426.738	332.4
2430.515	333.4
2434.289	330.4
2438.059	329.4
2441.825	314.4
2445.589	317.4
2449.349	306.4
2453.106	319.4
2456.859	308.4
2460.61	304.4
2464.356	293.4
2468.1	291.4
2471.84	288.4
2475.577	296.4
2479.311	280.4
2483.041	283.4
2486.768	277.4
2490.492	274.4
2494.213	284.4
2497.93	281.4
2501.644	271.4
2505.355	271.4
2509.062	276.4
2512.766	267.4
2516.467	270.4
2520.165	260.4
2523.859	258.4
2527.551	261.4
2531.239	241.4
2534.923	250.4
2538.605	247.4
2542.283	252.4
2545.958	234.4
2549.63	244.4
2553.299	235.4
2556.964	246.4
2560.626	238.4
2564.285	234.4
2567.941	230.4
2571.594	220.4
2575.243	218.4
2578.89	217.4
2582.533	215.4
2586.173	216.4
2589.809	207.4
2593.443	209.4
2597.073	196.4
2600.701	200.4
2604.325	200.4
2607.946	200.4
2611.564	191.4
2615.178	197.4
2618.79	212.4
2622.398	200.4
2626.004	186.4
2629.606	192.4
2633.205	184.4
2636.801	185.4
2640.394	187.4
2643.983	190.4
2647.57	189.4
2651.153	181.4
2654.734	170.4
2658.311	170.4
2661.885	161.4
2665.456	158.4
2669.025	174.4
2672.589	170.4
2676.151	170.4
2679.71	176.4
2683.266	153.4
2686.819	158.4
2690.368	154.4
2693.915	144.4
2697.458	153.4
2700.999	152.4
2704.536	144.4
2708.071	138.4
2711.602	143.4
2715.13	138.4
2718.656	131.4
2722.178	132.4
2725.697	130.4
2729.214	127.4
2732.727	135.4
2736.237	131.4
2739.744	126.4
2743.249	127.4
2746.75	115.4
2750.248	118.4
2753.743	120.4
2757.236	115.4
2760.725	118.4
2764.211	105.4
2767.695	100.4
2771.175	98.4
2774.652	96.4
2778.127	110.4
2781.598	106.4
2785.067	103.4
2788.532	98.4
2791.995	104.4
2795.455	106.4
2798.911	99.4
2802.365	106.4
2805.816	115.4
2809.264	103.4
2812.709	118.4
2816.151	105.4
2819.59	108.4
2823.026	110.4
2826.46	94.4
2829.89	110.4
2833.318	111.4
2836.742	106.4
2840.164	103.4
2843.583	109.4
2846.999	111.4
2850.412	96.4
2853.822	107.4
2857.229	110.4
2860.634	116.4
2864.035	119.4
2867.434	118.4
2870.83	127.4
2874.223	130.4
2877.613	136.4
2881	146.4
2884.385	145.4
2887.766	130.4
2891.145	129.4
2894.521	142.4
2897.894	138.4
2901.264	141.4
2904.631	135.4
2907.996	136.4
2911.358	139.4
2914.717	142.4
2918.073	137.4
2921.426	144.4
2924.777	155.4
2928.124	160.4
2931.469	159.4
2934.811	174.4
2938.15	166.4
2941.487	168.4
2944.821	167.4
2948.152	172.4
2951.48	170.4
2954.805	181.4
2958.128	173.4
2961.447	161.4
2964.765	167.4
2968.079	158.4
2971.39	170.4
2974.699	173.4
2978.005	169.4
2981.308	171.4
2984.609	172.4
2987.907	167.4
2991.202	171.4
2994.494	169.4
2997.784	168.4
3001.07	190.4
3004.355	191.4
3007.636	185.4
3010.915	186.4
3014.191	183.4
3017.464	193.4
3020.734	194.4
3024.002	188.4
3027.267	209.4
3030.53	205.4
3033.789	212.4
3037.046	215.4
3040.301	207.4
3043.552	226.4
3046.801	233.4
3050.048	239.4
3053.291	252.4
3056.532	255.4
3059.771	262.4
3063.006	273.4
3066.239	283.4
3069.469	289.4
3072.697	296.4
3075.922	310.4
3079.144	306.4
3082.364	321.4
3085.581	331.4
3088.795	331.4
3092.007	340.4
3095.216	350.4
3098.423	359.4
3101.627	370.4
3104.828	382.4
3108.026	380.4
3111.222	385.4
3114.416	397.4
3117.607	404.4
3120.795	410.4
3123.98	430.4
3127.163	444.4
3130.344	460.4
3133.521	451.4
3136.696	473.4
3139.869	468.4
3143.039	494.4
3146.206	488.4
3149.371	495.4
3152.533	507.4
3155.693	512.4
3158.85	507.4
3162.005	515.4
3165.157	516.4
3168.306	508.4
3171.453	516.4
3174.597	526.4
3177.739	524.4
3180.878	528.4
3184.014	534.4
3187.149	537.4
3190.28	541.4
3193.409	535.4
3196.536	530.4
3199.659	551.4
3202.781	538.4
3205.9	544.4
3209.016	549.4
3212.13	545.4
3215.241	541.4
3218.35	525.4
3221.456	517.4
3224.56	517.4
3227.661	513.4
3230.76	510.4
3233.856	500.4
3236.95	496.4
3240.041	488.4
3243.13	468.4
3246.216	460.4
3249.3	463.4
3252.382	459.4
3255.46	458.4
3258.537	460.4
3261.611	442.4
3264.682	440.4
3267.751	448.4
3270.818	428.4
3273.882	436.4
3276.943	421.4
3280.002	428.4
3283.059	432.4
3286.113	417.4
3289.165	418.4
3292.214	409.4
3295.261	405.4
3298.306	395.4
3301.348	390.4
3304.387	393.4
3307.425	395.4
3310.459	389.4
3313.492	377.4
3316.521	372.4
3319.549	365.4
3322.574	359.4
3325.597	367.4
3328.617	363.4
3331.635	363.4
3334.65	355.4
3337.663	345.4
3340.674	362.4
3343.682	349.4
3346.688	347.4
3349.691	346.4
3352.692	350.4
3355.691	358.4
3358.687	343.4
3361.681	343.4
3364.673	338.4
3367.662	341.4
3370.649	319.4
3373.633	324.4
3376.615	303.4
3379.595	314.4
3382.572	305.4
3385.547	303.4
3388.52	292.4
3391.49	292.4
3394.458	291.4
3397.424	272.4
3400.387	269.4
3403.348	284.4
3406.307	264.4
3409.263	266.4
3412.217	263.4
3415.168	262.4
3418.118	262.4
3421.065	250.4
3424.009	243.4
3426.951	241.4
3429.891	238.4
3432.829	234.4
3435.764	216.4
3438.697	216.4
3441.628	207.4
3444.557	207.4
3447.483	206.4
3450.407	181.4
3453.328	188.4
3456.247	180.4
3459.164	167.4
3462.079	154.4
3464.991	150.4
3467.902	136.4
3470.809	137.4
3473.715	128.4
3476.618	126.4
3479.519	124.4
3482.418	116.4
3485.315	100.4
3488.209	99.4
3491.101	95.4
3493.99	105.4
3496.878	87.4
3499.763	82.4
3502.646	77.4
3505.527	69.4
3508.405	66.4
3511.281	57.4
3514.155	56.4
3517.027	48.4
3519.897	41.4
3522.764	38.4
3525.629	33.4
3528.492	29.4
3531.352	16.4
3534.211	15.4
3537.067	8.4
3539.921	6.4
3542.773	0.4
3545.622	-6.6
3548.469	-11.6
3551.315	-9.6
3554.157	-17.6
3556.998	-21.6
3559.837	-23.6
3562.673	-24.6
3565.507	-24.6
3568.339	-29.6
3571.169	-41.6
3573.996	-36.6
3576.822	-37.6
3579.645	-41.6
3582.466	-38.6
3585.285	-51.6
3588.101	-43.6
3590.916	-51.6
3593.728	-59.6
3596.538	-56.6
3599.346	-60.6
3602.152	-62.6
3604.956	-57.6
3607.757	-62.6
3610.556	-67.6
3613.354	-65.6
3616.149	-76.6
3618.942	-75.6
3621.732	-80.6
3624.521	-70.6
3627.307	-78.6
3630.092	-82.6
3632.874	-74.6
3635.654	-82.6
3638.432	-81.6
3641.208	-79.6
3643.982	-85.6
3646.753	-88.6
3649.523	-87.6
3652.29	-86.6
3655.055	-88.6
3657.818	-92.6
3660.579	-89.6
3663.338	-91.6
3666.095	-96.6
3668.849	-94.6
3671.602	-97.6
3674.352	-102.6
3677.101	-101.6
3679.847	-102.6
3682.591	-104.6
3685.333	-101.6
3688.073	-98.6
3690.811	-117.6
3693.547	-116.6
3696.281	-110.6
3699.013	-111.6
3701.742	-109.6
3704.47	-107.6
3707.195	-106.6
3709.919	-110.6
3712.64	-112.6
3715.359	-118.6
3718.076	-114.6
3720.792	-120.6
3723.505	-114.6
3726.216	-116.6
3728.925	-119.6
3731.632	-111.6
3734.336	-121.6
3737.039	-116.6
3739.74	-121.6
3742.439	-117.6
3745.136	-110.6
3747.83	-120.6
3750.523	-118.6
3753.213	-120.6
3755.902	-124.6
3758.589	-124.6
3761.273	-116.6
3763.956	-115.6
3766.636	-122.6
3769.315	-114.6
3771.991	-116.6
3774.665	-124.6
3777.338	-118.6
3780.008	-120.6
3782.677	-118.6
3785.343	-120.6
3788.007	-119.6
3790.67	-121.6
3793.33	-116.6
3795.989	-121.6
3798.645	-119.6
3801.299	-121.6
3803.952	-127.6
3806.602	-119.6
3809.251	-122.6
3811.897	-124.6
3814.542	-123.6
3817.184	-120.6
3819.825	-121.6
3822.463	-126.6
3825.1	-123.6
3827.735	-125.6
3830.367	-124.6
3832.998	-127.6
3835.627	-120.6
3838.253	-120.6
3840.878	-120.6
3843.501	-119.6
3846.122	-127.6
3848.741	-128.6
3851.358	-119.6
3853.973	-124.6
3856.586	-119.6
3859.197	-125.6
3861.806	-119.6
3864.414	-124.6
3867.019	-116.6
3869.622	-119.6
3872.224	-108.6
3874.823	-99.6
3877.421	-92.6
3880.016	-61.6
3882.61	-36.6
3885.202	-29.6
3887.792	-50.6
3890.38	-86.6
3892.966	-106.6
3895.55	-114.6
3898.132	-119.6
3900.713	-125.6
3903.291	-126.6
3905.868	-131.6
3908.442	-121.6
3911.015	-128.6
3913.586	-124.6
3916.155	-126.6
3918.722	-127.6
3921.287	-125.6
3923.85	-129.6
3926.411	-126.6
3928.971	-126.6
3931.528	-125.6
3934.084	-122.6
3936.638	-119.6
3939.19	-129.6
3941.74	-132.6
3944.288	-124.6
3946.834	-123.6
3949.378	-127.6
3951.921	-124.6
3954.462	-133.6
3957	-125.6
3959.537	-120.6
3962.072	-133.6
3964.606	-130.6
3967.137	-122.6
3969.667	-123.6
3972.194	-125.6
3974.72	-123.6
3977.244	-124.6
3979.766	-130.6
3982.286	-123.6
3984.805	-124.6
3987.321	-123.6
3989.836	-110.6
3992.349	-128.6
3994.86	-127.6
3997.369	-131.6
3999.877	-127.6
4002.382	-123.6
4004.886	-130.6
4007.388	-119.6
4009.888	-120.6
4012.386	-127.6
4014.883	-130.6
4017.377	-128.6
4019.87	-124.6
4022.361	-128.6
4024.85	-126.6
4027.338	-123.6
4029.823	-120.6
4032.307	-123.6
4034.789	-129.6
4037.269	-130.6
4039.747	-124.6
4042.224	-122.6
4044.699	-126.6
4047.172	-118.6
4049.643	-120.6
4052.112	-124.6
4054.58	-125.6
4057.046	-126.6
4059.51	-129.6
4061.972	-123.6
4064.432	-118.6
4066.891	-122.6
4069.348	-119.6
4071.803	-128.6
4074.256	-128.6
4076.708	-123.6
4079.158	-122.6
4081.606	-117.6
4084.052	-127.6
4086.497	-121.6
4088.939	-115.6
4091.38	-126.6
4093.819	-124.6
4096.257	-129.6
4098.693	-126.6
4101.127	-128.6
4103.559	-126.6
4105.989	38.4
4108.418	29.4
4110.845	22.4
4113.27	19.4
4115.694	10.4
4118.115	11.4
4120.535	-125.6
4122.954	-126.6
4125.37	-124.6
4127.785	-124.6
4130.198	-124.6
4132.609	-124.6
4135.019	-135.6
4137.427	-133.6
4139.833	-129.6
4142.237	-128.6
