Data from 2018-2-8_conc=6_n=3_RamanShift_04.txt Node
Date: Mon Mar 12 16:31:28 IST 2018
User: aro
Spectrometer: QEPB0276
Trigger mode: 0
Integration Time (sec): 3.000000E1
Scans to average: 1
Electric dark correction enabled: true
Nonlinearity correction enabled: false
Boxcar width: 0
XAxis mode: Raman Shifts
Number of Pixels in Spectrum: 1044
>>>>>Begin Spectral Data<<<<<
160.701	10.5
166.742	42.5
172.777	123.5
178.805	383.5
184.826	1062.5
190.841	2272.5
196.849	3813.5
202.85	5011.5
208.845	5501.5
214.833	5500.5
220.815	5399.5
226.789	5397.5
232.758	5397.5
238.719	5383.5
244.674	5356.5
250.623	5305.5
256.565	5240.5
262.5	5139.5
268.429	5060.5
274.351	5041.5
280.267	4976.5
286.176	4929.5
292.079	4946.5
297.975	4900.5
303.865	4905.5
309.748	4891.5
315.625	4857.5
321.495	4839.5
327.359	4848.5
333.217	4857.5
339.068	4838.5
344.912	4852.5
350.751	4852.5
356.583	4871.5
362.408	4859.5
368.227	4871.5
374.04	4882.5
379.847	4910.5
385.647	4926.5
391.44	4930.5
397.228	4968.5
403.009	5002.5
408.784	5007.5
414.553	5026.5
420.315	5050.5
426.071	5040.5
431.821	5011.5
437.565	5049.5
443.302	5032.5
449.033	4973.5
454.758	4951.5
460.477	4956.5
466.189	4959.5
471.896	4944.5
477.596	4899.5
483.29	4878.5
488.978	4871.5
494.66	4834.5
500.335	4795.5
506.005	4673.5
511.668	4532.5
517.325	4391.5
522.977	4315.5
528.622	4209.5
534.261	4187.5
539.894	4136.5
545.521	4084.5
551.141	4052.5
556.756	4041.5
562.365	4011.5
567.968	3992.5
573.565	3980.5
579.155	3950.5
584.74	3937.5
590.319	3925.5
595.892	3913.5
601.459	3884.5
607.02	3897.5
612.575	3870.5
618.124	3846.5
623.667	3796.5
629.204	3769.5
634.735	3731.5
640.261	3703.5
645.781	3690.5
651.294	3675.5
656.802	3691.5
662.304	3660.5
667.8	3632.5
673.29	3619.5
678.775	3625.5
684.254	3610.5
689.726	3632.5
695.193	3607.5
700.655	3590.5
706.11	3581.5
711.56	3538.5
717.004	3515.5
722.442	3526.5
727.874	3501.5
733.301	3450.5
738.722	3476.5
744.137	3444.5
749.547	3437.5
754.951	3420.5
760.349	3436.5
765.741	3461.5
771.128	3458.5
776.509	3487.5
781.885	3493.5
787.254	3513.5
792.618	3512.5
797.977	3475.5
803.33	3483.5
808.677	3428.5
814.019	3402.5
819.355	3392.5
824.686	3366.5
830.011	3347.5
835.33	3345.5
840.644	3346.5
845.952	3332.5
851.255	3341.5
856.552	3312.5
861.844	3302.5
867.13	3312.5
872.41	3266.5
877.686	3237.5
882.955	3213.5
888.219	3200.5
893.478	3156.5
898.731	3105.5
903.979	3074.5
909.221	3054.5
914.458	3021.5
919.69	3052.5
924.916	3035.5
930.136	3051.5
935.351	3031.5
940.561	3035.5
945.766	3046.5
950.965	3029.5
956.158	2989.5
961.347	2986.5
966.529	2935.5
971.707	2892.5
976.879	2865.5
982.046	2822.5
987.208	2841.5
992.364	2830.5
997.515	2822.5
1002.66	2857.5
1007.801	2880.5
1012.936	2913.5
1018.066	2907.5
1023.19	2908.5
1028.309	2890.5
1033.423	2925.5
1038.532	2907.5
1043.636	2881.5
1048.734	2862.5
1053.827	2799.5
1058.915	2769.5
1063.998	2749.5
1069.075	2758.5
1074.147	2762.5
1079.214	2743.5
1084.276	2758.5
1089.333	2759.5
1094.385	2798.5
1099.431	2794.5
1104.472	2802.5
1109.509	2762.5
1114.54	2737.5
1119.565	2706.5
1124.586	2654.5
1129.602	2610.5
1134.613	2603.5
1139.618	2581.5
1144.619	2605.5
1149.614	2574.5
1154.604	2603.5
1159.589	2596.5
1164.57	2568.5
1169.545	2627.5
1174.515	2606.5
1179.48	2591.5
1184.44	2576.5
1189.395	2546.5
1194.345	2525.5
1199.29	2522.5
1204.23	2527.5
1209.165	2523.5
1214.095	2514.5
1219.021	2549.5
1223.941	2545.5
1228.856	2559.5
1233.766	2586.5
1238.672	2587.5
1243.572	2574.5
1248.467	2561.5
1253.358	2534.5
1258.244	2506.5
1263.124	2435.5
1268	2414.5
1272.871	2391.5
1277.737	2353.5
1282.599	2349.5
1287.455	2342.5
1292.306	2359.5
1297.153	2387.5
1301.995	2381.5
1306.832	2385.5
1311.664	2428.5
1316.491	2415.5
1321.314	2406.5
1326.132	2396.5
1330.945	2362.5
1335.753	2332.5
1340.556	2287.5
1345.354	2263.5
1350.148	2227.5
1354.937	2183.5
1359.722	2160.5
1364.501	2145.5
1369.276	2097.5
1374.046	2079.5
1378.811	2041.5
1383.572	2023.5
1388.327	2023.5
1393.079	2033.5
1397.825	2026.5
1402.567	2022.5
1407.304	2011.5
1412.036	2034.5
1416.764	2022.5
1421.487	2019.5
1426.205	2042.5
1430.919	2017.5
1435.628	2057.5
1440.333	2075.5
1445.032	2094.5
1449.727	2079.5
1454.418	2116.5
1459.104	2104.5
1463.785	2073.5
1468.462	2051.5
1473.134	2010.5
1477.802	1959.5
1482.465	1935.5
1487.123	1896.5
1491.777	1872.5
1496.426	1864.5
1501.071	1848.5
1505.711	1821.5
1510.347	1842.5
1514.978	1815.5
1519.604	1840.5
1524.226	1815.5
1528.844	1794.5
1533.457	1795.5
1538.065	1783.5
1542.669	1808.5
1547.269	1784.5
1551.864	1775.5
1556.454	1798.5
1561.041	1817.5
1565.622	1832.5
1570.199	1820.5
1574.772	1835.5
1579.34	1864.5
1583.904	1877.5
1588.464	1902.5
1593.019	1903.5
1597.569	1907.5
1602.115	1906.5
1606.657	1892.5
1611.195	1885.5
1615.728	1880.5
1620.256	1876.5
1624.78	1883.5
1629.3	1881.5
1633.816	1892.5
1638.327	1904.5
1642.834	1911.5
1647.336	1927.5
1651.834	1938.5
1656.328	1923.5
1660.817	1926.5
1665.302	1918.5
1669.783	1878.5
1674.259	1840.5
1678.732	1815.5
1683.199	1740.5
1687.663	1696.5
1692.122	1620.5
1696.577	1580.5
1701.028	1519.5
1705.474	1463.5
1709.917	1402.5
1714.355	1381.5
1718.788	1356.5
1723.218	1391.5
1727.643	1372.5
1732.064	1359.5
1736.481	1343.5
1740.893	1333.5
1745.301	1291.5
1749.705	1280.5
1754.105	1250.5
1758.501	1242.5
1762.893	1202.5
1767.28	1199.5
1771.663	1178.5
1776.042	1191.5
1780.417	1173.5
1784.787	1144.5
1789.154	1143.5
1793.516	1142.5
1797.874	1122.5
1802.228	1100.5
1806.578	1091.5
1810.924	1091.5
1815.266	1069.5
1819.603	1078.5
1823.937	1082.5
1828.266	1068.5
1832.591	1075.5
1836.913	1063.5
1841.23	1079.5
1845.543	1063.5
1849.852	1059.5
1854.156	1059.5
1858.457	1076.5
1862.754	1070.5
1867.047	1056.5
1871.335	1074.5
1875.62	1057.5
1879.9	1059.5
1884.177	1049.5
1888.449	1044.5
1892.718	1033.5
1896.982	1019.5
1901.243	1010.5
1905.499	995.5
1909.752	998.5
1914	980.5
1918.245	955.5
1922.485	958.5
1926.722	939.5
1930.954	948.5
1935.183	945.5
1939.408	927.5
1943.628	932.5
1947.845	929.5
1952.058	920.5
1956.267	905.5
1960.472	899.5
1964.673	883.5
1968.87	870.5
1973.063	869.5
1977.252	876.5
1981.438	872.5
1985.619	871.5
1989.797	860.5
1993.971	865.5
1998.14	887.5
2002.306	866.5
2006.469	863.5
2010.627	870.5
2014.781	883.5
2018.932	867.5
2023.078	873.5
2027.221	862.5
2031.36	870.5
2035.495	849.5
2039.627	843.5
2043.754	817.5
2047.878	836.5
2051.998	803.5
2056.114	803.5
2060.226	813.5
2064.334	806.5
2068.439	802.5
2072.54	788.5
2076.637	798.5
2080.73	800.5
2084.82	792.5
2088.906	784.5
2092.988	761.5
2097.066	774.5
2101.14	759.5
2105.211	753.5
2109.278	734.5
2113.342	730.5
2117.401	720.5
2121.457	720.5
2125.509	715.5
2129.558	713.5
2133.602	718.5
2137.643	720.5
2141.681	713.5
2145.714	707.5
2149.744	701.5
2153.77	702.5
2157.793	703.5
2161.812	695.5
2165.827	684.5
2169.838	680.5
2173.846	666.5
2177.851	659.5
2181.851	660.5
2185.848	645.5
2189.841	651.5
2193.831	628.5
2197.817	630.5
2201.799	634.5
2205.778	635.5
2209.753	616.5
2213.725	624.5
2217.693	620.5
2221.657	606.5
2225.618	621.5
2229.575	626.5
2233.529	617.5
2237.479	616.5
2241.425	589.5
2245.368	573.5
2249.307	581.5
2253.243	574.5
2257.175	562.5
2261.104	565.5
2265.029	539.5
2268.95	542.5
2272.868	536.5
2276.783	517.5
2280.694	524.5
2284.601	517.5
2288.505	511.5
2292.405	500.5
2296.302	501.5
2300.195	495.5
2304.085	480.5
2307.971	471.5
2311.854	474.5
2315.734	453.5
2319.609	452.5
2323.482	460.5
2327.351	456.5
2331.216	468.5
2335.078	463.5
2338.937	455.5
2342.792	437.5
2346.643	432.5
2350.492	435.5
2354.336	444.5
2358.178	440.5
2362.015	442.5
2365.85	439.5
2369.681	426.5
2373.508	430.5
2377.333	443.5
2381.153	433.5
2384.971	436.5
2388.785	428.5
2392.595	426.5
2396.402	425.5
2400.206	420.5
2404.007	435.5
2407.804	415.5
2411.597	418.5
2415.388	406.5
2419.174	414.5
2422.958	399.5
2426.738	405.5
2430.515	396.5
2434.289	400.5
2438.059	393.5
2441.825	386.5
2445.589	393.5
2449.349	382.5
2453.106	385.5
2456.859	383.5
2460.61	380.5
2464.356	360.5
2468.1	358.5
2471.84	355.5
2475.577	362.5
2479.311	342.5
2483.041	340.5
2486.768	341.5
2490.492	336.5
2494.213	350.5
2497.93	343.5
2501.644	338.5
2505.355	329.5
2509.062	322.5
2512.766	340.5
2516.467	325.5
2520.165	322.5
2523.859	325.5
2527.551	312.5
2531.239	304.5
2534.923	297.5
2538.605	296.5
2542.283	297.5
2545.958	298.5
2549.63	294.5
2553.299	299.5
2556.964	296.5
2560.626	280.5
2564.285	276.5
2567.941	271.5
2571.594	276.5
2575.243	278.5
2578.89	270.5
2582.533	267.5
2586.173	255.5
2589.809	244.5
2593.443	262.5
2597.073	256.5
2600.701	257.5
2604.325	250.5
2607.946	247.5
2611.564	252.5
2615.178	249.5
2618.79	242.5
2622.398	239.5
2626.004	238.5
2629.606	239.5
2633.205	241.5
2636.801	227.5
2640.394	242.5
2643.983	223.5
2647.57	223.5
2651.153	226.5
2654.734	222.5
2658.311	211.5
2661.885	207.5
2665.456	206.5
2669.025	216.5
2672.589	204.5
2676.151	209.5
2679.71	197.5
2683.266	204.5
2686.819	203.5
2690.368	199.5
2693.915	191.5
2697.458	182.5
2700.999	186.5
2704.536	181.5
2708.071	174.5
2711.602	178.5
2715.13	180.5
2718.656	172.5
2722.178	172.5
2725.697	164.5
2729.214	160.5
2732.727	161.5
2736.237	163.5
2739.744	162.5
2743.249	159.5
2746.75	152.5
2750.248	150.5
2753.743	146.5
2757.236	142.5
2760.725	144.5
2764.211	141.5
2767.695	137.5
2771.175	119.5
2774.652	132.5
2778.127	126.5
2781.598	128.5
2785.067	132.5
2788.532	129.5
2791.995	133.5
2795.455	137.5
2798.911	131.5
2802.365	138.5
2805.816	144.5
2809.264	137.5
2812.709	138.5
2816.151	136.5
2819.59	139.5
2823.026	131.5
2826.46	130.5
2829.89	141.5
2833.318	126.5
2836.742	138.5
2840.164	139.5
2843.583	142.5
2846.999	145.5
2850.412	140.5
2853.822	141.5
2857.229	138.5
2860.634	149.5
2864.035	149.5
2867.434	145.5
2870.83	162.5
2874.223	158.5
2877.613	166.5
2881	173.5
2884.385	186.5
2887.766	168.5
2891.145	164.5
2894.521	181.5
2897.894	184.5
2901.264	181.5
2904.631	183.5
2907.996	185.5
2911.358	175.5
2914.717	189.5
2918.073	195.5
2921.426	192.5
2924.777	199.5
2928.124	206.5
2931.469	210.5
2934.811	224.5
2938.15	219.5
2941.487	222.5
2944.821	224.5
2948.152	222.5
2951.48	230.5
2954.805	237.5
2958.128	225.5
2961.447	217.5
2964.765	224.5
2968.079	216.5
2971.39	215.5
2974.699	227.5
2978.005	219.5
2981.308	226.5
2984.609	225.5
2987.907	231.5
2991.202	233.5
2994.494	232.5
2997.784	230.5
3001.07	244.5
3004.355	246.5
3007.636	237.5
3010.915	247.5
3014.191	258.5
3017.464	273.5
3020.734	260.5
3024.002	249.5
3027.267	265.5
3030.53	273.5
3033.789	283.5
3037.046	280.5
3040.301	281.5
3043.552	307.5
3046.801	305.5
3050.048	317.5
3053.291	314.5
3056.532	335.5
3059.771	358.5
3063.006	371.5
3066.239	378.5
3069.469	381.5
3072.697	392.5
3075.922	404.5
3079.144	415.5
3082.364	427.5
3085.581	433.5
3088.795	441.5
3092.007	448.5
3095.216	462.5
3098.423	469.5
3101.627	482.5
3104.828	490.5
3108.026	497.5
3111.222	518.5
3114.416	511.5
3117.607	540.5
3120.795	533.5
3123.98	536.5
3127.163	567.5
3130.344	584.5
3133.521	579.5
3136.696	607.5
3139.869	616.5
3143.039	615.5
3146.206	631.5
3149.371	645.5
3152.533	640.5
3155.693	667.5
3158.85	668.5
3162.005	676.5
3165.157	673.5
3168.306	670.5
3171.453	666.5
3174.597	679.5
3177.739	677.5
3180.878	683.5
3184.014	687.5
3187.149	689.5
3190.28	699.5
3193.409	687.5
3196.536	687.5
3199.659	691.5
3202.781	700.5
3205.9	717.5
3209.016	703.5
3212.13	697.5
3215.241	717.5
3218.35	688.5
3221.456	696.5
3224.56	688.5
3227.661	674.5
3230.76	658.5
3233.856	658.5
3236.95	649.5
3240.041	651.5
3243.13	636.5
3246.216	612.5
3249.3	607.5
3252.382	617.5
3255.46	604.5
3258.537	596.5
3261.611	586.5
3264.682	572.5
3267.751	587.5
3270.818	579.5
3273.882	574.5
3276.943	578.5
3280.002	553.5
3283.059	559.5
3286.113	569.5
3289.165	541.5
3292.214	543.5
3295.261	532.5
3298.306	529.5
3301.348	538.5
3304.387	522.5
3307.425	508.5
3310.459	510.5
3313.492	490.5
3316.521	507.5
3319.549	495.5
3322.574	494.5
3325.597	484.5
3328.617	487.5
3331.635	480.5
3334.65	480.5
3337.663	471.5
3340.674	481.5
3343.682	479.5
3346.688	476.5
3349.691	484.5
3352.692	468.5
3355.691	473.5
3358.687	467.5
3361.681	462.5
3364.673	466.5
3367.662	440.5
3370.649	444.5
3373.633	437.5
3376.615	424.5
3379.595	409.5
3382.572	410.5
3385.547	405.5
3388.52	402.5
3391.49	404.5
3394.458	395.5
3397.424	379.5
3400.387	372.5
3403.348	372.5
3406.307	365.5
3409.263	362.5
3412.217	362.5
3415.168	348.5
3418.118	347.5
3421.065	341.5
3424.009	346.5
3426.951	336.5
3429.891	320.5
3432.829	312.5
3435.764	303.5
3438.697	302.5
3441.628	297.5
3444.557	292.5
3447.483	261.5
3450.407	259.5
3453.328	249.5
3456.247	244.5
3459.164	231.5
3462.079	225.5
3464.991	217.5
3467.902	210.5
3470.809	208.5
3473.715	187.5
3476.618	176.5
3479.519	172.5
3482.418	166.5
3485.315	159.5
3488.209	144.5
3491.101	143.5
3493.99	147.5
3496.878	137.5
3499.763	119.5
3502.646	121.5
3505.527	105.5
3508.405	109.5
3511.281	99.5
3514.155	100.5
3517.027	87.5
3519.897	71.5
3522.764	65.5
3525.629	65.5
3528.492	60.5
3531.352	52.5
3534.211	42.5
3537.067	33.5
3539.921	29.5
3542.773	16.5
3545.622	16.5
3548.469	7.5
3551.315	8.5
3554.157	-0.5
3556.998	-9.5
3559.837	-9.5
3562.673	-7.5
3565.507	-12.5
3568.339	-23.5
3571.169	-28.5
3573.996	-26.5
3576.822	-27.5
3579.645	-26.5
3582.466	-28.5
3585.285	-42.5
3588.101	-37.5
3590.916	-45.5
3593.728	-49.5
3596.538	-47.5
3599.346	-54.5
3602.152	-52.5
3604.956	-58.5
3607.757	-58.5
3610.556	-66.5
3613.354	-63.5
3616.149	-72.5
3618.942	-72.5
3621.732	-74.5
3624.521	-69.5
3627.307	-73.5
3630.092	-73.5
3632.874	-78.5
3635.654	-83.5
3638.432	-78.5
3641.208	-82.5
3643.982	-86.5
3646.753	-92.5
3649.523	-98.5
3652.29	-90.5
3655.055	-93.5
3657.818	-94.5
3660.579	-92.5
3663.338	-95.5
3666.095	-96.5
3668.849	-104.5
3671.602	-97.5
3674.352	-110.5
3677.101	-111.5
3679.847	-102.5
3682.591	-112.5
3685.333	-104.5
3688.073	-109.5
3690.811	-108.5
3693.547	-118.5
3696.281	-113.5
3699.013	-114.5
3701.742	-118.5
3704.47	-116.5
3707.195	-110.5
3709.919	-117.5
3712.64	-117.5
3715.359	-122.5
3718.076	-121.5
3720.792	-123.5
3723.505	-125.5
3726.216	-116.5
3728.925	-123.5
3731.632	-119.5
3734.336	-129.5
3737.039	-123.5
3739.74	-124.5
3742.439	-126.5
3745.136	-122.5
3747.83	-128.5
3750.523	-124.5
3753.213	-126.5
3755.902	-125.5
3758.589	-132.5
3761.273	-121.5
3763.956	-123.5
3766.636	-127.5
3769.315	-116.5
3771.991	-120.5
3774.665	-130.5
3777.338	-122.5
3780.008	-130.5
3782.677	-137.5
3785.343	-129.5
3788.007	-130.5
3790.67	-126.5
3793.33	-126.5
3795.989	-124.5
3798.645	-123.5
3801.299	-130.5
3803.952	-135.5
3806.602	-127.5
3809.251	-137.5
3811.897	-134.5
3814.542	-131.5
3817.184	-125.5
3819.825	-129.5
3822.463	-134.5
3825.1	-127.5
3827.735	-131.5
3830.367	-131.5
3832.998	-132.5
3835.627	-133.5
3838.253	-121.5
3840.878	-126.5
3843.501	-129.5
3846.122	-136.5
3848.741	-137.5
3851.358	-128.5
3853.973	-134.5
3856.586	-132.5
3859.197	-137.5
3861.806	-127.5
3864.414	-132.5
3867.019	-130.5
3869.622	-135.5
3872.224	-124.5
3874.823	-115.5
3877.421	-105.5
3880.016	-82.5
3882.61	-69.5
3885.202	-72.5
3887.792	-82.5
3890.38	-110.5
3892.966	-127.5
3895.55	-133.5
3898.132	-130.5
3900.713	-134.5
3903.291	-136.5
3905.868	-137.5
3908.442	-129.5
3911.015	-140.5
3913.586	-138.5
3916.155	-138.5
3918.722	-133.5
3921.287	-136.5
3923.85	-134.5
3926.411	-134.5
3928.971	-138.5
3931.528	-138.5
3934.084	-129.5
3936.638	-129.5
3939.19	-140.5
3941.74	-135.5
3944.288	-134.5
3946.834	-131.5
3949.378	-132.5
3951.921	-134.5
3954.462	-144.5
3957	-139.5
3959.537	-128.5
3962.072	-134.5
3964.606	-128.5
3967.137	-133.5
3969.667	-135.5
3972.194	-134.5
3974.72	-140.5
3977.244	-134.5
3979.766	-133.5
3982.286	-130.5
3984.805	-134.5
3987.321	-135.5
3989.836	-125.5
3992.349	-134.5
3994.86	-133.5
3997.369	-137.5
3999.877	-131.5
4002.382	-125.5
4004.886	-130.5
4007.388	-129.5
4009.888	-130.5
4012.386	-133.5
4014.883	-131.5
4017.377	-131.5
4019.87	-129.5
4022.361	-136.5
4024.85	-130.5
4027.338	-129.5
4029.823	-133.5
4032.307	-131.5
4034.789	-134.5
4037.269	-136.5
4039.747	-127.5
4042.224	-131.5
4044.699	-135.5
4047.172	-130.5
4049.643	-131.5
4052.112	-131.5
4054.58	-130.5
4057.046	-136.5
4059.51	-136.5
4061.972	-127.5
4064.432	-129.5
4066.891	-129.5
4069.348	-133.5
4071.803	-138.5
4074.256	-133.5
4076.708	-132.5
4079.158	-129.5
4081.606	-124.5
4084.052	-133.5
4086.497	-131.5
4088.939	-127.5
4091.38	-132.5
4093.819	-134.5
4096.257	-140.5
4098.693	-137.5
4101.127	-140.5
4103.559	-137.5
4105.989	-9.5
4108.418	-11.5
4110.845	-10.5
4113.27	-9.5
4115.694	-20.5
4118.115	-12.5
4120.535	-128.5
4122.954	-134.5
4125.37	-130.5
4127.785	-132.5
4130.198	-130.5
4132.609	-134.5
4135.019	-139.5
4137.427	-142.5
4139.833	-139.5
4142.237	-138.5
