Data from 2018-2-8_conc=6_n=7_RamanShift_05.txt Node
Date: Mon Mar 12 16:43:57 IST 2018
User: aro
Spectrometer: QEPB0276
Trigger mode: 0
Integration Time (sec): 3.000000E1
Scans to average: 1
Electric dark correction enabled: true
Nonlinearity correction enabled: false
Boxcar width: 0
XAxis mode: Raman Shifts
Number of Pixels in Spectrum: 1044
>>>>>Begin Spectral Data<<<<<
160.701	6.5
166.742	31.5
172.777	109.5
178.805	358.5
184.826	1005.5
190.841	2146.5
196.849	3549.5
202.85	4690.5
208.845	5134.5
214.833	5160.5
220.815	5055.5
226.789	5075.5
232.758	5077.5
238.719	5069.5
244.674	5029.5
250.623	4978.5
256.565	4919.5
262.5	4863.5
268.429	4813.5
274.351	4761.5
280.267	4727.5
286.176	4654.5
292.079	4686.5
297.975	4642.5
303.865	4638.5
309.748	4601.5
315.625	4600.5
321.495	4579.5
327.359	4599.5
333.217	4579.5
339.068	4585.5
344.912	4605.5
350.751	4598.5
356.583	4587.5
362.408	4611.5
368.227	4626.5
374.04	4619.5
379.847	4652.5
385.647	4645.5
391.44	4649.5
397.228	4711.5
403.009	4734.5
408.784	4737.5
414.553	4776.5
420.315	4773.5
426.071	4762.5
431.821	4768.5
437.565	4774.5
443.302	4754.5
449.033	4754.5
454.758	4705.5
460.477	4716.5
466.189	4678.5
471.896	4651.5
477.596	4632.5
483.29	4567.5
488.978	4589.5
494.66	4591.5
500.335	4514.5
506.005	4428.5
511.668	4309.5
517.325	4183.5
522.977	4109.5
528.622	4032.5
534.261	3958.5
539.894	3922.5
545.521	3909.5
551.141	3884.5
556.756	3873.5
562.365	3830.5
567.968	3805.5
573.565	3779.5
579.155	3764.5
584.74	3770.5
590.319	3736.5
595.892	3736.5
601.459	3727.5
607.02	3691.5
612.575	3686.5
618.124	3648.5
623.667	3611.5
629.204	3597.5
634.735	3561.5
640.261	3521.5
645.781	3518.5
651.294	3512.5
656.802	3528.5
662.304	3498.5
667.8	3503.5
673.29	3496.5
678.775	3471.5
684.254	3458.5
689.726	3454.5
695.193	3447.5
700.655	3416.5
706.11	3391.5
711.56	3359.5
717.004	3337.5
722.442	3329.5
727.874	3338.5
733.301	3323.5
738.722	3312.5
744.137	3286.5
749.547	3290.5
754.951	3289.5
760.349	3271.5
765.741	3296.5
771.128	3312.5
776.509	3336.5
781.885	3341.5
787.254	3335.5
792.618	3326.5
797.977	3327.5
803.33	3309.5
808.677	3259.5
814.019	3269.5
819.355	3239.5
824.686	3192.5
830.011	3181.5
835.33	3189.5
840.644	3189.5
845.952	3171.5
851.255	3163.5
856.552	3169.5
861.844	3164.5
867.13	3134.5
872.41	3113.5
877.686	3080.5
882.955	3055.5
888.219	3043.5
893.478	3006.5
898.731	2945.5
903.979	2941.5
909.221	2926.5
914.458	2915.5
919.69	2917.5
924.916	2906.5
930.136	2927.5
935.351	2924.5
940.561	2912.5
945.766	2907.5
950.965	2923.5
956.158	2866.5
961.347	2836.5
966.529	2802.5
971.707	2756.5
976.879	2732.5
982.046	2700.5
987.208	2694.5
992.364	2696.5
997.515	2705.5
1002.66	2734.5
1007.801	2754.5
1012.936	2777.5
1018.066	2770.5
1023.19	2778.5
1028.309	2775.5
1033.423	2782.5
1038.532	2788.5
1043.636	2757.5
1048.734	2720.5
1053.827	2679.5
1058.915	2641.5
1063.998	2629.5
1069.075	2634.5
1074.147	2620.5
1079.214	2635.5
1084.276	2635.5
1089.333	2661.5
1094.385	2661.5
1099.431	2683.5
1104.472	2643.5
1109.509	2636.5
1114.54	2614.5
1119.565	2590.5
1124.586	2526.5
1129.602	2522.5
1134.613	2492.5
1139.618	2448.5
1144.619	2478.5
1149.614	2475.5
1154.604	2485.5
1159.589	2473.5
1164.57	2491.5
1169.545	2505.5
1174.515	2499.5
1179.48	2474.5
1184.44	2469.5
1189.395	2442.5
1194.345	2420.5
1199.29	2392.5
1204.23	2397.5
1209.165	2422.5
1214.095	2408.5
1219.021	2422.5
1223.941	2454.5
1228.856	2465.5
1233.766	2482.5
1238.672	2480.5
1243.572	2460.5
1248.467	2447.5
1253.358	2413.5
1258.244	2397.5
1263.124	2329.5
1268	2308.5
1272.871	2289.5
1277.737	2282.5
1282.599	2263.5
1287.455	2262.5
1292.306	2260.5
1297.153	2262.5
1301.995	2279.5
1306.832	2287.5
1311.664	2294.5
1316.491	2320.5
1321.314	2304.5
1326.132	2286.5
1330.945	2270.5
1335.753	2213.5
1340.556	2196.5
1345.354	2172.5
1350.148	2143.5
1354.937	2086.5
1359.722	2077.5
1364.501	2034.5
1369.276	1997.5
1374.046	1968.5
1378.811	1925.5
1383.572	1939.5
1388.327	1927.5
1393.079	1946.5
1397.825	1936.5
1402.567	1906.5
1407.304	1913.5
1412.036	1927.5
1416.764	1929.5
1421.487	1932.5
1426.205	1925.5
1430.919	1939.5
1435.628	1961.5
1440.333	1956.5
1445.032	1987.5
1449.727	2008.5
1454.418	2015.5
1459.104	2002.5
1463.785	2005.5
1468.462	1956.5
1473.134	1907.5
1477.802	1863.5
1482.465	1834.5
1487.123	1811.5
1491.777	1778.5
1496.426	1772.5
1501.071	1743.5
1505.711	1753.5
1510.347	1726.5
1514.978	1731.5
1519.604	1723.5
1524.226	1729.5
1528.844	1720.5
1533.457	1703.5
1538.065	1693.5
1542.669	1697.5
1547.269	1680.5
1551.864	1688.5
1556.454	1724.5
1561.041	1719.5
1565.622	1715.5
1570.199	1737.5
1574.772	1752.5
1579.34	1781.5
1583.904	1803.5
1588.464	1814.5
1593.019	1817.5
1597.569	1825.5
1602.115	1794.5
1606.657	1794.5
1611.195	1795.5
1615.728	1787.5
1620.256	1780.5
1624.78	1777.5
1629.3	1781.5
1633.816	1807.5
1638.327	1794.5
1642.834	1809.5
1647.336	1828.5
1651.834	1822.5
1656.328	1822.5
1660.817	1816.5
1665.302	1798.5
1669.783	1761.5
1674.259	1727.5
1678.732	1689.5
1683.199	1650.5
1687.663	1602.5
1692.122	1549.5
1696.577	1483.5
1701.028	1430.5
1705.474	1375.5
1709.917	1326.5
1714.355	1308.5
1718.788	1315.5
1723.218	1309.5
1727.643	1321.5
1732.064	1307.5
1736.481	1299.5
1740.893	1253.5
1745.301	1246.5
1749.705	1215.5
1754.105	1209.5
1758.501	1167.5
1762.893	1145.5
1767.28	1143.5
1771.663	1128.5
1776.042	1122.5
1780.417	1103.5
1784.787	1086.5
1789.154	1091.5
1793.516	1076.5
1797.874	1062.5
1802.228	1052.5
1806.578	1034.5
1810.924	1011.5
1815.266	1010.5
1819.603	1016.5
1823.937	1004.5
1828.266	1000.5
1832.591	1008.5
1836.913	999.5
1841.23	1004.5
1845.543	1005.5
1849.852	1014.5
1854.156	997.5
1858.457	1016.5
1862.754	1016.5
1867.047	1006.5
1871.335	1019.5
1875.62	1010.5
1879.9	1017.5
1884.177	996.5
1888.449	994.5
1892.718	969.5
1896.982	967.5
1901.243	963.5
1905.499	941.5
1909.752	921.5
1914	911.5
1918.245	910.5
1922.485	898.5
1926.722	902.5
1930.954	891.5
1935.183	882.5
1939.408	881.5
1943.628	885.5
1947.845	867.5
1952.058	874.5
1956.267	842.5
1960.472	863.5
1964.673	836.5
1968.87	841.5
1973.063	813.5
1977.252	791.5
1981.438	824.5
1985.619	826.5
1989.797	825.5
1993.971	825.5
1998.14	822.5
2002.306	810.5
2006.469	833.5
2010.627	823.5
2014.781	838.5
2018.932	820.5
2023.078	827.5
2027.221	821.5
2031.36	819.5
2035.495	800.5
2039.627	778.5
2043.754	779.5
2047.878	775.5
2051.998	770.5
2056.114	755.5
2060.226	766.5
2064.334	758.5
2068.439	750.5
2072.54	741.5
2076.637	744.5
2080.73	746.5
2084.82	749.5
2088.906	740.5
2092.988	717.5
2097.066	731.5
2101.14	715.5
2105.211	704.5
2109.278	699.5
2113.342	688.5
2117.401	679.5
2121.457	675.5
2125.509	658.5
2129.558	678.5
2133.602	678.5
2137.643	676.5
2141.681	680.5
2145.714	665.5
2149.744	667.5
2153.77	662.5
2157.793	664.5
2161.812	657.5
2165.827	656.5
2169.838	654.5
2173.846	632.5
2177.851	618.5
2181.851	617.5
2185.848	604.5
2189.841	606.5
2193.831	601.5
2197.817	599.5
2201.799	579.5
2205.778	597.5
2209.753	584.5
2213.725	583.5
2217.693	572.5
2221.657	585.5
2225.618	580.5
2229.575	584.5
2233.529	580.5
2237.479	570.5
2241.425	567.5
2245.368	549.5
2249.307	546.5
2253.243	547.5
2257.175	542.5
2261.104	542.5
2265.029	512.5
2268.95	526.5
2272.868	499.5
2276.783	486.5
2280.694	497.5
2284.601	485.5
2288.505	482.5
2292.405	482.5
2296.302	479.5
2300.195	466.5
2304.085	453.5
2307.971	441.5
2311.854	459.5
2315.734	437.5
2319.609	440.5
2323.482	434.5
2327.351	433.5
2331.216	433.5
2335.078	449.5
2338.937	443.5
2342.792	424.5
2346.643	421.5
2350.492	414.5
2354.336	420.5
2358.178	426.5
2362.015	419.5
2365.85	426.5
2369.681	419.5
2373.508	437.5
2377.333	418.5
2381.153	425.5
2384.971	434.5
2388.785	415.5
2392.595	419.5
2396.402	409.5
2400.206	412.5
2404.007	409.5
2407.804	413.5
2411.597	408.5
2415.388	398.5
2419.174	390.5
2422.958	390.5
2426.738	391.5
2430.515	399.5
2434.289	395.5
2438.059	379.5
2441.825	384.5
2445.589	371.5
2449.349	370.5
2453.106	368.5
2456.859	365.5
2460.61	365.5
2464.356	355.5
2468.1	348.5
2471.84	347.5
2475.577	347.5
2479.311	333.5
2483.041	338.5
2486.768	331.5
2490.492	332.5
2494.213	336.5
2497.93	340.5
2501.644	329.5
2505.355	320.5
2509.062	320.5
2512.766	317.5
2516.467	317.5
2520.165	310.5
2523.859	318.5
2527.551	310.5
2531.239	289.5
2534.923	295.5
2538.605	302.5
2542.283	295.5
2545.958	282.5
2549.63	285.5
2553.299	277.5
2556.964	279.5
2560.626	283.5
2564.285	276.5
2567.941	272.5
2571.594	268.5
2575.243	266.5
2578.89	261.5
2582.533	258.5
2586.173	248.5
2589.809	250.5
2593.443	251.5
2597.073	253.5
2600.701	239.5
2604.325	237.5
2607.946	240.5
2611.564	231.5
2615.178	244.5
2618.79	239.5
2622.398	243.5
2626.004	229.5
2629.606	225.5
2633.205	227.5
2636.801	227.5
2640.394	226.5
2643.983	230.5
2647.57	220.5
2651.153	213.5
2654.734	213.5
2658.311	203.5
2661.885	201.5
2665.456	205.5
2669.025	205.5
2672.589	205.5
2676.151	210.5
2679.71	207.5
2683.266	189.5
2686.819	193.5
2690.368	193.5
2693.915	188.5
2697.458	184.5
2700.999	192.5
2704.536	188.5
2708.071	177.5
2711.602	175.5
2715.13	177.5
2718.656	157.5
2722.178	159.5
2725.697	169.5
2729.214	151.5
2732.727	177.5
2736.237	171.5
2739.744	151.5
2743.249	147.5
2746.75	147.5
2750.248	149.5
2753.743	149.5
2757.236	140.5
2760.725	145.5
2764.211	139.5
2767.695	128.5
2771.175	131.5
2774.652	118.5
2778.127	127.5
2781.598	125.5
2785.067	137.5
2788.532	138.5
2791.995	139.5
2795.455	137.5
2798.911	128.5
2802.365	138.5
2805.816	137.5
2809.264	131.5
2812.709	140.5
2816.151	143.5
2819.59	134.5
2823.026	140.5
2826.46	128.5
2829.89	130.5
2833.318	126.5
2836.742	133.5
2840.164	133.5
2843.583	138.5
2846.999	141.5
2850.412	139.5
2853.822	132.5
2857.229	133.5
2860.634	143.5
2864.035	144.5
2867.434	153.5
2870.83	146.5
2874.223	165.5
2877.613	162.5
2881	169.5
2884.385	170.5
2887.766	160.5
2891.145	165.5
2894.521	166.5
2897.894	174.5
2901.264	172.5
2904.631	176.5
2907.996	178.5
2911.358	178.5
2914.717	185.5
2918.073	183.5
2921.426	191.5
2924.777	194.5
2928.124	190.5
2931.469	193.5
2934.811	204.5
2938.15	205.5
2941.487	212.5
2944.821	206.5
2948.152	218.5
2951.48	214.5
2954.805	215.5
2958.128	209.5
2961.447	205.5
2964.765	199.5
2968.079	205.5
2971.39	198.5
2974.699	210.5
2978.005	216.5
2981.308	216.5
2984.609	218.5
2987.907	213.5
2991.202	214.5
2994.494	222.5
2997.784	216.5
3001.07	224.5
3004.355	221.5
3007.636	241.5
3010.915	233.5
3014.191	239.5
3017.464	232.5
3020.734	240.5
3024.002	240.5
3027.267	261.5
3030.53	251.5
3033.789	266.5
3037.046	270.5
3040.301	261.5
3043.552	280.5
3046.801	277.5
3050.048	293.5
3053.291	304.5
3056.532	313.5
3059.771	321.5
3063.006	330.5
3066.239	349.5
3069.469	351.5
3072.697	367.5
3075.922	380.5
3079.144	381.5
3082.364	403.5
3085.581	401.5
3088.795	414.5
3092.007	418.5
3095.216	410.5
3098.423	436.5
3101.627	435.5
3104.828	457.5
3108.026	453.5
3111.222	468.5
3114.416	471.5
3117.607	482.5
3120.795	500.5
3123.98	505.5
3127.163	519.5
3130.344	548.5
3133.521	548.5
3136.696	565.5
3139.869	570.5
3143.039	576.5
3146.206	588.5
3149.371	588.5
3152.533	603.5
3155.693	607.5
3158.85	616.5
3162.005	615.5
3165.157	621.5
3168.306	618.5
3171.453	612.5
3174.597	626.5
3177.739	632.5
3180.878	636.5
3184.014	646.5
3187.149	630.5
3190.28	623.5
3193.409	628.5
3196.536	637.5
3199.659	646.5
3202.781	653.5
3205.9	660.5
3209.016	661.5
3212.13	655.5
3215.241	645.5
3218.35	636.5
3221.456	636.5
3224.56	614.5
3227.661	621.5
3230.76	617.5
3233.856	592.5
3236.95	586.5
3240.041	577.5
3243.13	566.5
3246.216	572.5
3249.3	561.5
3252.382	563.5
3255.46	552.5
3258.537	558.5
3261.611	546.5
3264.682	533.5
3267.751	534.5
3270.818	522.5
3273.882	537.5
3276.943	523.5
3280.002	524.5
3283.059	511.5
3286.113	514.5
3289.165	502.5
3292.214	516.5
3295.261	486.5
3298.306	483.5
3301.348	472.5
3304.387	467.5
3307.425	462.5
3310.459	460.5
3313.492	448.5
3316.521	451.5
3319.549	445.5
3322.574	438.5
3325.597	438.5
3328.617	448.5
3331.635	451.5
3334.65	447.5
3337.663	429.5
3340.674	445.5
3343.682	441.5
3346.688	427.5
3349.691	423.5
3352.692	428.5
3355.691	429.5
3358.687	418.5
3361.681	423.5
3364.673	414.5
3367.662	403.5
3370.649	405.5
3373.633	395.5
3376.615	396.5
3379.595	373.5
3382.572	381.5
3385.547	383.5
3388.52	369.5
3391.49	361.5
3394.458	361.5
3397.424	355.5
3400.387	340.5
3403.348	335.5
3406.307	331.5
3409.263	327.5
3412.217	331.5
3415.168	339.5
3418.118	319.5
3421.065	313.5
3424.009	317.5
3426.951	309.5
3429.891	302.5
3432.829	287.5
3435.764	280.5
3438.697	283.5
3441.628	268.5
3444.557	260.5
3447.483	248.5
3450.407	240.5
3453.328	230.5
3456.247	215.5
3459.164	210.5
3462.079	204.5
3464.991	196.5
3467.902	187.5
3470.809	186.5
3473.715	164.5
3476.618	169.5
3479.519	157.5
3482.418	144.5
3485.315	146.5
3488.209	133.5
3491.101	128.5
3493.99	133.5
3496.878	119.5
3499.763	109.5
3502.646	105.5
3505.527	99.5
3508.405	111.5
3511.281	90.5
3514.155	82.5
3517.027	75.5
3519.897	69.5
3522.764	65.5
3525.629	55.5
3528.492	53.5
3531.352	42.5
3534.211	38.5
3537.067	36.5
3539.921	32.5
3542.773	18.5
3545.622	14.5
3548.469	5.5
3551.315	12.5
3554.157	5.5
3556.998	-0.5
3559.837	-2.5
3562.673	-14.5
3565.507	-4.5
3568.339	-11.5
3571.169	-20.5
3573.996	-18.5
3576.822	-19.5
3579.645	-26.5
3582.466	-25.5
3585.285	-33.5
3588.101	-32.5
3590.916	-41.5
3593.728	-47.5
3596.538	-39.5
3599.346	-48.5
3602.152	-52.5
3604.956	-46.5
3607.757	-47.5
3610.556	-56.5
3613.354	-53.5
3616.149	-65.5
3618.942	-71.5
3621.732	-63.5
3624.521	-66.5
3627.307	-65.5
3630.092	-66.5
3632.874	-63.5
3635.654	-74.5
3638.432	-72.5
3641.208	-76.5
3643.982	-79.5
3646.753	-84.5
3649.523	-82.5
3652.29	-73.5
3655.055	-77.5
3657.818	-79.5
3660.579	-83.5
3663.338	-89.5
3666.095	-89.5
3668.849	-86.5
3671.602	-90.5
3674.352	-92.5
3677.101	-94.5
3679.847	-98.5
3682.591	-102.5
3685.333	-100.5
3688.073	-90.5
3690.811	-98.5
3693.547	-103.5
3696.281	-94.5
3699.013	-105.5
3701.742	-110.5
3704.47	-105.5
3707.195	-103.5
3709.919	-105.5
3712.64	-102.5
3715.359	-110.5
3718.076	-100.5
3720.792	-109.5
3723.505	-112.5
3726.216	-107.5
3728.925	-115.5
3731.632	-107.5
3734.336	-112.5
3737.039	-106.5
3739.74	-114.5
3742.439	-121.5
3745.136	-109.5
3747.83	-116.5
3750.523	-114.5
3753.213	-113.5
3755.902	-111.5
3758.589	-118.5
3761.273	-108.5
3763.956	-108.5
3766.636	-114.5
3769.315	-112.5
3771.991	-114.5
3774.665	-116.5
3777.338	-109.5
3780.008	-112.5
3782.677	-113.5
3785.343	-116.5
3788.007	-117.5
3790.67	-120.5
3793.33	-113.5
3795.989	-118.5
3798.645	-112.5
3801.299	-113.5
3803.952	-122.5
3806.602	-114.5
3809.251	-121.5
3811.897	-125.5
3814.542	-120.5
3817.184	-110.5
3819.825	-115.5
3822.463	-115.5
3825.1	-116.5
3827.735	-120.5
3830.367	-121.5
3832.998	-125.5
3835.627	-113.5
3838.253	-114.5
3840.878	-116.5
3843.501	-112.5
3846.122	-123.5
3848.741	-120.5
3851.358	-120.5
3853.973	-124.5
3856.586	-121.5
3859.197	-120.5
3861.806	-113.5
3864.414	-121.5
3867.019	-115.5
3869.622	-118.5
3872.224	-111.5
3874.823	-108.5
3877.421	-102.5
3880.016	-87.5
3882.61	-66.5
3885.202	-72.5
3887.792	-86.5
3890.38	-100.5
3892.966	-117.5
3895.55	-119.5
3898.132	-117.5
3900.713	-119.5
3903.291	-119.5
3905.868	-123.5
3908.442	-115.5
3911.015	-122.5
3913.586	-122.5
3916.155	-126.5
3918.722	-123.5
3921.287	-124.5
3923.85	-117.5
3926.411	-124.5
3928.971	-119.5
3931.528	-124.5
3934.084	-120.5
3936.638	-116.5
3939.19	-126.5
3941.74	-122.5
3944.288	-122.5
3946.834	-122.5
3949.378	-116.5
3951.921	-121.5
3954.462	-132.5
3957	-127.5
3959.537	-121.5
3962.072	-128.5
3964.606	-119.5
3967.137	-122.5
3969.667	-115.5
3972.194	-121.5
3974.72	-117.5
3977.244	-127.5
3979.766	-122.5
3982.286	-120.5
3984.805	-116.5
3987.321	-122.5
3989.836	-112.5
3992.349	-119.5
3994.86	-120.5
3997.369	-128.5
3999.877	-122.5
4002.382	-114.5
4004.886	-124.5
4007.388	-115.5
4009.888	-115.5
4012.386	-118.5
4014.883	-121.5
4017.377	-121.5
4019.87	-125.5
4022.361	-119.5
4024.85	-120.5
4027.338	-119.5
4029.823	-117.5
4032.307	-114.5
4034.789	-123.5
4037.269	-121.5
4039.747	-120.5
4042.224	-117.5
4044.699	-118.5
4047.172	-112.5
4049.643	-108.5
4052.112	-119.5
4054.58	-119.5
4057.046	-118.5
4059.51	-125.5
4061.972	-117.5
4064.432	-118.5
4066.891	-119.5
4069.348	-111.5
4071.803	-119.5
4074.256	-122.5
4076.708	-118.5
4079.158	-119.5
4081.606	-113.5
4084.052	-121.5
4086.497	-116.5
4088.939	-110.5
4091.38	-122.5
4093.819	-119.5
4096.257	-127.5
4098.693	-121.5
4101.127	-126.5
4103.559	-123.5
4105.989	-14.5
4108.418	-19.5
4110.845	-15.5
4113.27	-19.5
4115.694	-22.5
4118.115	-17.5
4120.535	-120.5
4122.954	-121.5
4125.37	-118.5
4127.785	-119.5
4130.198	-117.5
4132.609	-118.5
4135.019	-127.5
4137.427	-125.5
4139.833	-127.5
4142.237	-125.5
