Data from 2018-2-8_conc=4_n=3_RamanShift_02.txt Node
Date: Mon Mar 12 15:15:58 IST 2018
User: aro
Spectrometer: QEPB0276
Trigger mode: 0
Integration Time (sec): 3.000000E1
Scans to average: 1
Electric dark correction enabled: true
Nonlinearity correction enabled: false
Boxcar width: 0
XAxis mode: Raman Shifts
Number of Pixels in Spectrum: 1044
>>>>>Begin Spectral Data<<<<<
160.701	16.5
166.742	37.5
172.777	119.5
178.805	384.5
184.826	1023.5
190.841	2191.5
196.849	3640.5
202.85	4770.5
208.845	5202.5
214.833	5221.5
220.815	5159.5
226.789	5113.5
232.758	5117.5
238.719	5109.5
244.674	5102.5
250.623	5029.5
256.565	5000.5
262.5	4886.5
268.429	4835.5
274.351	4793.5
280.267	4771.5
286.176	4757.5
292.079	4706.5
297.975	4707.5
303.865	4679.5
309.748	4697.5
315.625	4651.5
321.495	4655.5
327.359	4644.5
333.217	4639.5
339.068	4674.5
344.912	4671.5
350.751	4666.5
356.583	4685.5
362.408	4703.5
368.227	4703.5
374.04	4721.5
379.847	4724.5
385.647	4725.5
391.44	4761.5
397.228	4761.5
403.009	4810.5
408.784	4816.5
414.553	4819.5
420.315	4818.5
426.071	4876.5
431.821	4849.5
437.565	4847.5
443.302	4864.5
449.033	4821.5
454.758	4801.5
460.477	4756.5
466.189	4779.5
471.896	4724.5
477.596	4689.5
483.29	4680.5
488.978	4665.5
494.66	4660.5
500.335	4586.5
506.005	4489.5
511.668	4364.5
517.325	4226.5
522.977	4118.5
528.622	4049.5
534.261	4013.5
539.894	3959.5
545.521	3913.5
551.141	3916.5
556.756	3829.5
562.365	3830.5
567.968	3812.5
573.565	3772.5
579.155	3770.5
584.74	3762.5
590.319	3736.5
595.892	3725.5
601.459	3717.5
607.02	3694.5
612.575	3665.5
618.124	3650.5
623.667	3636.5
629.204	3600.5
634.735	3538.5
640.261	3510.5
645.781	3529.5
651.294	3500.5
656.802	3511.5
662.304	3466.5
667.8	3467.5
673.29	3445.5
678.775	3447.5
684.254	3436.5
689.726	3436.5
695.193	3439.5
700.655	3416.5
706.11	3386.5
711.56	3381.5
717.004	3334.5
722.442	3332.5
727.874	3315.5
733.301	3289.5
738.722	3287.5
744.137	3280.5
749.547	3279.5
754.951	3253.5
760.349	3256.5
765.741	3275.5
771.128	3281.5
776.509	3292.5
781.885	3341.5
787.254	3346.5
792.618	3329.5
797.977	3325.5
803.33	3305.5
808.677	3276.5
814.019	3238.5
819.355	3214.5
824.686	3209.5
830.011	3181.5
835.33	3197.5
840.644	3187.5
845.952	3165.5
851.255	3166.5
856.552	3134.5
861.844	3117.5
867.13	3118.5
872.41	3108.5
877.686	3069.5
882.955	3061.5
888.219	3025.5
893.478	3007.5
898.731	2931.5
903.979	2913.5
909.221	2874.5
914.458	2879.5
919.69	2860.5
924.916	2875.5
930.136	2902.5
935.351	2882.5
940.561	2901.5
945.766	2879.5
950.965	2880.5
956.158	2855.5
961.347	2833.5
966.529	2779.5
971.707	2759.5
976.879	2696.5
982.046	2703.5
987.208	2660.5
992.364	2681.5
997.515	2684.5
1002.66	2698.5
1007.801	2720.5
1012.936	2742.5
1018.066	2756.5
1023.19	2756.5
1028.309	2751.5
1033.423	2755.5
1038.532	2742.5
1043.636	2715.5
1048.734	2727.5
1053.827	2642.5
1058.915	2634.5
1063.998	2602.5
1069.075	2586.5
1074.147	2599.5
1079.214	2605.5
1084.276	2624.5
1089.333	2627.5
1094.385	2626.5
1099.431	2635.5
1104.472	2639.5
1109.509	2625.5
1114.54	2572.5
1119.565	2556.5
1124.586	2518.5
1129.602	2477.5
1134.613	2469.5
1139.618	2438.5
1144.619	2446.5
1149.614	2436.5
1154.604	2452.5
1159.589	2476.5
1164.57	2474.5
1169.545	2457.5
1174.515	2461.5
1179.48	2454.5
1184.44	2422.5
1189.395	2418.5
1194.345	2402.5
1199.29	2367.5
1204.23	2383.5
1209.165	2377.5
1214.095	2397.5
1219.021	2418.5
1223.941	2432.5
1228.856	2428.5
1233.766	2431.5
1238.672	2439.5
1243.572	2442.5
1248.467	2413.5
1253.358	2414.5
1258.244	2348.5
1263.124	2320.5
1268	2307.5
1272.871	2238.5
1277.737	2225.5
1282.599	2208.5
1287.455	2237.5
1292.306	2235.5
1297.153	2247.5
1301.995	2244.5
1306.832	2263.5
1311.664	2277.5
1316.491	2278.5
1321.314	2286.5
1326.132	2254.5
1330.945	2236.5
1335.753	2206.5
1340.556	2156.5
1345.354	2154.5
1350.148	2098.5
1354.937	2087.5
1359.722	2046.5
1364.501	2005.5
1369.276	1984.5
1374.046	1937.5
1378.811	1907.5
1383.572	1926.5
1388.327	1909.5
1393.079	1928.5
1397.825	1923.5
1402.567	1908.5
1407.304	1908.5
1412.036	1910.5
1416.764	1918.5
1421.487	1907.5
1426.205	1912.5
1430.919	1928.5
1435.628	1923.5
1440.333	1952.5
1445.032	1966.5
1449.727	1980.5
1454.418	1994.5
1459.104	1983.5
1463.785	1964.5
1468.462	1927.5
1473.134	1904.5
1477.802	1862.5
1482.465	1811.5
1487.123	1785.5
1491.777	1751.5
1496.426	1760.5
1501.071	1727.5
1505.711	1718.5
1510.347	1734.5
1514.978	1717.5
1519.604	1702.5
1524.226	1725.5
1528.844	1689.5
1533.457	1683.5
1538.065	1680.5
1542.669	1689.5
1547.269	1668.5
1551.864	1677.5
1556.454	1704.5
1561.041	1707.5
1565.622	1707.5
1570.199	1723.5
1574.772	1732.5
1579.34	1765.5
1583.904	1787.5
1588.464	1807.5
1593.019	1793.5
1597.569	1811.5
1602.115	1800.5
1606.657	1790.5
1611.195	1792.5
1615.728	1762.5
1620.256	1765.5
1624.78	1766.5
1629.3	1779.5
1633.816	1793.5
1638.327	1804.5
1642.834	1809.5
1647.336	1807.5
1651.834	1800.5
1656.328	1817.5
1660.817	1806.5
1665.302	1781.5
1669.783	1755.5
1674.259	1710.5
1678.732	1673.5
1683.199	1630.5
1687.663	1594.5
1692.122	1538.5
1696.577	1485.5
1701.028	1414.5
1705.474	1378.5
1709.917	1322.5
1714.355	1296.5
1718.788	1302.5
1723.218	1272.5
1727.643	1293.5
1732.064	1282.5
1736.481	1266.5
1740.893	1250.5
1745.301	1217.5
1749.705	1197.5
1754.105	1181.5
1758.501	1153.5
1762.893	1129.5
1767.28	1131.5
1771.663	1104.5
1776.042	1108.5
1780.417	1096.5
1784.787	1091.5
1789.154	1063.5
1793.516	1063.5
1797.874	1057.5
1802.228	1033.5
1806.578	1019.5
1810.924	1012.5
1815.266	1007.5
1819.603	1021.5
1823.937	1007.5
1828.266	1005.5
1832.591	1004.5
1836.913	995.5
1841.23	997.5
1845.543	1007.5
1849.852	1001.5
1854.156	991.5
1858.457	1008.5
1862.754	991.5
1867.047	1003.5
1871.335	986.5
1875.62	991.5
1879.9	993.5
1884.177	985.5
1888.449	981.5
1892.718	970.5
1896.982	955.5
1901.243	955.5
1905.499	934.5
1909.752	922.5
1914	903.5
1918.245	894.5
1922.485	870.5
1926.722	895.5
1930.954	885.5
1935.183	869.5
1939.408	865.5
1943.628	860.5
1947.845	865.5
1952.058	848.5
1956.267	846.5
1960.472	855.5
1964.673	825.5
1968.87	813.5
1973.063	812.5
1977.252	796.5
1981.438	805.5
1985.619	812.5
1989.797	797.5
1993.971	826.5
1998.14	805.5
2002.306	803.5
2006.469	811.5
2010.627	819.5
2014.781	810.5
2018.932	809.5
2023.078	822.5
2027.221	809.5
2031.36	800.5
2035.495	794.5
2039.627	778.5
2043.754	758.5
2047.878	760.5
2051.998	747.5
2056.114	756.5
2060.226	755.5
2064.334	750.5
2068.439	744.5
2072.54	741.5
2076.637	748.5
2080.73	743.5
2084.82	736.5
2088.906	729.5
2092.988	723.5
2097.066	726.5
2101.14	707.5
2105.211	703.5
2109.278	684.5
2113.342	687.5
2117.401	673.5
2121.457	676.5
2125.509	664.5
2129.558	666.5
2133.602	661.5
2137.643	669.5
2141.681	669.5
2145.714	669.5
2149.744	652.5
2153.77	650.5
2157.793	655.5
2161.812	643.5
2165.827	641.5
2169.838	644.5
2173.846	622.5
2177.851	598.5
2181.851	598.5
2185.848	609.5
2189.841	595.5
2193.831	590.5
2197.817	573.5
2201.799	583.5
2205.778	595.5
2209.753	588.5
2213.725	565.5
2217.693	571.5
2221.657	575.5
2225.618	571.5
2229.575	573.5
2233.529	565.5
2237.479	564.5
2241.425	560.5
2245.368	547.5
2249.307	523.5
2253.243	529.5
2257.175	520.5
2261.104	505.5
2265.029	503.5
2268.95	516.5
2272.868	496.5
2276.783	491.5
2280.694	482.5
2284.601	471.5
2288.505	470.5
2292.405	470.5
2296.302	458.5
2300.195	441.5
2304.085	455.5
2307.971	442.5
2311.854	438.5
2315.734	419.5
2319.609	420.5
2323.482	416.5
2327.351	426.5
2331.216	429.5
2335.078	445.5
2338.937	427.5
2342.792	398.5
2346.643	391.5
2350.492	399.5
2354.336	402.5
2358.178	409.5
2362.015	392.5
2365.85	400.5
2369.681	404.5
2373.508	404.5
2377.333	401.5
2381.153	396.5
2384.971	406.5
2388.785	391.5
2392.595	390.5
2396.402	386.5
2400.206	393.5
2404.007	387.5
2407.804	380.5
2411.597	382.5
2415.388	378.5
2419.174	378.5
2422.958	380.5
2426.738	362.5
2430.515	364.5
2434.289	371.5
2438.059	360.5
2441.825	356.5
2445.589	361.5
2449.349	348.5
2453.106	337.5
2456.859	345.5
2460.61	340.5
2464.356	324.5
2468.1	328.5
2471.84	319.5
2475.577	328.5
2479.311	318.5
2483.041	315.5
2486.768	310.5
2490.492	311.5
2494.213	319.5
2497.93	304.5
2501.644	308.5
2505.355	307.5
2509.062	301.5
2512.766	301.5
2516.467	293.5
2520.165	294.5
2523.859	290.5
2527.551	282.5
2531.239	279.5
2534.923	277.5
2538.605	274.5
2542.283	273.5
2545.958	264.5
2549.63	259.5
2553.299	257.5
2556.964	264.5
2560.626	252.5
2564.285	256.5
2567.941	250.5
2571.594	248.5
2575.243	250.5
2578.89	248.5
2582.533	237.5
2586.173	230.5
2589.809	229.5
2593.443	231.5
2597.073	228.5
2600.701	226.5
2604.325	219.5
2607.946	219.5
2611.564	216.5
2615.178	225.5
2618.79	228.5
2622.398	219.5
2626.004	210.5
2629.606	213.5
2633.205	205.5
2636.801	204.5
2640.394	208.5
2643.983	201.5
2647.57	198.5
2651.153	195.5
2654.734	196.5
2658.311	186.5
2661.885	187.5
2665.456	193.5
2669.025	185.5
2672.589	192.5
2676.151	192.5
2679.71	191.5
2683.266	181.5
2686.819	177.5
2690.368	168.5
2693.915	173.5
2697.458	168.5
2700.999	166.5
2704.536	169.5
2708.071	156.5
2711.602	154.5
2715.13	161.5
2718.656	151.5
2722.178	149.5
2725.697	143.5
2729.214	138.5
2732.727	147.5
2736.237	149.5
2739.744	140.5
2743.249	135.5
2746.75	131.5
2750.248	135.5
2753.743	118.5
2757.236	129.5
2760.725	126.5
2764.211	128.5
2767.695	128.5
2771.175	115.5
2774.652	115.5
2778.127	111.5
2781.598	113.5
2785.067	123.5
2788.532	118.5
2791.995	112.5
2795.455	120.5
2798.911	115.5
2802.365	123.5
2805.816	123.5
2809.264	122.5
2812.709	122.5
2816.151	110.5
2819.59	120.5
2823.026	124.5
2826.46	111.5
2829.89	121.5
2833.318	105.5
2836.742	125.5
2840.164	117.5
2843.583	125.5
2846.999	126.5
2850.412	126.5
2853.822	119.5
2857.229	125.5
2860.634	123.5
2864.035	133.5
2867.434	136.5
2870.83	145.5
2874.223	158.5
2877.613	156.5
2881	170.5
2884.385	166.5
2887.766	150.5
2891.145	151.5
2894.521	164.5
2897.894	169.5
2901.264	170.5
2904.631	160.5
2907.996	167.5
2911.358	168.5
2914.717	161.5
2918.073	174.5
2921.426	175.5
2924.777	187.5
2928.124	200.5
2931.469	195.5
2934.811	207.5
2938.15	202.5
2941.487	211.5
2944.821	202.5
2948.152	206.5
2951.48	208.5
2954.805	211.5
2958.128	209.5
2961.447	206.5
2964.765	200.5
2968.079	199.5
2971.39	196.5
2974.699	204.5
2978.005	210.5
2981.308	212.5
2984.609	206.5
2987.907	204.5
2991.202	209.5
2994.494	207.5
2997.784	210.5
3001.07	221.5
3004.355	223.5
3007.636	221.5
3010.915	225.5
3014.191	231.5
3017.464	238.5
3020.734	232.5
3024.002	241.5
3027.267	245.5
3030.53	247.5
3033.789	249.5
3037.046	269.5
3040.301	259.5
3043.552	283.5
3046.801	296.5
3050.048	289.5
3053.291	302.5
3056.532	306.5
3059.771	321.5
3063.006	327.5
3066.239	346.5
3069.469	343.5
3072.697	362.5
3075.922	364.5
3079.144	385.5
3082.364	390.5
3085.581	406.5
3088.795	408.5
3092.007	417.5
3095.216	418.5
3098.423	428.5
3101.627	425.5
3104.828	454.5
3108.026	464.5
3111.222	473.5
3114.416	482.5
3117.607	502.5
3120.795	495.5
3123.98	508.5
3127.163	525.5
3130.344	537.5
3133.521	545.5
3136.696	567.5
3139.869	558.5
3143.039	575.5
3146.206	584.5
3149.371	600.5
3152.533	604.5
3155.693	600.5
3158.85	619.5
3162.005	625.5
3165.157	620.5
3168.306	614.5
3171.453	631.5
3174.597	620.5
3177.739	643.5
3180.878	646.5
3184.014	651.5
3187.149	641.5
3190.28	655.5
3193.409	652.5
3196.536	641.5
3199.659	659.5
3202.781	665.5
3205.9	670.5
3209.016	660.5
3212.13	647.5
3215.241	658.5
3218.35	646.5
3221.456	640.5
3224.56	651.5
3227.661	625.5
3230.76	629.5
3233.856	611.5
3236.95	598.5
3240.041	588.5
3243.13	570.5
3246.216	572.5
3249.3	562.5
3252.382	557.5
3255.46	553.5
3258.537	546.5
3261.611	557.5
3264.682	538.5
3267.751	541.5
3270.818	539.5
3273.882	540.5
3276.943	527.5
3280.002	516.5
3283.059	535.5
3286.113	522.5
3289.165	509.5
3292.214	514.5
3295.261	495.5
3298.306	494.5
3301.348	484.5
3304.387	486.5
3307.425	481.5
3310.459	476.5
3313.492	462.5
3316.521	449.5
3319.549	457.5
3322.574	447.5
3325.597	441.5
3328.617	453.5
3331.635	453.5
3334.65	439.5
3337.663	443.5
3340.674	443.5
3343.682	445.5
3346.688	433.5
3349.691	440.5
3352.692	424.5
3355.691	433.5
3358.687	416.5
3361.681	428.5
3364.673	426.5
3367.662	405.5
3370.649	402.5
3373.633	401.5
3376.615	391.5
3379.595	387.5
3382.572	381.5
3385.547	375.5
3388.52	374.5
3391.49	371.5
3394.458	363.5
3397.424	346.5
3400.387	347.5
3403.348	342.5
3406.307	338.5
3409.263	339.5
3412.217	329.5
3415.168	335.5
3418.118	321.5
3421.065	308.5
3424.009	314.5
3426.951	309.5
3429.891	296.5
3432.829	295.5
3435.764	279.5
3438.697	270.5
3441.628	271.5
3444.557	255.5
3447.483	256.5
3450.407	235.5
3453.328	219.5
3456.247	215.5
3459.164	212.5
3462.079	204.5
3464.991	198.5
3467.902	186.5
3470.809	193.5
3473.715	164.5
3476.618	163.5
3479.519	159.5
3482.418	161.5
3485.315	141.5
3488.209	133.5
3491.101	140.5
3493.99	137.5
3496.878	117.5
3499.763	115.5
3502.646	103.5
3505.527	94.5
3508.405	92.5
3511.281	87.5
3514.155	78.5
3517.027	82.5
3519.897	67.5
3522.764	53.5
3525.629	55.5
3528.492	45.5
3531.352	42.5
3534.211	32.5
3537.067	26.5
3539.921	25.5
3542.773	21.5
3545.622	4.5
3548.469	6.5
3551.315	9.5
3554.157	-0.5
3556.998	-8.5
3559.837	-13.5
3562.673	-17.5
3565.507	-16.5
3568.339	-21.5
3571.169	-35.5
3573.996	-29.5
3576.822	-33.5
3579.645	-24.5
3582.466	-37.5
3585.285	-38.5
3588.101	-38.5
3590.916	-50.5
3593.728	-52.5
3596.538	-54.5
3599.346	-58.5
3602.152	-59.5
3604.956	-58.5
3607.757	-60.5
3610.556	-65.5
3613.354	-60.5
3616.149	-68.5
3618.942	-76.5
3621.732	-71.5
3624.521	-74.5
3627.307	-73.5
3630.092	-77.5
3632.874	-80.5
3635.654	-85.5
3638.432	-79.5
3641.208	-86.5
3643.982	-86.5
3646.753	-92.5
3649.523	-94.5
3652.29	-90.5
3655.055	-92.5
3657.818	-94.5
3660.579	-91.5
3663.338	-97.5
3666.095	-97.5
3668.849	-104.5
3671.602	-109.5
3674.352	-106.5
3677.101	-107.5
3679.847	-108.5
3682.591	-113.5
3685.333	-103.5
3688.073	-110.5
3690.811	-111.5
3693.547	-124.5
3696.281	-119.5
3699.013	-116.5
3701.742	-114.5
3704.47	-111.5
3707.195	-109.5
3709.919	-118.5
3712.64	-119.5
3715.359	-121.5
3718.076	-117.5
3720.792	-121.5
3723.505	-121.5
3726.216	-113.5
3728.925	-123.5
3731.632	-121.5
3734.336	-129.5
3737.039	-122.5
3739.74	-124.5
3742.439	-127.5
3745.136	-118.5
3747.83	-130.5
3750.523	-128.5
3753.213	-133.5
3755.902	-131.5
3758.589	-128.5
3761.273	-120.5
3763.956	-124.5
3766.636	-124.5
3769.315	-121.5
3771.991	-123.5
3774.665	-135.5
3777.338	-124.5
3780.008	-123.5
3782.677	-134.5
3785.343	-126.5
3788.007	-128.5
3790.67	-133.5
3793.33	-127.5
3795.989	-130.5
3798.645	-123.5
3801.299	-126.5
3803.952	-133.5
3806.602	-123.5
3809.251	-132.5
3811.897	-134.5
3814.542	-132.5
3817.184	-128.5
3819.825	-132.5
3822.463	-129.5
3825.1	-134.5
3827.735	-130.5
3830.367	-134.5
3832.998	-136.5
3835.627	-132.5
3838.253	-129.5
3840.878	-131.5
3843.501	-124.5
3846.122	-133.5
3848.741	-134.5
3851.358	-132.5
3853.973	-134.5
3856.586	-133.5
3859.197	-135.5
3861.806	-130.5
3864.414	-133.5
3867.019	-124.5
3869.622	-134.5
3872.224	-118.5
3874.823	-116.5
3877.421	-106.5
3880.016	-90.5
3882.61	-60.5
3885.202	-59.5
3887.792	-79.5
3890.38	-98.5
3892.966	-125.5
3895.55	-128.5
3898.132	-130.5
3900.713	-131.5
3903.291	-140.5
3905.868	-131.5
3908.442	-128.5
3911.015	-132.5
3913.586	-136.5
3916.155	-135.5
3918.722	-137.5
3921.287	-132.5
3923.85	-133.5
3926.411	-133.5
3928.971	-129.5
3931.528	-137.5
3934.084	-130.5
3936.638	-133.5
3939.19	-138.5
3941.74	-136.5
3944.288	-139.5
3946.834	-132.5
3949.378	-135.5
3951.921	-131.5
3954.462	-140.5
3957	-132.5
3959.537	-133.5
3962.072	-144.5
3964.606	-128.5
3967.137	-136.5
3969.667	-132.5
3972.194	-135.5
3974.72	-132.5
3977.244	-133.5
3979.766	-138.5
3982.286	-137.5
3984.805	-137.5
3987.321	-130.5
3989.836	-126.5
3992.349	-133.5
3994.86	-136.5
3997.369	-136.5
3999.877	-136.5
4002.382	-131.5
4004.886	-140.5
4007.388	-128.5
4009.888	-128.5
4012.386	-131.5
4014.883	-132.5
4017.377	-137.5
4019.87	-132.5
4022.361	-134.5
4024.85	-133.5
4027.338	-132.5
4029.823	-125.5
4032.307	-132.5
4034.789	-131.5
4037.269	-130.5
4039.747	-125.5
4042.224	-135.5
4044.699	-137.5
4047.172	-132.5
4049.643	-128.5
4052.112	-132.5
4054.58	-134.5
4057.046	-135.5
4059.51	-134.5
4061.972	-134.5
4064.432	-134.5
4066.891	-135.5
4069.348	-125.5
4071.803	-133.5
4074.256	-132.5
4076.708	-131.5
4079.158	-128.5
4081.606	-130.5
4084.052	-135.5
4086.497	-129.5
4088.939	-124.5
4091.38	-125.5
4093.819	-128.5
4096.257	-137.5
4098.693	-133.5
4101.127	-135.5
4103.559	-134.5
4105.989	-8.5
4108.418	-6.5
4110.845	-7.5
4113.27	-7.5
4115.694	-8.5
4118.115	-8.5
4120.535	-131.5
4122.954	-134.5
4125.37	-132.5
4127.785	-132.5
4130.198	-128.5
4132.609	-131.5
4135.019	-137.5
4137.427	-141.5
4139.833	-138.5
4142.237	-140.5
