Data from 2018-2-8_conc=5_n=10_RamanShift_02.txt Node
Date: Mon Mar 12 16:20:58 IST 2018
User: aro
Spectrometer: QEPB0276
Trigger mode: 0
Integration Time (sec): 3.000000E1
Scans to average: 1
Electric dark correction enabled: true
Nonlinearity correction enabled: false
Boxcar width: 0
XAxis mode: Raman Shifts
Number of Pixels in Spectrum: 1044
>>>>>Begin Spectral Data<<<<<
160.701	25.4
166.742	52.4
172.777	107.4
178.805	343.4
184.826	908.4
190.841	1936.4
196.849	3212.4
202.85	4193.4
208.845	4561.4
214.833	4598.4
220.815	4529.4
226.789	4525.4
232.758	4516.4
238.719	4524.4
244.674	4476.4
250.623	4442.4
256.565	4359.4
262.5	4309.4
268.429	4257.4
274.351	4232.4
280.267	4197.4
286.176	4150.4
292.079	4144.4
297.975	4149.4
303.865	4103.4
309.748	4103.4
315.625	4118.4
321.495	4116.4
327.359	4100.4
333.217	4109.4
339.068	4107.4
344.912	4098.4
350.751	4143.4
356.583	4082.4
362.408	4118.4
368.227	4150.4
374.04	4150.4
379.847	4161.4
385.647	4189.4
391.44	4203.4
397.228	4239.4
403.009	4279.4
408.784	4288.4
414.553	4302.4
420.315	4297.4
426.071	4309.4
431.821	4308.4
437.565	4312.4
443.302	4283.4
449.033	4260.4
454.758	4252.4
460.477	4252.4
466.189	4243.4
471.896	4206.4
477.596	4151.4
483.29	4144.4
488.978	4148.4
494.66	4108.4
500.335	4067.4
506.005	3917.4
511.668	3777.4
517.325	3614.4
522.977	3529.4
528.622	3439.4
534.261	3377.4
539.894	3339.4
545.521	3305.4
551.141	3281.4
556.756	3246.4
562.365	3221.4
567.968	3184.4
573.565	3180.4
579.155	3153.4
584.74	3147.4
590.319	3134.4
595.892	3130.4
601.459	3127.4
607.02	3120.4
612.575	3106.4
618.124	3061.4
623.667	3015.4
629.204	2989.4
634.735	2967.4
640.261	2949.4
645.781	2936.4
651.294	2912.4
656.802	2915.4
662.304	2895.4
667.8	2887.4
673.29	2893.4
678.775	2868.4
684.254	2880.4
689.726	2868.4
695.193	2862.4
700.655	2818.4
706.11	2815.4
711.56	2815.4
717.004	2772.4
722.442	2786.4
727.874	2754.4
733.301	2760.4
738.722	2715.4
744.137	2737.4
749.547	2698.4
754.951	2719.4
760.349	2729.4
765.741	2748.4
771.128	2741.4
776.509	2772.4
781.885	2793.4
787.254	2779.4
792.618	2821.4
797.977	2793.4
803.33	2791.4
808.677	2758.4
814.019	2746.4
819.355	2688.4
824.686	2673.4
830.011	2675.4
835.33	2649.4
840.644	2661.4
845.952	2656.4
851.255	2648.4
856.552	2613.4
861.844	2622.4
867.13	2596.4
872.41	2576.4
877.686	2551.4
882.955	2519.4
888.219	2515.4
893.478	2500.4
898.731	2452.4
903.979	2430.4
909.221	2396.4
914.458	2405.4
919.69	2392.4
924.916	2386.4
930.136	2410.4
935.351	2394.4
940.561	2403.4
945.766	2382.4
950.965	2398.4
956.158	2364.4
961.347	2334.4
966.529	2306.4
971.707	2284.4
976.879	2266.4
982.046	2219.4
987.208	2200.4
992.364	2207.4
997.515	2228.4
1002.66	2245.4
1007.801	2261.4
1012.936	2282.4
1018.066	2308.4
1023.19	2311.4
1028.309	2288.4
1033.423	2317.4
1038.532	2276.4
1043.636	2266.4
1048.734	2250.4
1053.827	2222.4
1058.915	2197.4
1063.998	2182.4
1069.075	2163.4
1074.147	2178.4
1079.214	2161.4
1084.276	2171.4
1089.333	2188.4
1094.385	2206.4
1099.431	2213.4
1104.472	2206.4
1109.509	2174.4
1114.54	2142.4
1119.565	2130.4
1124.586	2093.4
1129.602	2058.4
1134.613	2038.4
1139.618	2042.4
1144.619	2033.4
1149.614	2017.4
1154.604	2053.4
1159.589	2028.4
1164.57	2045.4
1169.545	2053.4
1174.515	2070.4
1179.48	2057.4
1184.44	2051.4
1189.395	2022.4
1194.345	1995.4
1199.29	1995.4
1204.23	1984.4
1209.165	2005.4
1214.095	2012.4
1219.021	2014.4
1223.941	2018.4
1228.856	2026.4
1233.766	2051.4
1238.672	2046.4
1243.572	2040.4
1248.467	2027.4
1253.358	1993.4
1258.244	1967.4
1263.124	1940.4
1268	1902.4
1272.871	1868.4
1277.737	1861.4
1282.599	1844.4
1287.455	1840.4
1292.306	1847.4
1297.153	1860.4
1301.995	1874.4
1306.832	1882.4
1311.664	1904.4
1316.491	1904.4
1321.314	1900.4
1326.132	1881.4
1330.945	1857.4
1335.753	1845.4
1340.556	1834.4
1345.354	1795.4
1350.148	1761.4
1354.937	1738.4
1359.722	1703.4
1364.501	1686.4
1369.276	1664.4
1374.046	1636.4
1378.811	1622.4
1383.572	1609.4
1388.327	1606.4
1393.079	1608.4
1397.825	1584.4
1402.567	1582.4
1407.304	1589.4
1412.036	1606.4
1416.764	1622.4
1421.487	1586.4
1426.205	1603.4
1430.919	1622.4
1435.628	1622.4
1440.333	1636.4
1445.032	1649.4
1449.727	1669.4
1454.418	1668.4
1459.104	1672.4
1463.785	1649.4
1468.462	1630.4
1473.134	1587.4
1477.802	1556.4
1482.465	1524.4
1487.123	1482.4
1491.777	1479.4
1496.426	1476.4
1501.071	1467.4
1505.711	1451.4
1510.347	1448.4
1514.978	1460.4
1519.604	1452.4
1524.226	1440.4
1528.844	1427.4
1533.457	1412.4
1538.065	1416.4
1542.669	1411.4
1547.269	1399.4
1551.864	1412.4
1556.454	1422.4
1561.041	1438.4
1565.622	1452.4
1570.199	1449.4
1574.772	1443.4
1579.34	1493.4
1583.904	1510.4
1588.464	1507.4
1593.019	1503.4
1597.569	1521.4
1602.115	1511.4
1606.657	1530.4
1611.195	1501.4
1615.728	1504.4
1620.256	1513.4
1624.78	1501.4
1629.3	1505.4
1633.816	1524.4
1638.327	1539.4
1642.834	1527.4
1647.336	1529.4
1651.834	1548.4
1656.328	1551.4
1660.817	1529.4
1665.302	1521.4
1669.783	1486.4
1674.259	1466.4
1678.732	1443.4
1683.199	1387.4
1687.663	1364.4
1692.122	1320.4
1696.577	1267.4
1701.028	1203.4
1705.474	1177.4
1709.917	1142.4
1714.355	1116.4
1718.788	1104.4
1723.218	1098.4
1727.643	1111.4
1732.064	1087.4
1736.481	1080.4
1740.893	1058.4
1745.301	1019.4
1749.705	1017.4
1754.105	1004.4
1758.501	966.4
1762.893	974.4
1767.28	949.4
1771.663	958.4
1776.042	945.4
1780.417	928.4
1784.787	906.4
1789.154	921.4
1793.516	925.4
1797.874	891.4
1802.228	879.4
1806.578	875.4
1810.924	862.4
1815.266	857.4
1819.603	849.4
1823.937	851.4
1828.266	845.4
1832.591	842.4
1836.913	832.4
1841.23	836.4
1845.543	859.4
1849.852	851.4
1854.156	845.4
1858.457	856.4
1862.754	844.4
1867.047	842.4
1871.335	850.4
1875.62	856.4
1879.9	848.4
1884.177	839.4
1888.449	841.4
1892.718	833.4
1896.982	812.4
1901.243	802.4
1905.499	808.4
1909.752	793.4
1914	768.4
1918.245	774.4
1922.485	757.4
1926.722	763.4
1930.954	758.4
1935.183	741.4
1939.408	751.4
1943.628	747.4
1947.845	741.4
1952.058	731.4
1956.267	734.4
1960.472	719.4
1964.673	705.4
1968.87	699.4
1973.063	704.4
1977.252	679.4
1981.438	694.4
1985.619	682.4
1989.797	685.4
1993.971	703.4
1998.14	694.4
2002.306	682.4
2006.469	696.4
2010.627	682.4
2014.781	693.4
2018.932	677.4
2023.078	697.4
2027.221	688.4
2031.36	687.4
2035.495	678.4
2039.627	674.4
2043.754	656.4
2047.878	652.4
2051.998	647.4
2056.114	653.4
2060.226	644.4
2064.334	645.4
2068.439	645.4
2072.54	642.4
2076.637	645.4
2080.73	640.4
2084.82	636.4
2088.906	637.4
2092.988	611.4
2097.066	626.4
2101.14	602.4
2105.211	603.4
2109.278	580.4
2113.342	575.4
2117.401	572.4
2121.457	588.4
2125.509	561.4
2129.558	571.4
2133.602	570.4
2137.643	571.4
2141.681	570.4
2145.714	558.4
2149.744	570.4
2153.77	555.4
2157.793	560.4
2161.812	556.4
2165.827	540.4
2169.838	551.4
2173.846	530.4
2177.851	511.4
2181.851	515.4
2185.848	510.4
2189.841	508.4
2193.831	507.4
2197.817	500.4
2201.799	485.4
2205.778	491.4
2209.753	492.4
2213.725	491.4
2217.693	493.4
2221.657	489.4
2225.618	486.4
2229.575	482.4
2233.529	474.4
2237.479	484.4
2241.425	460.4
2245.368	453.4
2249.307	458.4
2253.243	454.4
2257.175	437.4
2261.104	435.4
2265.029	421.4
2268.95	431.4
2272.868	415.4
2276.783	423.4
2280.694	417.4
2284.601	399.4
2288.505	393.4
2292.405	386.4
2296.302	390.4
2300.195	388.4
2304.085	384.4
2307.971	367.4
2311.854	374.4
2315.734	355.4
2319.609	348.4
2323.482	356.4
2327.351	345.4
2331.216	367.4
2335.078	382.4
2338.937	357.4
2342.792	342.4
2346.643	335.4
2350.492	343.4
2354.336	340.4
2358.178	338.4
2362.015	339.4
2365.85	348.4
2369.681	336.4
2373.508	355.4
2377.333	349.4
2381.153	333.4
2384.971	346.4
2388.785	335.4
2392.595	332.4
2396.402	334.4
2400.206	336.4
2404.007	334.4
2407.804	320.4
2411.597	323.4
2415.388	323.4
2419.174	331.4
2422.958	321.4
2426.738	311.4
2430.515	317.4
2434.289	309.4
2438.059	312.4
2441.825	300.4
2445.589	303.4
2449.349	301.4
2453.106	291.4
2456.859	293.4
2460.61	295.4
2464.356	273.4
2468.1	275.4
2471.84	280.4
2475.577	278.4
2479.311	263.4
2483.041	274.4
2486.768	267.4
2490.492	268.4
2494.213	267.4
2497.93	264.4
2501.644	265.4
2505.355	253.4
2509.062	263.4
2512.766	262.4
2516.467	241.4
2520.165	247.4
2523.859	252.4
2527.551	248.4
2531.239	239.4
2534.923	237.4
2538.605	234.4
2542.283	230.4
2545.958	223.4
2549.63	232.4
2553.299	221.4
2556.964	236.4
2560.626	223.4
2564.285	221.4
2567.941	220.4
2571.594	215.4
2575.243	202.4
2578.89	210.4
2582.533	201.4
2586.173	198.4
2589.809	197.4
2593.443	198.4
2597.073	201.4
2600.701	191.4
2604.325	180.4
2607.946	190.4
2611.564	199.4
2615.178	193.4
2618.79	191.4
2622.398	192.4
2626.004	183.4
2629.606	183.4
2633.205	163.4
2636.801	173.4
2640.394	181.4
2643.983	176.4
2647.57	176.4
2651.153	161.4
2654.734	163.4
2658.311	151.4
2661.885	161.4
2665.456	170.4
2669.025	170.4
2672.589	163.4
2676.151	152.4
2679.71	154.4
2683.266	152.4
2686.819	153.4
2690.368	146.4
2693.915	146.4
2697.458	142.4
2700.999	138.4
2704.536	140.4
2708.071	123.4
2711.602	123.4
2715.13	134.4
2718.656	133.4
2722.178	122.4
2725.697	121.4
2729.214	125.4
2732.727	130.4
2736.237	129.4
2739.744	117.4
2743.249	107.4
2746.75	118.4
2750.248	112.4
2753.743	107.4
2757.236	109.4
2760.725	107.4
2764.211	96.4
2767.695	95.4
2771.175	93.4
2774.652	86.4
2778.127	99.4
2781.598	106.4
2785.067	111.4
2788.532	108.4
2791.995	95.4
2795.455	97.4
2798.911	93.4
2802.365	101.4
2805.816	104.4
2809.264	102.4
2812.709	111.4
2816.151	98.4
2819.59	102.4
2823.026	100.4
2826.46	100.4
2829.89	94.4
2833.318	97.4
2836.742	106.4
2840.164	102.4
2843.583	108.4
2846.999	107.4
2850.412	100.4
2853.822	109.4
2857.229	106.4
2860.634	112.4
2864.035	114.4
2867.434	114.4
2870.83	128.4
2874.223	127.4
2877.613	126.4
2881	137.4
2884.385	138.4
2887.766	133.4
2891.145	133.4
2894.521	137.4
2897.894	138.4
2901.264	136.4
2904.631	138.4
2907.996	138.4
2911.358	138.4
2914.717	145.4
2918.073	150.4
2921.426	156.4
2924.777	168.4
2928.124	167.4
2931.469	160.4
2934.811	167.4
2938.15	167.4
2941.487	173.4
2944.821	171.4
2948.152	178.4
2951.48	184.4
2954.805	183.4
2958.128	175.4
2961.447	174.4
2964.765	170.4
2968.079	180.4
2971.39	181.4
2974.699	182.4
2978.005	180.4
2981.308	181.4
2984.609	187.4
2987.907	166.4
2991.202	182.4
2994.494	189.4
2997.784	193.4
3001.07	190.4
3004.355	192.4
3007.636	193.4
3010.915	195.4
3014.191	203.4
3017.464	202.4
3020.734	199.4
3024.002	196.4
3027.267	221.4
3030.53	216.4
3033.789	222.4
3037.046	232.4
3040.301	229.4
3043.552	242.4
3046.801	233.4
3050.048	257.4
3053.291	258.4
3056.532	268.4
3059.771	273.4
3063.006	280.4
3066.239	297.4
3069.469	307.4
3072.697	311.4
3075.922	334.4
3079.144	330.4
3082.364	344.4
3085.581	343.4
3088.795	356.4
3092.007	363.4
3095.216	365.4
3098.423	376.4
3101.627	387.4
3104.828	407.4
3108.026	395.4
3111.222	408.4
3114.416	419.4
3117.607	442.4
3120.795	445.4
3123.98	448.4
3127.163	456.4
3130.344	487.4
3133.521	495.4
3136.696	504.4
3139.869	501.4
3143.039	516.4
3146.206	524.4
3149.371	524.4
3152.533	534.4
3155.693	538.4
3158.85	549.4
3162.005	549.4
3165.157	559.4
3168.306	566.4
3171.453	549.4
3174.597	554.4
3177.739	567.4
3180.878	552.4
3184.014	580.4
3187.149	570.4
3190.28	572.4
3193.409	575.4
3196.536	568.4
3199.659	573.4
3202.781	582.4
3205.9	579.4
3209.016	589.4
3212.13	591.4
3215.241	587.4
3218.35	574.4
3221.456	571.4
3224.56	564.4
3227.661	545.4
3230.76	552.4
3233.856	536.4
3236.95	529.4
3240.041	520.4
3243.13	514.4
3246.216	511.4
3249.3	497.4
3252.382	500.4
3255.46	492.4
3258.537	495.4
3261.611	494.4
3264.682	470.4
3267.751	474.4
3270.818	476.4
3273.882	466.4
3276.943	463.4
3280.002	466.4
3283.059	464.4
3286.113	465.4
3289.165	447.4
3292.214	451.4
3295.261	434.4
3298.306	433.4
3301.348	418.4
3304.387	426.4
3307.425	419.4
3310.459	423.4
3313.492	411.4
3316.521	405.4
3319.549	402.4
3322.574	390.4
3325.597	395.4
3328.617	394.4
3331.635	393.4
3334.65	398.4
3337.663	386.4
3340.674	388.4
3343.682	385.4
3346.688	384.4
3349.691	379.4
3352.692	375.4
3355.691	395.4
3358.687	370.4
3361.681	381.4
3364.673	355.4
3367.662	362.4
3370.649	361.4
3373.633	345.4
3376.615	346.4
3379.595	344.4
3382.572	346.4
3385.547	332.4
3388.52	310.4
3391.49	318.4
3394.458	312.4
3397.424	305.4
3400.387	312.4
3403.348	307.4
3406.307	292.4
3409.263	285.4
3412.217	286.4
3415.168	302.4
3418.118	287.4
3421.065	265.4
3424.009	273.4
3426.951	269.4
3429.891	265.4
3432.829	254.4
3435.764	243.4
3438.697	236.4
3441.628	226.4
3444.557	226.4
3447.483	222.4
3450.407	213.4
3453.328	200.4
3456.247	189.4
3459.164	177.4
3462.079	178.4
3464.991	167.4
3467.902	157.4
3470.809	156.4
3473.715	141.4
3476.618	146.4
3479.519	138.4
3482.418	129.4
3485.315	108.4
3488.209	114.4
3491.101	112.4
3493.99	115.4
3496.878	98.4
3499.763	86.4
3502.646	86.4
3505.527	81.4
3508.405	77.4
3511.281	75.4
3514.155	71.4
3517.027	64.4
3519.897	45.4
3522.764	44.4
3525.629	37.4
3528.492	33.4
3531.352	25.4
3534.211	26.4
3537.067	17.4
3539.921	24.4
3542.773	12.4
3545.622	1.4
3548.469	-4.6
3551.315	-1.6
3554.157	-8.6
3556.998	-18.6
3559.837	-13.6
3562.673	-18.6
3565.507	-15.6
3568.339	-26.6
3571.169	-43.6
3573.996	-31.6
3576.822	-28.6
3579.645	-35.6
3582.466	-33.6
3585.285	-48.6
3588.101	-41.6
3590.916	-53.6
3593.728	-58.6
3596.538	-59.6
3599.346	-55.6
3602.152	-56.6
3604.956	-54.6
3607.757	-57.6
3610.556	-69.6
3613.354	-61.6
3616.149	-77.6
3618.942	-77.6
3621.732	-74.6
3624.521	-77.6
3627.307	-74.6
3630.092	-75.6
3632.874	-77.6
3635.654	-83.6
3638.432	-79.6
3641.208	-82.6
3643.982	-89.6
3646.753	-91.6
3649.523	-92.6
3652.29	-86.6
3655.055	-89.6
3657.818	-94.6
3660.579	-94.6
3663.338	-92.6
3666.095	-95.6
3668.849	-100.6
3671.602	-96.6
3674.352	-103.6
3677.101	-108.6
3679.847	-106.6
3682.591	-107.6
3685.333	-102.6
3688.073	-101.6
3690.811	-107.6
3693.547	-112.6
3696.281	-110.6
3699.013	-114.6
3701.742	-109.6
3704.47	-107.6
3707.195	-103.6
3709.919	-114.6
3712.64	-114.6
3715.359	-119.6
3718.076	-112.6
3720.792	-123.6
3723.505	-120.6
3726.216	-113.6
3728.925	-113.6
3731.632	-120.6
3734.336	-124.6
3737.039	-115.6
3739.74	-121.6
3742.439	-120.6
3745.136	-115.6
3747.83	-121.6
3750.523	-116.6
3753.213	-134.6
3755.902	-121.6
3758.589	-127.6
3761.273	-121.6
3763.956	-118.6
3766.636	-114.6
3769.315	-117.6
3771.991	-117.6
3774.665	-130.6
3777.338	-118.6
3780.008	-124.6
3782.677	-123.6
3785.343	-118.6
3788.007	-128.6
3790.67	-124.6
3793.33	-119.6
3795.989	-127.6
3798.645	-122.6
3801.299	-124.6
3803.952	-128.6
3806.602	-119.6
3809.251	-125.6
3811.897	-129.6
3814.542	-124.6
3817.184	-124.6
3819.825	-125.6
3822.463	-124.6
3825.1	-123.6
3827.735	-121.6
3830.367	-127.6
3832.998	-124.6
3835.627	-125.6
3838.253	-121.6
3840.878	-124.6
3843.501	-120.6
3846.122	-125.6
3848.741	-128.6
3851.358	-124.6
3853.973	-129.6
3856.586	-122.6
3859.197	-128.6
3861.806	-123.6
3864.414	-124.6
3867.019	-120.6
3869.622	-121.6
3872.224	-110.6
3874.823	-104.6
3877.421	-88.6
3880.016	-68.6
3882.61	-40.6
3885.202	-34.6
3887.792	-58.6
3890.38	-86.6
3892.966	-110.6
3895.55	-120.6
3898.132	-123.6
3900.713	-124.6
3903.291	-128.6
3905.868	-127.6
3908.442	-122.6
3911.015	-126.6
3913.586	-128.6
3916.155	-131.6
3918.722	-130.6
3921.287	-128.6
3923.85	-125.6
3926.411	-130.6
3928.971	-123.6
3931.528	-128.6
3934.084	-123.6
3936.638	-126.6
3939.19	-129.6
3941.74	-125.6
3944.288	-125.6
3946.834	-128.6
3949.378	-124.6
3951.921	-128.6
3954.462	-131.6
3957	-123.6
3959.537	-119.6
3962.072	-136.6
3964.606	-126.6
3967.137	-125.6
3969.667	-127.6
3972.194	-131.6
3974.72	-128.6
3977.244	-124.6
3979.766	-128.6
3982.286	-128.6
3984.805	-128.6
3987.321	-125.6
3989.836	-119.6
3992.349	-124.6
3994.86	-123.6
3997.369	-134.6
3999.877	-125.6
4002.382	-124.6
4004.886	-131.6
4007.388	-124.6
4009.888	-123.6
4012.386	-128.6
4014.883	-124.6
4017.377	-126.6
4019.87	-124.6
4022.361	-130.6
4024.85	-128.6
4027.338	-123.6
4029.823	-120.6
4032.307	-124.6
4034.789	-125.6
4037.269	-124.6
4039.747	-120.6
4042.224	-125.6
4044.699	-125.6
4047.172	-123.6
4049.643	-121.6
4052.112	-123.6
4054.58	-124.6
4057.046	-127.6
4059.51	-127.6
4061.972	-124.6
4064.432	-126.6
4066.891	-126.6
4069.348	-125.6
4071.803	-128.6
4074.256	-126.6
4076.708	-122.6
4079.158	-126.6
4081.606	-121.6
4084.052	-127.6
4086.497	-124.6
4088.939	-119.6
4091.38	-122.6
4093.819	-123.6
4096.257	-132.6
4098.693	-130.6
4101.127	-130.6
4103.559	-126.6
4105.989	27.4
4108.418	15.4
4110.845	18.4
4113.27	9.4
4115.694	7.4
4118.115	5.4
4120.535	-126.6
4122.954	-129.6
4125.37	-131.6
4127.785	-127.6
4130.198	-128.6
4132.609	-122.6
4135.019	-132.6
4137.427	-131.6
4139.833	-133.6
4142.237	-130.6
