Data from 2018-2-8_conc=2_n=3_RamanShift_04.txt Node
Date: Mon Mar 12 14:03:28 IST 2018
User: aro
Spectrometer: QEPB0276
Trigger mode: 0
Integration Time (sec): 3.000000E1
Scans to average: 1
Electric dark correction enabled: true
Nonlinearity correction enabled: false
Boxcar width: 0
XAxis mode: Raman Shifts
Number of Pixels in Spectrum: 1044
>>>>>Begin Spectral Data<<<<<
160.701	7.2
166.742	37.2
172.777	143.2
178.805	437.2
184.826	1196.2
190.841	2602.2
196.849	4386.2
202.85	5708.2
208.845	6272.2
214.833	6320.2
220.815	6166.2
226.789	6157.2
232.758	6177.2
238.719	6177.2
244.674	6117.2
250.623	6023.2
256.565	5962.2
262.5	5846.2
268.429	5786.2
274.351	5713.2
280.267	5672.2
286.176	5666.2
292.079	5616.2
297.975	5585.2
303.865	5584.2
309.748	5557.2
315.625	5539.2
321.495	5526.2
327.359	5497.2
333.217	5529.2
339.068	5515.2
344.912	5522.2
350.751	5487.2
356.583	5519.2
362.408	5515.2
368.227	5498.2
374.04	5523.2
379.847	5559.2
385.647	5586.2
391.44	5587.2
397.228	5637.2
403.009	5668.2
408.784	5677.2
414.553	5672.2
420.315	5699.2
426.071	5717.2
431.821	5693.2
437.565	5732.2
443.302	5687.2
449.033	5663.2
454.758	5680.2
460.477	5619.2
466.189	5611.2
471.896	5548.2
477.596	5543.2
483.29	5512.2
488.978	5536.2
494.66	5512.2
500.335	5442.2
506.005	5302.2
511.668	5201.2
517.325	5036.2
522.977	4938.2
528.622	4867.2
534.261	4821.2
539.894	4754.2
545.521	4702.2
551.141	4716.2
556.756	4685.2
562.365	4642.2
567.968	4603.2
573.565	4594.2
579.155	4587.2
584.74	4584.2
590.319	4525.2
595.892	4535.2
601.459	4515.2
607.02	4519.2
612.575	4463.2
618.124	4421.2
623.667	4394.2
629.204	4325.2
634.735	4341.2
640.261	4297.2
645.781	4250.2
651.294	4295.2
656.802	4253.2
662.304	4241.2
667.8	4233.2
673.29	4218.2
678.775	4202.2
684.254	4200.2
689.726	4195.2
695.193	4174.2
700.655	4159.2
706.11	4112.2
711.56	4098.2
717.004	4082.2
722.442	4067.2
727.874	4022.2
733.301	4033.2
738.722	3991.2
744.137	3984.2
749.547	3984.2
754.951	3972.2
760.349	3988.2
765.741	4017.2
771.128	4012.2
776.509	4013.2
781.885	4043.2
787.254	4032.2
792.618	4051.2
797.977	4026.2
803.33	3974.2
808.677	3987.2
814.019	3941.2
819.355	3946.2
824.686	3898.2
830.011	3868.2
835.33	3843.2
840.644	3864.2
845.952	3848.2
851.255	3859.2
856.552	3841.2
861.844	3815.2
867.13	3803.2
872.41	3773.2
877.686	3776.2
882.955	3747.2
888.219	3698.2
893.478	3680.2
898.731	3614.2
903.979	3559.2
909.221	3533.2
914.458	3546.2
919.69	3519.2
924.916	3525.2
930.136	3520.2
935.351	3517.2
940.561	3545.2
945.766	3536.2
950.965	3499.2
956.158	3498.2
961.347	3457.2
966.529	3417.2
971.707	3359.2
976.879	3312.2
982.046	3256.2
987.208	3270.2
992.364	3287.2
997.515	3292.2
1002.66	3309.2
1007.801	3354.2
1012.936	3367.2
1018.066	3365.2
1023.19	3374.2
1028.309	3393.2
1033.423	3381.2
1038.532	3326.2
1043.636	3344.2
1048.734	3307.2
1053.827	3228.2
1058.915	3206.2
1063.998	3198.2
1069.075	3178.2
1074.147	3181.2
1079.214	3180.2
1084.276	3209.2
1089.333	3189.2
1094.385	3269.2
1099.431	3249.2
1104.472	3230.2
1109.509	3206.2
1114.54	3184.2
1119.565	3125.2
1124.586	3070.2
1129.602	3036.2
1134.613	3033.2
1139.618	2980.2
1144.619	2987.2
1149.614	3003.2
1154.604	3014.2
1159.589	3013.2
1164.57	3029.2
1169.545	3048.2
1174.515	3036.2
1179.48	2999.2
1184.44	2968.2
1189.395	2962.2
1194.345	2923.2
1199.29	2915.2
1204.23	2926.2
1209.165	2931.2
1214.095	2951.2
1219.021	2972.2
1223.941	2964.2
1228.856	2988.2
1233.766	3014.2
1238.672	2987.2
1243.572	2998.2
1248.467	2969.2
1253.358	2961.2
1258.244	2904.2
1263.124	2859.2
1268	2813.2
1272.871	2759.2
1277.737	2743.2
1282.599	2744.2
1287.455	2743.2
1292.306	2739.2
1297.153	2735.2
1301.995	2770.2
1306.832	2777.2
1311.664	2799.2
1316.491	2830.2
1321.314	2790.2
1326.132	2792.2
1330.945	2761.2
1335.753	2714.2
1340.556	2651.2
1345.354	2628.2
1350.148	2556.2
1354.937	2535.2
1359.722	2506.2
1364.501	2470.2
1369.276	2413.2
1374.046	2380.2
1378.811	2366.2
1383.572	2348.2
1388.327	2337.2
1393.079	2341.2
1397.825	2338.2
1402.567	2331.2
1407.304	2345.2
1412.036	2349.2
1416.764	2344.2
1421.487	2361.2
1426.205	2358.2
1430.919	2344.2
1435.628	2363.2
1440.333	2412.2
1445.032	2423.2
1449.727	2423.2
1454.418	2453.2
1459.104	2438.2
1463.785	2390.2
1468.462	2356.2
1473.134	2302.2
1477.802	2262.2
1482.465	2219.2
1487.123	2169.2
1491.777	2153.2
1496.426	2113.2
1501.071	2095.2
1505.711	2093.2
1510.347	2105.2
1514.978	2079.2
1519.604	2080.2
1524.226	2072.2
1528.844	2057.2
1533.457	2049.2
1538.065	2037.2
1542.669	2034.2
1547.269	2037.2
1551.864	2051.2
1556.454	2046.2
1561.041	2084.2
1565.622	2087.2
1570.199	2090.2
1574.772	2104.2
1579.34	2132.2
1583.904	2154.2
1588.464	2181.2
1593.019	2200.2
1597.569	2190.2
1602.115	2178.2
1606.657	2189.2
1611.195	2160.2
1615.728	2168.2
1620.256	2153.2
1624.78	2149.2
1629.3	2149.2
1633.816	2175.2
1638.327	2173.2
1642.834	2186.2
1647.336	2201.2
1651.834	2194.2
1656.328	2208.2
1660.817	2172.2
1665.302	2172.2
1669.783	2130.2
1674.259	2065.2
1678.732	2030.2
1683.199	1984.2
1687.663	1923.2
1692.122	1834.2
1696.577	1752.2
1701.028	1682.2
1705.474	1624.2
1709.917	1577.2
1714.355	1536.2
1718.788	1536.2
1723.218	1542.2
1727.643	1543.2
1732.064	1537.2
1736.481	1519.2
1740.893	1478.2
1745.301	1472.2
1749.705	1448.2
1754.105	1429.2
1758.501	1384.2
1762.893	1362.2
1767.28	1369.2
1771.663	1348.2
1776.042	1324.2
1780.417	1297.2
1784.787	1274.2
1789.154	1281.2
1793.516	1256.2
1797.874	1248.2
1802.228	1221.2
1806.578	1225.2
1810.924	1196.2
1815.266	1201.2
1819.603	1198.2
1823.937	1195.2
1828.266	1193.2
1832.591	1190.2
1836.913	1197.2
1841.23	1196.2
1845.543	1195.2
1849.852	1193.2
1854.156	1202.2
1858.457	1203.2
1862.754	1196.2
1867.047	1195.2
1871.335	1196.2
1875.62	1185.2
1879.9	1183.2
1884.177	1187.2
1888.449	1164.2
1892.718	1136.2
1896.982	1135.2
1901.243	1109.2
1905.499	1086.2
1909.752	1076.2
1914	1064.2
1918.245	1069.2
1922.485	1040.2
1926.722	1027.2
1930.954	1030.2
1935.183	1030.2
1939.408	1002.2
1943.628	1001.2
1947.845	1011.2
1952.058	1000.2
1956.267	980.2
1960.472	976.2
1964.673	974.2
1968.87	948.2
1973.063	953.2
1977.252	961.2
1981.438	963.2
1985.619	954.2
1989.797	961.2
1993.971	957.2
1998.14	965.2
2002.306	958.2
2006.469	958.2
2010.627	987.2
2014.781	972.2
2018.932	966.2
2023.078	974.2
2027.221	963.2
2031.36	952.2
2035.495	926.2
2039.627	916.2
2043.754	912.2
2047.878	909.2
2051.998	904.2
2056.114	891.2
2060.226	883.2
2064.334	876.2
2068.439	877.2
2072.54	880.2
2076.637	873.2
2080.73	875.2
2084.82	871.2
2088.906	856.2
2092.988	852.2
2097.066	847.2
2101.14	810.2
2105.211	812.2
2109.278	804.2
2113.342	802.2
2117.401	795.2
2121.457	778.2
2125.509	784.2
2129.558	783.2
2133.602	779.2
2137.643	791.2
2141.681	782.2
2145.714	781.2
2149.744	793.2
2153.77	788.2
2157.793	766.2
2161.812	770.2
2165.827	771.2
2169.838	762.2
2173.846	747.2
2177.851	725.2
2181.851	723.2
2185.848	732.2
2189.841	715.2
2193.831	713.2
2197.817	698.2
2201.799	697.2
2205.778	702.2
2209.753	688.2
2213.725	675.2
2217.693	687.2
2221.657	695.2
2225.618	688.2
2229.575	688.2
2233.529	678.2
2237.479	679.2
2241.425	670.2
2245.368	651.2
2249.307	645.2
2253.243	636.2
2257.175	617.2
2261.104	623.2
2265.029	616.2
2268.95	617.2
2272.868	595.2
2276.783	589.2
2280.694	579.2
2284.601	576.2
2288.505	583.2
2292.405	565.2
2296.302	566.2
2300.195	555.2
2304.085	550.2
2307.971	530.2
2311.854	528.2
2315.734	521.2
2319.609	510.2
2323.482	505.2
2327.351	512.2
2331.216	519.2
2335.078	526.2
2338.937	513.2
2342.792	510.2
2346.643	496.2
2350.492	488.2
2354.336	496.2
2358.178	505.2
2362.015	495.2
2365.85	501.2
2369.681	507.2
2373.508	511.2
2377.333	499.2
2381.153	497.2
2384.971	500.2
2388.785	505.2
2392.595	494.2
2396.402	483.2
2400.206	489.2
2404.007	493.2
2407.804	480.2
2411.597	476.2
2415.388	480.2
2419.174	469.2
2422.958	463.2
2426.738	466.2
2430.515	467.2
2434.289	467.2
2438.059	452.2
2441.825	460.2
2445.589	450.2
2449.349	432.2
2453.106	425.2
2456.859	441.2
2460.61	427.2
2464.356	418.2
2468.1	420.2
2471.84	414.2
2475.577	405.2
2479.311	398.2
2483.041	402.2
2486.768	399.2
2490.492	401.2
2494.213	387.2
2497.93	387.2
2501.644	386.2
2505.355	381.2
2509.062	382.2
2512.766	373.2
2516.467	356.2
2520.165	370.2
2523.859	369.2
2527.551	349.2
2531.239	345.2
2534.923	341.2
2538.605	345.2
2542.283	340.2
2545.958	335.2
2549.63	331.2
2553.299	317.2
2556.964	329.2
2560.626	321.2
2564.285	319.2
2567.941	312.2
2571.594	306.2
2575.243	307.2
2578.89	300.2
2582.533	293.2
2586.173	287.2
2589.809	285.2
2593.443	289.2
2597.073	279.2
2600.701	276.2
2604.325	280.2
2607.946	281.2
2611.564	278.2
2615.178	288.2
2618.79	277.2
2622.398	282.2
2626.004	278.2
2629.606	264.2
2633.205	275.2
2636.801	256.2
2640.394	264.2
2643.983	258.2
2647.57	257.2
2651.153	250.2
2654.734	247.2
2658.311	246.2
2661.885	241.2
2665.456	247.2
2669.025	239.2
2672.589	241.2
2676.151	240.2
2679.71	236.2
2683.266	236.2
2686.819	233.2
2690.368	225.2
2693.915	213.2
2697.458	217.2
2700.999	217.2
2704.536	199.2
2708.071	203.2
2711.602	200.2
2715.13	202.2
2718.656	195.2
2722.178	186.2
2725.697	188.2
2729.214	171.2
2732.727	184.2
2736.237	182.2
2739.744	176.2
2743.249	176.2
2746.75	177.2
2750.248	168.2
2753.743	159.2
2757.236	157.2
2760.725	162.2
2764.211	151.2
2767.695	151.2
2771.175	140.2
2774.652	144.2
2778.127	146.2
2781.598	149.2
2785.067	154.2
2788.532	149.2
2791.995	152.2
2795.455	149.2
2798.911	149.2
2802.365	160.2
2805.816	155.2
2809.264	154.2
2812.709	163.2
2816.151	163.2
2819.59	161.2
2823.026	154.2
2826.46	142.2
2829.89	153.2
2833.318	144.2
2836.742	155.2
2840.164	160.2
2843.583	156.2
2846.999	163.2
2850.412	151.2
2853.822	162.2
2857.229	155.2
2860.634	162.2
2864.035	177.2
2867.434	187.2
2870.83	187.2
2874.223	197.2
2877.613	192.2
2881	195.2
2884.385	207.2
2887.766	198.2
2891.145	203.2
2894.521	204.2
2897.894	210.2
2901.264	202.2
2904.631	208.2
2907.996	208.2
2911.358	215.2
2914.717	214.2
2918.073	215.2
2921.426	223.2
2924.777	235.2
2928.124	247.2
2931.469	240.2
2934.811	249.2
2938.15	253.2
2941.487	258.2
2944.821	263.2
2948.152	265.2
2951.48	267.2
2954.805	262.2
2958.128	250.2
2961.447	243.2
2964.765	254.2
2968.079	251.2
2971.39	252.2
2974.699	259.2
2978.005	246.2
2981.308	257.2
2984.609	256.2
2987.907	258.2
2991.202	261.2
2994.494	256.2
2997.784	265.2
3001.07	271.2
3004.355	281.2
3007.636	279.2
3010.915	277.2
3014.191	271.2
3017.464	287.2
3020.734	283.2
3024.002	294.2
3027.267	304.2
3030.53	309.2
3033.789	310.2
3037.046	317.2
3040.301	326.2
3043.552	350.2
3046.801	336.2
3050.048	356.2
3053.291	368.2
3056.532	388.2
3059.771	396.2
3063.006	409.2
3066.239	422.2
3069.469	430.2
3072.697	443.2
3075.922	464.2
3079.144	464.2
3082.364	479.2
3085.581	489.2
3088.795	504.2
3092.007	498.2
3095.216	516.2
3098.423	524.2
3101.627	541.2
3104.828	543.2
3108.026	564.2
3111.222	570.2
3114.416	591.2
3117.607	595.2
3120.795	604.2
3123.98	625.2
3127.163	638.2
3130.344	653.2
3133.521	669.2
3136.696	683.2
3139.869	691.2
3143.039	700.2
3146.206	696.2
3149.371	730.2
3152.533	734.2
3155.693	744.2
3158.85	756.2
3162.005	754.2
3165.157	758.2
3168.306	749.2
3171.453	744.2
3174.597	753.2
3177.739	763.2
3180.878	778.2
3184.014	788.2
3187.149	778.2
3190.28	775.2
3193.409	784.2
3196.536	789.2
3199.659	784.2
3202.781	797.2
3205.9	808.2
3209.016	800.2
3212.13	790.2
3215.241	785.2
3218.35	798.2
3221.456	773.2
3224.56	766.2
3227.661	751.2
3230.76	750.2
3233.856	740.2
3236.95	722.2
3240.041	721.2
3243.13	704.2
3246.216	695.2
3249.3	684.2
3252.382	686.2
3255.46	673.2
3258.537	658.2
3261.611	666.2
3264.682	641.2
3267.751	656.2
3270.818	647.2
3273.882	641.2
3276.943	641.2
3280.002	629.2
3283.059	634.2
3286.113	632.2
3289.165	615.2
3292.214	618.2
3295.261	611.2
3298.306	600.2
3301.348	593.2
3304.387	592.2
3307.425	586.2
3310.459	571.2
3313.492	564.2
3316.521	570.2
3319.549	553.2
3322.574	541.2
3325.597	551.2
3328.617	545.2
3331.635	539.2
3334.65	545.2
3337.663	529.2
3340.674	546.2
3343.682	540.2
3346.688	533.2
3349.691	546.2
3352.692	537.2
3355.691	541.2
3358.687	526.2
3361.681	528.2
3364.673	518.2
3367.662	505.2
3370.649	500.2
3373.633	491.2
3376.615	489.2
3379.595	469.2
3382.572	464.2
3385.547	456.2
3388.52	459.2
3391.49	443.2
3394.458	436.2
3397.424	438.2
3400.387	423.2
3403.348	422.2
3406.307	414.2
3409.263	413.2
3412.217	401.2
3415.168	398.2
3418.118	396.2
3421.065	395.2
3424.009	382.2
3426.951	374.2
3429.891	363.2
3432.829	354.2
3435.764	346.2
3438.697	338.2
3441.628	330.2
3444.557	331.2
3447.483	299.2
3450.407	295.2
3453.328	280.2
3456.247	271.2
3459.164	258.2
3462.079	251.2
3464.991	244.2
3467.902	237.2
3470.809	233.2
3473.715	209.2
3476.618	198.2
3479.519	201.2
3482.418	186.2
3485.315	170.2
3488.209	175.2
3491.101	171.2
3493.99	158.2
3496.878	155.2
3499.763	140.2
3502.646	135.2
3505.527	124.2
3508.405	125.2
3511.281	109.2
3514.155	107.2
3517.027	95.2
3519.897	84.2
3522.764	71.2
3525.629	72.2
3528.492	53.2
3531.352	55.2
3534.211	43.2
3537.067	39.2
3539.921	37.2
3542.773	24.2
3545.622	17.2
3548.469	16.2
3551.315	20.2
3554.157	5.2
3556.998	-13.8
3559.837	-2.8
3562.673	-11.8
3565.507	-19.8
3568.339	-23.8
3571.169	-34.8
3573.996	-30.8
3576.822	-27.8
3579.645	-25.8
3582.466	-29.8
3585.285	-36.8
3588.101	-36.8
3590.916	-52.8
3593.728	-56.8
3596.538	-54.8
3599.346	-62.8
3602.152	-62.8
3604.956	-63.8
3607.757	-62.8
3610.556	-72.8
3613.354	-70.8
3616.149	-82.8
3618.942	-81.8
3621.732	-81.8
3624.521	-82.8
3627.307	-79.8
3630.092	-79.8
3632.874	-80.8
3635.654	-90.8
3638.432	-87.8
3641.208	-94.8
3643.982	-98.8
3646.753	-100.8
3649.523	-101.8
3652.29	-95.8
3655.055	-102.8
3657.818	-103.8
3660.579	-104.8
3663.338	-105.8
3666.095	-110.8
3668.849	-112.8
3671.602	-109.8
3674.352	-115.8
3677.101	-116.8
3679.847	-116.8
3682.591	-120.8
3685.333	-116.8
3688.073	-116.8
3690.811	-119.8
3693.547	-129.8
3696.281	-120.8
3699.013	-125.8
3701.742	-127.8
3704.47	-125.8
3707.195	-128.8
3709.919	-129.8
3712.64	-129.8
3715.359	-130.8
3718.076	-131.8
3720.792	-130.8
3723.505	-136.8
3726.216	-131.8
3728.925	-138.8
3731.632	-136.8
3734.336	-142.8
3737.039	-130.8
3739.74	-136.8
3742.439	-145.8
3745.136	-136.8
3747.83	-144.8
3750.523	-141.8
3753.213	-139.8
3755.902	-137.8
3758.589	-145.8
3761.273	-135.8
3763.956	-136.8
3766.636	-137.8
3769.315	-133.8
3771.991	-134.8
3774.665	-141.8
3777.338	-134.8
3780.008	-140.8
3782.677	-147.8
3785.343	-143.8
3788.007	-143.8
3790.67	-144.8
3793.33	-138.8
3795.989	-145.8
3798.645	-141.8
3801.299	-141.8
3803.952	-143.8
3806.602	-141.8
3809.251	-150.8
3811.897	-152.8
3814.542	-146.8
3817.184	-144.8
3819.825	-144.8
3822.463	-143.8
3825.1	-145.8
3827.735	-145.8
3830.367	-145.8
3832.998	-146.8
3835.627	-149.8
3838.253	-146.8
3840.878	-143.8
3843.501	-147.8
3846.122	-149.8
3848.741	-154.8
3851.358	-143.8
3853.973	-151.8
3856.586	-142.8
3859.197	-155.8
3861.806	-146.8
3864.414	-148.8
3867.019	-144.8
3869.622	-145.8
3872.224	-138.8
3874.823	-131.8
3877.421	-123.8
3880.016	-99.8
3882.61	-81.8
3885.202	-79.8
3887.792	-98.8
3890.38	-118.8
3892.966	-140.8
3895.55	-136.8
3898.132	-144.8
3900.713	-145.8
3903.291	-151.8
3905.868	-154.8
3908.442	-144.8
3911.015	-149.8
3913.586	-152.8
3916.155	-153.8
3918.722	-151.8
3921.287	-150.8
3923.85	-150.8
3926.411	-150.8
3928.971	-150.8
3931.528	-150.8
3934.084	-152.8
3936.638	-143.8
3939.19	-152.8
3941.74	-147.8
3944.288	-150.8
3946.834	-147.8
3949.378	-148.8
3951.921	-151.8
3954.462	-157.8
3957	-150.8
3959.537	-142.8
3962.072	-149.8
3964.606	-142.8
3967.137	-145.8
3969.667	-150.8
3972.194	-154.8
3974.72	-153.8
3977.244	-149.8
3979.766	-148.8
3982.286	-148.8
3984.805	-144.8
3987.321	-144.8
3989.836	-137.8
3992.349	-152.8
3994.86	-153.8
3997.369	-150.8
3999.877	-148.8
4002.382	-143.8
4004.886	-147.8
4007.388	-145.8
4009.888	-140.8
4012.386	-148.8
4014.883	-153.8
4017.377	-152.8
4019.87	-144.8
4022.361	-151.8
4024.85	-149.8
4027.338	-145.8
4029.823	-144.8
4032.307	-140.8
4034.789	-156.8
4037.269	-146.8
4039.747	-146.8
4042.224	-149.8
4044.699	-139.8
4047.172	-144.8
4049.643	-141.8
4052.112	-147.8
4054.58	-141.8
4057.046	-150.8
4059.51	-149.8
4061.972	-152.8
4064.432	-141.8
4066.891	-147.8
4069.348	-138.8
4071.803	-147.8
4074.256	-150.8
4076.708	-145.8
4079.158	-135.8
4081.606	-93.8
4084.052	-147.8
4086.497	-144.8
4088.939	-140.8
4091.38	-145.8
4093.819	-148.8
4096.257	-156.8
4098.693	-150.8
4101.127	-157.8
4103.559	-150.8
4105.989	-23.8
4108.418	-14.8
4110.845	-9.8
4113.27	-13.8
4115.694	-18.8
4118.115	-15.8
4120.535	-151.8
4122.954	-147.8
4125.37	-147.8
4127.785	-147.8
4130.198	-144.8
4132.609	-147.8
4135.019	-151.8
4137.427	-156.8
4139.833	-155.8
4142.237	-160.8
