Data from 2018-2-8_conc=0_n=8_RamanShift_05.txt Node
Date: Mon Mar 12 13:45:59 IST 2018
User: aro
Spectrometer: QEPB0276
Trigger mode: 0
Integration Time (sec): 3.000000E1
Scans to average: 1
Electric dark correction enabled: true
Nonlinearity correction enabled: false
Boxcar width: 0
XAxis mode: Raman Shifts
Number of Pixels in Spectrum: 1044
>>>>>Begin Spectral Data<<<<<
160.701	13.4
166.742	42.4
172.777	128.4
178.805	403.4
184.826	1094.4
190.841	2388.4
196.849	3988.4
202.85	5282.4
208.845	5801.4
214.833	5790.4
220.815	5730.4
226.789	5691.4
232.758	5698.4
238.719	5721.4
244.674	5675.4
250.623	5603.4
256.565	5556.4
262.5	5443.4
268.429	5419.4
274.351	5324.4
280.267	5307.4
286.176	5260.4
292.079	5248.4
297.975	5213.4
303.865	5219.4
309.748	5204.4
315.625	5178.4
321.495	5154.4
327.359	5157.4
333.217	5143.4
339.068	5163.4
344.912	5189.4
350.751	5160.4
356.583	5163.4
362.408	5159.4
368.227	5202.4
374.04	5171.4
379.847	5213.4
385.647	5226.4
391.44	5272.4
397.228	5279.4
403.009	5288.4
408.784	5322.4
414.553	5338.4
420.315	5348.4
426.071	5354.4
431.821	5340.4
437.565	5352.4
443.302	5341.4
449.033	5323.4
454.758	5289.4
460.477	5287.4
466.189	5259.4
471.896	5204.4
477.596	5187.4
483.29	5162.4
488.978	5190.4
494.66	5146.4
500.335	5085.4
506.005	4983.4
511.668	4833.4
517.325	4706.4
522.977	4595.4
528.622	4531.4
534.261	4491.4
539.894	4454.4
545.521	4390.4
551.141	4380.4
556.756	4357.4
562.365	4321.4
567.968	4263.4
573.565	4279.4
579.155	4254.4
584.74	4239.4
590.319	4212.4
595.892	4181.4
601.459	4181.4
607.02	4173.4
612.575	4158.4
618.124	4099.4
623.667	4075.4
629.204	4056.4
634.735	4013.4
640.261	3983.4
645.781	3966.4
651.294	3979.4
656.802	3956.4
662.304	3941.4
667.8	3931.4
673.29	3924.4
678.775	3937.4
684.254	3889.4
689.726	3883.4
695.193	3876.4
700.655	3854.4
706.11	3833.4
711.56	3793.4
717.004	3798.4
722.442	3767.4
727.874	3738.4
733.301	3758.4
738.722	3737.4
744.137	3721.4
749.547	3708.4
754.951	3715.4
760.349	3707.4
765.741	3703.4
771.128	3722.4
776.509	3763.4
781.885	3761.4
787.254	3777.4
792.618	3744.4
797.977	3723.4
803.33	3702.4
808.677	3693.4
814.019	3682.4
819.355	3635.4
824.686	3623.4
830.011	3600.4
835.33	3598.4
840.644	3599.4
845.952	3594.4
851.255	3558.4
856.552	3591.4
861.844	3551.4
867.13	3565.4
872.41	3530.4
877.686	3514.4
882.955	3519.4
888.219	3457.4
893.478	3424.4
898.731	3374.4
903.979	3310.4
909.221	3302.4
914.458	3287.4
919.69	3277.4
924.916	3269.4
930.136	3270.4
935.351	3293.4
940.561	3291.4
945.766	3271.4
950.965	3285.4
956.158	3235.4
961.347	3228.4
966.529	3179.4
971.707	3138.4
976.879	3104.4
982.046	3068.4
987.208	3048.4
992.364	3043.4
997.515	3068.4
1002.66	3072.4
1007.801	3109.4
1012.936	3133.4
1018.066	3135.4
1023.19	3137.4
1028.309	3151.4
1033.423	3130.4
1038.532	3134.4
1043.636	3100.4
1048.734	3079.4
1053.827	3039.4
1058.915	3008.4
1063.998	2978.4
1069.075	2939.4
1074.147	2981.4
1079.214	2995.4
1084.276	2974.4
1089.333	3003.4
1094.385	3031.4
1099.431	3005.4
1104.472	3018.4
1109.509	3011.4
1114.54	2949.4
1119.565	2915.4
1124.586	2882.4
1129.602	2840.4
1134.613	2819.4
1139.618	2790.4
1144.619	2792.4
1149.614	2788.4
1154.604	2795.4
1159.589	2815.4
1164.57	2808.4
1169.545	2837.4
1174.515	2807.4
1179.48	2819.4
1184.44	2777.4
1189.395	2745.4
1194.345	2746.4
1199.29	2720.4
1204.23	2725.4
1209.165	2733.4
1214.095	2747.4
1219.021	2756.4
1223.941	2783.4
1228.856	2788.4
1233.766	2783.4
1238.672	2795.4
1243.572	2799.4
1248.467	2777.4
1253.358	2735.4
1258.244	2694.4
1263.124	2663.4
1268	2623.4
1272.871	2580.4
1277.737	2561.4
1282.599	2561.4
1287.455	2547.4
1292.306	2575.4
1297.153	2590.4
1301.995	2573.4
1306.832	2591.4
1311.664	2617.4
1316.491	2620.4
1321.314	2625.4
1326.132	2596.4
1330.945	2559.4
1335.753	2520.4
1340.556	2474.4
1345.354	2451.4
1350.148	2388.4
1354.937	2353.4
1359.722	2314.4
1364.501	2296.4
1369.276	2246.4
1374.046	2211.4
1378.811	2180.4
1383.572	2171.4
1388.327	2170.4
1393.079	2177.4
1397.825	2179.4
1402.567	2177.4
1407.304	2187.4
1412.036	2184.4
1416.764	2195.4
1421.487	2192.4
1426.205	2211.4
1430.919	2210.4
1435.628	2212.4
1440.333	2224.4
1445.032	2245.4
1449.727	2260.4
1454.418	2286.4
1459.104	2297.4
1463.785	2255.4
1468.462	2223.4
1473.134	2162.4
1477.802	2101.4
1482.465	2074.4
1487.123	2018.4
1491.777	2017.4
1496.426	1965.4
1501.071	1946.4
1505.711	1938.4
1510.347	1936.4
1514.978	1925.4
1519.604	1922.4
1524.226	1921.4
1528.844	1899.4
1533.457	1899.4
1538.065	1895.4
1542.669	1896.4
1547.269	1882.4
1551.864	1883.4
1556.454	1876.4
1561.041	1908.4
1565.622	1943.4
1570.199	1923.4
1574.772	1965.4
1579.34	1980.4
1583.904	2008.4
1588.464	2027.4
1593.019	2028.4
1597.569	2029.4
1602.115	2017.4
1606.657	2035.4
1611.195	2013.4
1615.728	1989.4
1620.256	1995.4
1624.78	1980.4
1629.3	2000.4
1633.816	2024.4
1638.327	2016.4
1642.834	2025.4
1647.336	2041.4
1651.834	2020.4
1656.328	2040.4
1660.817	2025.4
1665.302	2005.4
1669.783	1949.4
1674.259	1921.4
1678.732	1871.4
1683.199	1811.4
1687.663	1767.4
1692.122	1704.4
1696.577	1612.4
1701.028	1545.4
1705.474	1504.4
1709.917	1452.4
1714.355	1419.4
1718.788	1428.4
1723.218	1434.4
1727.643	1425.4
1732.064	1417.4
1736.481	1414.4
1740.893	1381.4
1745.301	1360.4
1749.705	1310.4
1754.105	1314.4
1758.501	1272.4
1762.893	1258.4
1767.28	1254.4
1771.663	1232.4
1776.042	1222.4
1780.417	1192.4
1784.787	1176.4
1789.154	1181.4
1793.516	1185.4
1797.874	1149.4
1802.228	1131.4
1806.578	1120.4
1810.924	1102.4
1815.266	1084.4
1819.603	1103.4
1823.937	1084.4
1828.266	1096.4
1832.591	1120.4
1836.913	1104.4
1841.23	1101.4
1845.543	1107.4
1849.852	1102.4
1854.156	1088.4
1858.457	1104.4
1862.754	1100.4
1867.047	1107.4
1871.335	1105.4
1875.62	1102.4
1879.9	1098.4
1884.177	1085.4
1888.449	1060.4
1892.718	1059.4
1896.982	1035.4
1901.243	1026.4
1905.499	1019.4
1909.752	1002.4
1914	975.4
1918.245	989.4
1922.485	956.4
1926.722	959.4
1930.954	936.4
1935.183	934.4
1939.408	935.4
1943.628	948.4
1947.845	926.4
1952.058	912.4
1956.267	913.4
1960.472	901.4
1964.673	898.4
1968.87	891.4
1973.063	890.4
1977.252	867.4
1981.438	891.4
1985.619	881.4
1989.797	882.4
1993.971	885.4
1998.14	893.4
2002.306	879.4
2006.469	907.4
2010.627	897.4
2014.781	905.4
2018.932	882.4
2023.078	889.4
2027.221	879.4
2031.36	873.4
2035.495	870.4
2039.627	840.4
2043.754	829.4
2047.878	845.4
2051.998	834.4
2056.114	829.4
2060.226	830.4
2064.334	813.4
2068.439	801.4
2072.54	814.4
2076.637	811.4
2080.73	797.4
2084.82	802.4
2088.906	793.4
2092.988	782.4
2097.066	780.4
2101.14	761.4
2105.211	750.4
2109.278	736.4
2113.342	731.4
2117.401	729.4
2121.457	734.4
2125.509	719.4
2129.558	725.4
2133.602	730.4
2137.643	725.4
2141.681	715.4
2145.714	718.4
2149.744	721.4
2153.77	735.4
2157.793	706.4
2161.812	710.4
2165.827	700.4
2169.838	692.4
2173.846	684.4
2177.851	668.4
2181.851	661.4
2185.848	659.4
2189.841	671.4
2193.831	658.4
2197.817	638.4
2201.799	647.4
2205.778	639.4
2209.753	634.4
2213.725	653.4
2217.693	641.4
2221.657	638.4
2225.618	637.4
2229.575	650.4
2233.529	630.4
2237.479	621.4
2241.425	618.4
2245.368	601.4
2249.307	602.4
2253.243	587.4
2257.175	584.4
2261.104	577.4
2265.029	573.4
2268.95	573.4
2272.868	554.4
2276.783	550.4
2280.694	553.4
2284.601	542.4
2288.505	529.4
2292.405	526.4
2296.302	521.4
2300.195	511.4
2304.085	508.4
2307.971	496.4
2311.854	494.4
2315.734	478.4
2319.609	482.4
2323.482	489.4
2327.351	475.4
2331.216	489.4
2335.078	493.4
2338.937	472.4
2342.792	454.4
2346.643	464.4
2350.492	464.4
2354.336	464.4
2358.178	459.4
2362.015	465.4
2365.85	476.4
2369.681	472.4
2373.508	475.4
2377.333	460.4
2381.153	469.4
2384.971	481.4
2388.785	461.4
2392.595	462.4
2396.402	449.4
2400.206	452.4
2404.007	458.4
2407.804	442.4
2411.597	450.4
2415.388	446.4
2419.174	445.4
2422.958	436.4
2426.738	456.4
2430.515	429.4
2434.289	428.4
2438.059	426.4
2441.825	429.4
2445.589	432.4
2449.349	403.4
2453.106	419.4
2456.859	418.4
2460.61	416.4
2464.356	386.4
2468.1	384.4
2471.84	381.4
2475.577	387.4
2479.311	374.4
2483.041	381.4
2486.768	386.4
2490.492	374.4
2494.213	369.4
2497.93	374.4
2501.644	367.4
2505.355	356.4
2509.062	363.4
2512.766	358.4
2516.467	343.4
2520.165	344.4
2523.859	348.4
2527.551	340.4
2531.239	315.4
2534.923	331.4
2538.605	329.4
2542.283	319.4
2545.958	319.4
2549.63	316.4
2553.299	305.4
2556.964	311.4
2560.626	307.4
2564.285	294.4
2567.941	295.4
2571.594	291.4
2575.243	293.4
2578.89	286.4
2582.533	280.4
2586.173	281.4
2589.809	270.4
2593.443	277.4
2597.073	277.4
2600.701	264.4
2604.325	260.4
2607.946	267.4
2611.564	256.4
2615.178	268.4
2618.79	266.4
2622.398	257.4
2626.004	264.4
2629.606	261.4
2633.205	248.4
2636.801	251.4
2640.394	250.4
2643.983	243.4
2647.57	247.4
2651.153	234.4
2654.734	242.4
2658.311	231.4
2661.885	234.4
2665.456	227.4
2669.025	226.4
2672.589	228.4
2676.151	229.4
2679.71	218.4
2683.266	213.4
2686.819	218.4
2690.368	214.4
2693.915	206.4
2697.458	200.4
2700.999	203.4
2704.536	202.4
2708.071	189.4
2711.602	187.4
2715.13	190.4
2718.656	186.4
2722.178	188.4
2725.697	181.4
2729.214	176.4
2732.727	183.4
2736.237	178.4
2739.744	161.4
2743.249	172.4
2746.75	170.4
2750.248	163.4
2753.743	157.4
2757.236	143.4
2760.725	145.4
2764.211	148.4
2767.695	138.4
2771.175	134.4
2774.652	141.4
2778.127	133.4
2781.598	129.4
2785.067	139.4
2788.532	140.4
2791.995	147.4
2795.455	145.4
2798.911	147.4
2802.365	149.4
2805.816	152.4
2809.264	145.4
2812.709	147.4
2816.151	149.4
2819.59	145.4
2823.026	147.4
2826.46	138.4
2829.89	144.4
2833.318	144.4
2836.742	142.4
2840.164	142.4
2843.583	150.4
2846.999	150.4
2850.412	148.4
2853.822	151.4
2857.229	163.4
2860.634	164.4
2864.035	159.4
2867.434	172.4
2870.83	167.4
2874.223	183.4
2877.613	190.4
2881	200.4
2884.385	197.4
2887.766	186.4
2891.145	189.4
2894.521	197.4
2897.894	199.4
2901.264	200.4
2904.631	199.4
2907.996	205.4
2911.358	195.4
2914.717	201.4
2918.073	213.4
2921.426	218.4
2924.777	224.4
2928.124	229.4
2931.469	225.4
2934.811	240.4
2938.15	245.4
2941.487	245.4
2944.821	248.4
2948.152	240.4
2951.48	236.4
2954.805	248.4
2958.128	249.4
2961.447	228.4
2964.765	226.4
2968.079	231.4
2971.39	222.4
2974.699	234.4
2978.005	225.4
2981.308	240.4
2984.609	239.4
2987.907	240.4
2991.202	251.4
2994.494	235.4
2997.784	238.4
3001.07	242.4
3004.355	255.4
3007.636	253.4
3010.915	250.4
3014.191	257.4
3017.464	264.4
3020.734	258.4
3024.002	270.4
3027.267	264.4
3030.53	271.4
3033.789	280.4
3037.046	292.4
3040.301	293.4
3043.552	308.4
3046.801	309.4
3050.048	323.4
3053.291	322.4
3056.532	347.4
3059.771	351.4
3063.006	365.4
3066.239	385.4
3069.469	399.4
3072.697	391.4
3075.922	406.4
3079.144	423.4
3082.364	438.4
3085.581	441.4
3088.795	441.4
3092.007	447.4
3095.216	462.4
3098.423	481.4
3101.627	480.4
3104.828	491.4
3108.026	501.4
3111.222	517.4
3114.416	530.4
3117.607	542.4
3120.795	550.4
3123.98	551.4
3127.163	567.4
3130.344	592.4
3133.521	602.4
3136.696	608.4
3139.869	618.4
3143.039	634.4
3146.206	643.4
3149.371	652.4
3152.533	651.4
3155.693	662.4
3158.85	671.4
3162.005	677.4
3165.157	675.4
3168.306	679.4
3171.453	683.4
3174.597	682.4
3177.739	678.4
3180.878	690.4
3184.014	690.4
3187.149	693.4
3190.28	704.4
3193.409	701.4
3196.536	700.4
3199.659	705.4
3202.781	701.4
3205.9	717.4
3209.016	708.4
3212.13	709.4
3215.241	699.4
3218.35	711.4
3221.456	686.4
3224.56	686.4
3227.661	665.4
3230.76	664.4
3233.856	658.4
3236.95	643.4
3240.041	638.4
3243.13	630.4
3246.216	627.4
3249.3	596.4
3252.382	603.4
3255.46	591.4
3258.537	599.4
3261.611	577.4
3264.682	578.4
3267.751	591.4
3270.818	565.4
3273.882	569.4
3276.943	559.4
3280.002	553.4
3283.059	553.4
3286.113	556.4
3289.165	550.4
3292.214	545.4
3295.261	538.4
3298.306	526.4
3301.348	522.4
3304.387	507.4
3307.425	518.4
3310.459	514.4
3313.492	506.4
3316.521	495.4
3319.549	495.4
3322.574	489.4
3325.597	483.4
3328.617	491.4
3331.635	481.4
3334.65	485.4
3337.663	464.4
3340.674	478.4
3343.682	483.4
3346.688	480.4
3349.691	475.4
3352.692	468.4
3355.691	466.4
3358.687	452.4
3361.681	465.4
3364.673	460.4
3367.662	455.4
3370.649	448.4
3373.633	435.4
3376.615	428.4
3379.595	421.4
3382.572	420.4
3385.547	415.4
3388.52	401.4
3391.49	395.4
3394.458	397.4
3397.424	384.4
3400.387	374.4
3403.348	376.4
3406.307	359.4
3409.263	362.4
3412.217	353.4
3415.168	358.4
3418.118	351.4
3421.065	346.4
3424.009	333.4
3426.951	333.4
3429.891	331.4
3432.829	310.4
3435.764	305.4
3438.697	287.4
3441.628	294.4
3444.557	288.4
3447.483	275.4
3450.407	263.4
3453.328	251.4
3456.247	241.4
3459.164	233.4
3462.079	225.4
3464.991	216.4
3467.902	201.4
3470.809	204.4
3473.715	185.4
3476.618	177.4
3479.519	174.4
3482.418	166.4
3485.315	151.4
3488.209	150.4
3491.101	144.4
3493.99	147.4
3496.878	131.4
3499.763	124.4
3502.646	110.4
3505.527	104.4
3508.405	108.4
3511.281	88.4
3514.155	93.4
3517.027	75.4
3519.897	65.4
3522.764	67.4
3525.629	59.4
3528.492	58.4
3531.352	43.4
3534.211	36.4
3537.067	32.4
3539.921	28.4
3542.773	21.4
3545.622	14.4
3548.469	8.4
3551.315	8.4
3554.157	-8.6
3556.998	-15.6
3559.837	-10.6
3562.673	-12.6
3565.507	-15.6
3568.339	-19.6
3571.169	-29.6
3573.996	-25.6
3576.822	-26.6
3579.645	-29.6
3582.466	-32.6
3585.285	-44.6
3588.101	-42.6
3590.916	-46.6
3593.728	-55.6
3596.538	-54.6
3599.346	-58.6
3602.152	-58.6
3604.956	-54.6
3607.757	-63.6
3610.556	-68.6
3613.354	-66.6
3616.149	-71.6
3618.942	-78.6
3621.732	-77.6
3624.521	-73.6
3627.307	-75.6
3630.092	-80.6
3632.874	-85.6
3635.654	-83.6
3638.432	-86.6
3641.208	-91.6
3643.982	-88.6
3646.753	-92.6
3649.523	-97.6
3652.29	-93.6
3655.055	-102.6
3657.818	-97.6
3660.579	-97.6
3663.338	-95.6
3666.095	-101.6
3668.849	-105.6
3671.602	-109.6
3674.352	-111.6
3677.101	-112.6
3679.847	-113.6
3682.591	-111.6
3685.333	-110.6
3688.073	-110.6
3690.811	-114.6
3693.547	-122.6
3696.281	-116.6
3699.013	-120.6
3701.742	-124.6
3704.47	-120.6
3707.195	-118.6
3709.919	-124.6
3712.64	-122.6
3715.359	-125.6
3718.076	-123.6
3720.792	-130.6
3723.505	-134.6
3726.216	-121.6
3728.925	-127.6
3731.632	-122.6
3734.336	-132.6
3737.039	-125.6
3739.74	-131.6
3742.439	-137.6
3745.136	-124.6
3747.83	-130.6
3750.523	-129.6
3753.213	-131.6
3755.902	-127.6
3758.589	-135.6
3761.273	-129.6
3763.956	-128.6
3766.636	-134.6
3769.315	-125.6
3771.991	-126.6
3774.665	-126.6
3777.338	-121.6
3780.008	-130.6
3782.677	-129.6
3785.343	-133.6
3788.007	-138.6
3790.67	-135.6
3793.33	-134.6
3795.989	-128.6
3798.645	-126.6
3801.299	-132.6
3803.952	-139.6
3806.602	-133.6
3809.251	-139.6
3811.897	-145.6
3814.542	-137.6
3817.184	-129.6
3819.825	-130.6
3822.463	-134.6
3825.1	-136.6
3827.735	-136.6
3830.367	-137.6
3832.998	-141.6
3835.627	-134.6
3838.253	-132.6
3840.878	-132.6
3843.501	-128.6
3846.122	-135.6
3848.741	-142.6
3851.358	-132.6
3853.973	-145.6
3856.586	-137.6
3859.197	-138.6
3861.806	-133.6
3864.414	-137.6
3867.019	-133.6
3869.622	-139.6
3872.224	-123.6
3874.823	-119.6
3877.421	-112.6
3880.016	-88.6
3882.61	-69.6
3885.202	-71.6
3887.792	-82.6
3890.38	-108.6
3892.966	-130.6
3895.55	-129.6
3898.132	-137.6
3900.713	-130.6
3903.291	-138.6
3905.868	-139.6
3908.442	-135.6
3911.015	-142.6
3913.586	-140.6
3916.155	-141.6
3918.722	-141.6
3921.287	-134.6
3923.85	-136.6
3926.411	-139.6
3928.971	-134.6
3931.528	-140.6
3934.084	-139.6
3936.638	-136.6
3939.19	-137.6
3941.74	-142.6
3944.288	-140.6
3946.834	-136.6
3949.378	-136.6
3951.921	-135.6
3954.462	-147.6
3957	-138.6
3959.537	-135.6
3962.072	-138.6
3964.606	-132.6
3967.137	-136.6
3969.667	-135.6
3972.194	-144.6
3974.72	-136.6
3977.244	-135.6
3979.766	-137.6
3982.286	-136.6
3984.805	-134.6
3987.321	-135.6
3989.836	-129.6
3992.349	-140.6
3994.86	-136.6
3997.369	-137.6
3999.877	-135.6
4002.382	-133.6
4004.886	-136.6
4007.388	-133.6
4009.888	-135.6
4012.386	-138.6
4014.883	-136.6
4017.377	-135.6
4019.87	-135.6
4022.361	-135.6
4024.85	-135.6
4027.338	-136.6
4029.823	-137.6
4032.307	-140.6
4034.789	-141.6
4037.269	-132.6
4039.747	-133.6
4042.224	-133.6
4044.699	-135.6
4047.172	-134.6
4049.643	-135.6
4052.112	-145.6
4054.58	-141.6
4057.046	-135.6
4059.51	-139.6
4061.972	-134.6
4064.432	-136.6
4066.891	-138.6
4069.348	-139.6
4071.803	-142.6
4074.256	-134.6
4076.708	-135.6
4079.158	-137.6
4081.606	-133.6
4084.052	-136.6
4086.497	-132.6
4088.939	-126.6
4091.38	-134.6
4093.819	-136.6
4096.257	-142.6
4098.693	-140.6
4101.127	-140.6
4103.559	-145.6
4105.989	-7.6
4108.418	-9.6
4110.845	-6.6
4113.27	-13.6
4115.694	-12.6
4118.115	-11.6
4120.535	-136.6
4122.954	-144.6
4125.37	-136.6
4127.785	-137.6
4130.198	-137.6
4132.609	-134.6
4135.019	-145.6
4137.427	-147.6
4139.833	-146.6
4142.237	-147.6
