Data from 2018-2-8_conc=6_n=1_RamanShift_02.txt Node
Date: Mon Mar 12 16:23:58 IST 2018
User: aro
Spectrometer: QEPB0276
Trigger mode: 0
Integration Time (sec): 3.000000E1
Scans to average: 1
Electric dark correction enabled: true
Nonlinearity correction enabled: false
Boxcar width: 0
XAxis mode: Raman Shifts
Number of Pixels in Spectrum: 1044
>>>>>Begin Spectral Data<<<<<
160.701	20.9
166.742	49.9
172.777	110.9
178.805	352.9
184.826	935.9
190.841	1985.9
196.849	3255.9
202.85	4308.9
208.845	4694.9
214.833	4737.9
220.815	4648.9
226.789	4590.9
232.758	4638.9
238.719	4643.9
244.674	4613.9
250.623	4581.9
256.565	4479.9
262.5	4450.9
268.429	4404.9
274.351	4367.9
280.267	4356.9
286.176	4323.9
292.079	4329.9
297.975	4316.9
303.865	4311.9
309.748	4265.9
315.625	4281.9
321.495	4276.9
327.359	4269.9
333.217	4274.9
339.068	4278.9
344.912	4287.9
350.751	4280.9
356.583	4330.9
362.408	4321.9
368.227	4320.9
374.04	4346.9
379.847	4339.9
385.647	4392.9
391.44	4424.9
397.228	4457.9
403.009	4431.9
408.784	4473.9
414.553	4495.9
420.315	4507.9
426.071	4506.9
431.821	4496.9
437.565	4503.9
443.302	4479.9
449.033	4452.9
454.758	4436.9
460.477	4441.9
466.189	4420.9
471.896	4367.9
477.596	4347.9
483.29	4324.9
488.978	4310.9
494.66	4290.9
500.335	4232.9
506.005	4102.9
511.668	3986.9
517.325	3851.9
522.977	3734.9
528.622	3656.9
534.261	3577.9
539.894	3537.9
545.521	3499.9
551.141	3488.9
556.756	3448.9
562.365	3426.9
567.968	3396.9
573.565	3383.9
579.155	3353.9
584.74	3337.9
590.319	3350.9
595.892	3332.9
601.459	3316.9
607.02	3324.9
612.575	3282.9
618.124	3276.9
623.667	3203.9
629.204	3171.9
634.735	3143.9
640.261	3131.9
645.781	3104.9
651.294	3125.9
656.802	3107.9
662.304	3090.9
667.8	3083.9
673.29	3073.9
678.775	3078.9
684.254	3041.9
689.726	3028.9
695.193	3041.9
700.655	3019.9
706.11	2977.9
711.56	2973.9
717.004	2969.9
722.442	2945.9
727.874	2940.9
733.301	2930.9
738.722	2903.9
744.137	2910.9
749.547	2917.9
754.951	2892.9
760.349	2910.9
765.741	2923.9
771.128	2911.9
776.509	2917.9
781.885	2945.9
787.254	2990.9
792.618	2972.9
797.977	2992.9
803.33	2946.9
808.677	2946.9
814.019	2918.9
819.355	2898.9
824.686	2882.9
830.011	2850.9
835.33	2845.9
840.644	2820.9
845.952	2825.9
851.255	2813.9
856.552	2799.9
861.844	2760.9
867.13	2768.9
872.41	2738.9
877.686	2732.9
882.955	2719.9
888.219	2679.9
893.478	2624.9
898.731	2625.9
903.979	2605.9
909.221	2569.9
914.458	2544.9
919.69	2546.9
924.916	2548.9
930.136	2538.9
935.351	2539.9
940.561	2557.9
945.766	2547.9
950.965	2530.9
956.158	2539.9
961.347	2502.9
966.529	2462.9
971.707	2424.9
976.879	2409.9
982.046	2357.9
987.208	2364.9
992.364	2364.9
997.515	2380.9
1002.66	2401.9
1007.801	2414.9
1012.936	2430.9
1018.066	2436.9
1023.19	2441.9
1028.309	2434.9
1033.423	2433.9
1038.532	2438.9
1043.636	2403.9
1048.734	2415.9
1053.827	2382.9
1058.915	2317.9
1063.998	2308.9
1069.075	2323.9
1074.147	2322.9
1079.214	2304.9
1084.276	2323.9
1089.333	2336.9
1094.385	2352.9
1099.431	2304.9
1104.472	2334.9
1109.509	2309.9
1114.54	2267.9
1119.565	2260.9
1124.586	2223.9
1129.602	2173.9
1134.613	2174.9
1139.618	2158.9
1144.619	2171.9
1149.614	2158.9
1154.604	2180.9
1159.589	2175.9
1164.57	2178.9
1169.545	2195.9
1174.515	2191.9
1179.48	2173.9
1184.44	2165.9
1189.395	2161.9
1194.345	2128.9
1199.29	2111.9
1204.23	2123.9
1209.165	2136.9
1214.095	2128.9
1219.021	2133.9
1223.941	2145.9
1228.856	2148.9
1233.766	2148.9
1238.672	2157.9
1243.572	2154.9
1248.467	2141.9
1253.358	2126.9
1258.244	2087.9
1263.124	2062.9
1268	2012.9
1272.871	1994.9
1277.737	1961.9
1282.599	1963.9
1287.455	1974.9
1292.306	1969.9
1297.153	1967.9
1301.995	1990.9
1306.832	1982.9
1311.664	2025.9
1316.491	2005.9
1321.314	2017.9
1326.132	1995.9
1330.945	1984.9
1335.753	1953.9
1340.556	1925.9
1345.354	1890.9
1350.148	1877.9
1354.937	1860.9
1359.722	1807.9
1364.501	1771.9
1369.276	1774.9
1374.046	1726.9
1378.811	1721.9
1383.572	1695.9
1388.327	1701.9
1393.079	1686.9
1397.825	1716.9
1402.567	1690.9
1407.304	1686.9
1412.036	1696.9
1416.764	1710.9
1421.487	1688.9
1426.205	1701.9
1430.919	1709.9
1435.628	1723.9
1440.333	1727.9
1445.032	1743.9
1449.727	1770.9
1454.418	1793.9
1459.104	1747.9
1463.785	1746.9
1468.462	1719.9
1473.134	1688.9
1477.802	1631.9
1482.465	1630.9
1487.123	1584.9
1491.777	1595.9
1496.426	1566.9
1501.071	1535.9
1505.711	1549.9
1510.347	1538.9
1514.978	1534.9
1519.604	1550.9
1524.226	1521.9
1528.844	1530.9
1533.457	1524.9
1538.065	1521.9
1542.669	1519.9
1547.269	1499.9
1551.864	1503.9
1556.454	1522.9
1561.041	1540.9
1565.622	1534.9
1570.199	1530.9
1574.772	1544.9
1579.34	1558.9
1583.904	1606.9
1588.464	1605.9
1593.019	1592.9
1597.569	1603.9
1602.115	1603.9
1606.657	1590.9
1611.195	1595.9
1615.728	1595.9
1620.256	1578.9
1624.78	1593.9
1629.3	1593.9
1633.816	1597.9
1638.327	1612.9
1642.834	1604.9
1647.336	1611.9
1651.834	1619.9
1656.328	1629.9
1660.817	1619.9
1665.302	1598.9
1669.783	1576.9
1674.259	1519.9
1678.732	1513.9
1683.199	1466.9
1687.663	1413.9
1692.122	1390.9
1696.577	1341.9
1701.028	1280.9
1705.474	1240.9
1709.917	1222.9
1714.355	1171.9
1718.788	1166.9
1723.218	1169.9
1727.643	1165.9
1732.064	1145.9
1736.481	1153.9
1740.893	1116.9
1745.301	1102.9
1749.705	1077.9
1754.105	1063.9
1758.501	1044.9
1762.893	1034.9
1767.28	1016.9
1771.663	1013.9
1776.042	997.9
1780.417	996.9
1784.787	992.9
1789.154	986.9
1793.516	957.9
1797.874	953.9
1802.228	959.9
1806.578	938.9
1810.924	919.9
1815.266	909.9
1819.603	902.9
1823.937	899.9
1828.266	902.9
1832.591	895.9
1836.913	912.9
1841.23	894.9
1845.543	896.9
1849.852	884.9
1854.156	902.9
1858.457	901.9
1862.754	890.9
1867.047	908.9
1871.335	905.9
1875.62	895.9
1879.9	906.9
1884.177	906.9
1888.449	870.9
1892.718	884.9
1896.982	866.9
1901.243	857.9
1905.499	836.9
1909.752	838.9
1914	819.9
1918.245	816.9
1922.485	801.9
1926.722	814.9
1930.954	797.9
1935.183	803.9
1939.408	782.9
1943.628	798.9
1947.845	779.9
1952.058	785.9
1956.267	768.9
1960.472	755.9
1964.673	756.9
1968.87	740.9
1973.063	731.9
1977.252	723.9
1981.438	746.9
1985.619	738.9
1989.797	725.9
1993.971	745.9
1998.14	739.9
2002.306	727.9
2006.469	736.9
2010.627	730.9
2014.781	750.9
2018.932	733.9
2023.078	742.9
2027.221	725.9
2031.36	736.9
2035.495	710.9
2039.627	712.9
2043.754	687.9
2047.878	683.9
2051.998	691.9
2056.114	679.9
2060.226	683.9
2064.334	668.9
2068.439	681.9
2072.54	677.9
2076.637	671.9
2080.73	673.9
2084.82	668.9
2088.906	657.9
2092.988	650.9
2097.066	647.9
2101.14	639.9
2105.211	627.9
2109.278	636.9
2113.342	615.9
2117.401	608.9
2121.457	600.9
2125.509	604.9
2129.558	595.9
2133.602	608.9
2137.643	594.9
2141.681	592.9
2145.714	599.9
2149.744	600.9
2153.77	598.9
2157.793	586.9
2161.812	588.9
2165.827	574.9
2169.838	578.9
2173.846	569.9
2177.851	548.9
2181.851	532.9
2185.848	533.9
2189.841	537.9
2193.831	532.9
2197.817	525.9
2201.799	524.9
2205.778	524.9
2209.753	508.9
2213.725	519.9
2217.693	514.9
2221.657	524.9
2225.618	516.9
2229.575	507.9
2233.529	489.9
2237.479	506.9
2241.425	490.9
2245.368	484.9
2249.307	474.9
2253.243	474.9
2257.175	459.9
2261.104	472.9
2265.029	442.9
2268.95	449.9
2272.868	437.9
2276.783	432.9
2280.694	418.9
2284.601	426.9
2288.505	432.9
2292.405	413.9
2296.302	398.9
2300.195	398.9
2304.085	394.9
2307.971	380.9
2311.854	387.9
2315.734	382.9
2319.609	365.9
2323.482	380.9
2327.351	368.9
2331.216	386.9
2335.078	384.9
2338.937	369.9
2342.792	360.9
2346.643	345.9
2350.492	359.9
2354.336	360.9
2358.178	346.9
2362.015	358.9
2365.85	349.9
2369.681	353.9
2373.508	359.9
2377.333	356.9
2381.153	354.9
2384.971	355.9
2388.785	354.9
2392.595	344.9
2396.402	340.9
2400.206	341.9
2404.007	337.9
2407.804	336.9
2411.597	329.9
2415.388	318.9
2419.174	324.9
2422.958	321.9
2426.738	326.9
2430.515	327.9
2434.289	320.9
2438.059	317.9
2441.825	313.9
2445.589	310.9
2449.349	311.9
2453.106	297.9
2456.859	297.9
2460.61	304.9
2464.356	289.9
2468.1	283.9
2471.84	282.9
2475.577	285.9
2479.311	280.9
2483.041	282.9
2486.768	272.9
2490.492	274.9
2494.213	279.9
2497.93	284.9
2501.644	273.9
2505.355	265.9
2509.062	258.9
2512.766	264.9
2516.467	261.9
2520.165	253.9
2523.859	264.9
2527.551	258.9
2531.239	241.9
2534.923	236.9
2538.605	236.9
2542.283	241.9
2545.958	239.9
2549.63	240.9
2553.299	237.9
2556.964	238.9
2560.626	224.9
2564.285	228.9
2567.941	230.9
2571.594	227.9
2575.243	221.9
2578.89	208.9
2582.533	213.9
2586.173	209.9
2589.809	205.9
2593.443	201.9
2597.073	197.9
2600.701	192.9
2604.325	194.9
2607.946	192.9
2611.564	193.9
2615.178	188.9
2618.79	203.9
2622.398	191.9
2626.004	182.9
2629.606	182.9
2633.205	186.9
2636.801	177.9
2640.394	167.9
2643.983	172.9
2647.57	177.9
2651.153	182.9
2654.734	170.9
2658.311	165.9
2661.885	162.9
2665.456	167.9
2669.025	167.9
2672.589	166.9
2676.151	165.9
2679.71	159.9
2683.266	161.9
2686.819	160.9
2690.368	148.9
2693.915	145.9
2697.458	141.9
2700.999	147.9
2704.536	143.9
2708.071	142.9
2711.602	131.9
2715.13	129.9
2718.656	122.9
2722.178	128.9
2725.697	124.9
2729.214	126.9
2732.727	126.9
2736.237	126.9
2739.744	122.9
2743.249	122.9
2746.75	118.9
2750.248	118.9
2753.743	112.9
2757.236	114.9
2760.725	116.9
2764.211	103.9
2767.695	97.9
2771.175	102.9
2774.652	95.9
2778.127	100.9
2781.598	95.9
2785.067	100.9
2788.532	108.9
2791.995	106.9
2795.455	100.9
2798.911	99.9
2802.365	112.9
2805.816	106.9
2809.264	98.9
2812.709	118.9
2816.151	105.9
2819.59	108.9
2823.026	99.9
2826.46	93.9
2829.89	102.9
2833.318	97.9
2836.742	107.9
2840.164	103.9
2843.583	110.9
2846.999	105.9
2850.412	108.9
2853.822	101.9
2857.229	102.9
2860.634	111.9
2864.035	106.9
2867.434	122.9
2870.83	127.9
2874.223	137.9
2877.613	135.9
2881	147.9
2884.385	124.9
2887.766	133.9
2891.145	128.9
2894.521	134.9
2897.894	144.9
2901.264	142.9
2904.631	142.9
2907.996	140.9
2911.358	138.9
2914.717	141.9
2918.073	154.9
2921.426	153.9
2924.777	159.9
2928.124	162.9
2931.469	166.9
2934.811	170.9
2938.15	167.9
2941.487	173.9
2944.821	176.9
2948.152	172.9
2951.48	174.9
2954.805	179.9
2958.128	175.9
2961.447	168.9
2964.765	175.9
2968.079	168.9
2971.39	170.9
2974.699	179.9
2978.005	175.9
2981.308	192.9
2984.609	181.9
2987.907	179.9
2991.202	189.9
2994.494	180.9
2997.784	181.9
3001.07	198.9
3004.355	205.9
3007.636	197.9
3010.915	195.9
3014.191	195.9
3017.464	200.9
3020.734	206.9
3024.002	203.9
3027.267	212.9
3030.53	216.9
3033.789	224.9
3037.046	233.9
3040.301	235.9
3043.552	245.9
3046.801	251.9
3050.048	251.9
3053.291	259.9
3056.532	261.9
3059.771	282.9
3063.006	289.9
3066.239	297.9
3069.469	303.9
3072.697	321.9
3075.922	331.9
3079.144	342.9
3082.364	345.9
3085.581	355.9
3088.795	358.9
3092.007	359.9
3095.216	359.9
3098.423	383.9
3101.627	389.9
3104.828	396.9
3108.026	403.9
3111.222	423.9
3114.416	423.9
3117.607	433.9
3120.795	449.9
3123.98	450.9
3127.163	471.9
3130.344	483.9
3133.521	483.9
3136.696	518.9
3139.869	512.9
3143.039	508.9
3146.206	522.9
3149.371	549.9
3152.533	544.9
3155.693	537.9
3158.85	555.9
3162.005	568.9
3165.157	553.9
3168.306	555.9
3171.453	555.9
3174.597	567.9
3177.739	578.9
3180.878	568.9
3184.014	580.9
3187.149	573.9
3190.28	581.9
3193.409	576.9
3196.536	585.9
3199.659	584.9
3202.781	594.9
3205.9	586.9
3209.016	585.9
3212.13	590.9
3215.241	583.9
3218.35	579.9
3221.456	565.9
3224.56	578.9
3227.661	557.9
3230.76	544.9
3233.856	546.9
3236.95	531.9
3240.041	522.9
3243.13	499.9
3246.216	517.9
3249.3	498.9
3252.382	512.9
3255.46	501.9
3258.537	494.9
3261.611	492.9
3264.682	472.9
3267.751	469.9
3270.818	480.9
3273.882	467.9
3276.943	463.9
3280.002	464.9
3283.059	462.9
3286.113	462.9
3289.165	455.9
3292.214	458.9
3295.261	441.9
3298.306	439.9
3301.348	433.9
3304.387	430.9
3307.425	416.9
3310.459	420.9
3313.492	415.9
3316.521	410.9
3319.549	392.9
3322.574	409.9
3325.597	399.9
3328.617	409.9
3331.635	392.9
3334.65	397.9
3337.663	370.9
3340.674	393.9
3343.682	383.9
3346.688	380.9
3349.691	391.9
3352.692	385.9
3355.691	384.9
3358.687	367.9
3361.681	367.9
3364.673	372.9
3367.662	365.9
3370.649	357.9
3373.633	344.9
3376.615	335.9
3379.595	331.9
3382.572	339.9
3385.547	337.9
3388.52	334.9
3391.49	318.9
3394.458	321.9
3397.424	298.9
3400.387	304.9
3403.348	305.9
3406.307	300.9
3409.263	297.9
3412.217	295.9
3415.168	288.9
3418.118	289.9
3421.065	268.9
3424.009	271.9
3426.951	275.9
3429.891	258.9
3432.829	254.9
3435.764	240.9
3438.697	239.9
3441.628	223.9
3444.557	231.9
3447.483	214.9
3450.407	205.9
3453.328	203.9
3456.247	202.9
3459.164	187.9
3462.079	177.9
3464.991	167.9
3467.902	158.9
3470.809	156.9
3473.715	144.9
3476.618	143.9
3479.519	138.9
3482.418	134.9
3485.315	112.9
3488.209	109.9
3491.101	105.9
3493.99	113.9
3496.878	103.9
3499.763	97.9
3502.646	88.9
3505.527	80.9
3508.405	77.9
3511.281	67.9
3514.155	56.9
3517.027	61.9
3519.897	50.9
3522.764	42.9
3525.629	39.9
3528.492	29.9
3531.352	23.9
3534.211	26.9
3537.067	16.9
3539.921	16.9
3542.773	15.9
3545.622	4.9
3548.469	-10.1
3551.315	-5.1
3554.157	-5.1
3556.998	-16.1
3559.837	-19.1
3562.673	-23.1
3565.507	-22.1
3568.339	-26.1
3571.169	-37.1
3573.996	-29.1
3576.822	-38.1
3579.645	-40.1
3582.466	-36.1
3585.285	-42.1
3588.101	-38.1
3590.916	-50.1
3593.728	-58.1
3596.538	-58.1
3599.346	-56.1
3602.152	-63.1
3604.956	-60.1
3607.757	-55.1
3610.556	-62.1
3613.354	-66.1
3616.149	-75.1
3618.942	-74.1
3621.732	-70.1
3624.521	-71.1
3627.307	-72.1
3630.092	-73.1
3632.874	-73.1
3635.654	-87.1
3638.432	-83.1
3641.208	-85.1
3643.982	-93.1
3646.753	-90.1
3649.523	-91.1
3652.29	-87.1
3655.055	-89.1
3657.818	-89.1
3660.579	-95.1
3663.338	-95.1
3666.095	-97.1
3668.849	-96.1
3671.602	-96.1
3674.352	-101.1
3677.101	-104.1
3679.847	-101.1
3682.591	-111.1
3685.333	-107.1
3688.073	-103.1
3690.811	-100.1
3693.547	-110.1
3696.281	-105.1
3699.013	-111.1
3701.742	-111.1
3704.47	-114.1
3707.195	-108.1
3709.919	-113.1
3712.64	-114.1
3715.359	-117.1
3718.076	-109.1
3720.792	-115.1
3723.505	-122.1
3726.216	-112.1
3728.925	-116.1
3731.632	-115.1
3734.336	-124.1
3737.039	-113.1
3739.74	-124.1
3742.439	-126.1
3745.136	-114.1
3747.83	-125.1
3750.523	-123.1
3753.213	-118.1
3755.902	-119.1
3758.589	-126.1
3761.273	-118.1
3763.956	-120.1
3766.636	-122.1
3769.315	-115.1
3771.991	-119.1
3774.665	-128.1
3777.338	-116.1
3780.008	-117.1
3782.677	-122.1
3785.343	-118.1
3788.007	-120.1
3790.67	-122.1
3793.33	-118.1
3795.989	-119.1
3798.645	-120.1
3801.299	-120.1
3803.952	-124.1
3806.602	-120.1
3809.251	-130.1
3811.897	-130.1
3814.542	-131.1
3817.184	-122.1
3819.825	-122.1
3822.463	-119.1
3825.1	-123.1
3827.735	-123.1
3830.367	-129.1
3832.998	-124.1
3835.627	-127.1
3838.253	-126.1
3840.878	-121.1
3843.501	-119.1
3846.122	-127.1
3848.741	-127.1
3851.358	-119.1
3853.973	-134.1
3856.586	-125.1
3859.197	-133.1
3861.806	-118.1
3864.414	-126.1
3867.019	-123.1
3869.622	-122.1
3872.224	-117.1
3874.823	-110.1
3877.421	-99.1
3880.016	-73.1
3882.61	-51.1
3885.202	-51.1
3887.792	-64.1
3890.38	-97.1
3892.966	-114.1
3895.55	-115.1
3898.132	-123.1
3900.713	-120.1
3903.291	-129.1
3905.868	-126.1
3908.442	-120.1
3911.015	-126.1
3913.586	-124.1
3916.155	-128.1
3918.722	-134.1
3921.287	-127.1
3923.85	-127.1
3926.411	-125.1
3928.971	-123.1
3931.528	-124.1
3934.084	-125.1
3936.638	-121.1
3939.19	-130.1
3941.74	-128.1
3944.288	-129.1
3946.834	-122.1
3949.378	-126.1
3951.921	-126.1
3954.462	-132.1
3957	-126.1
3959.537	-124.1
3962.072	-127.1
3964.606	-124.1
3967.137	-125.1
3969.667	-128.1
3972.194	-128.1
3974.72	-124.1
3977.244	-126.1
3979.766	-127.1
3982.286	-131.1
3984.805	-130.1
3987.321	-124.1
3989.836	-115.1
3992.349	-130.1
3994.86	-125.1
3997.369	-130.1
3999.877	-127.1
4002.382	-124.1
4004.886	-126.1
4007.388	-124.1
4009.888	-121.1
4012.386	-128.1
4014.883	-126.1
4017.377	-129.1
4019.87	-128.1
4022.361	-128.1
4024.85	-127.1
4027.338	-122.1
4029.823	-121.1
4032.307	-122.1
4034.789	-129.1
4037.269	-128.1
4039.747	-128.1
4042.224	-130.1
4044.699	-127.1
4047.172	-121.1
4049.643	-121.1
4052.112	-124.1
4054.58	-127.1
4057.046	-129.1
4059.51	-133.1
4061.972	-125.1
4064.432	-123.1
4066.891	-127.1
4069.348	-126.1
4071.803	-128.1
4074.256	-122.1
4076.708	-128.1
4079.158	-123.1
4081.606	-123.1
4084.052	-123.1
4086.497	-125.1
4088.939	-117.1
4091.38	-118.1
4093.819	-124.1
4096.257	-132.1
4098.693	-128.1
4101.127	-128.1
4103.559	-126.1
4105.989	23.9
4108.418	8.9
4110.845	14.9
4113.27	7.9
4115.694	7.9
4118.115	5.9
4120.535	-132.1
4122.954	-132.1
4125.37	-125.1
4127.785	-122.1
4130.198	-122.1
4132.609	-123.1
4135.019	-130.1
4137.427	-136.1
4139.833	-135.1
4142.237	-133.1
