Data from 2018-2-8_conc=5_n=7_RamanShift_05.txt Node
Date: Mon Mar 12 16:12:28 IST 2018
User: aro
Spectrometer: QEPB0276
Trigger mode: 0
Integration Time (sec): 3.000000E1
Scans to average: 1
Electric dark correction enabled: true
Nonlinearity correction enabled: false
Boxcar width: 0
XAxis mode: Raman Shifts
Number of Pixels in Spectrum: 1044
>>>>>Begin Spectral Data<<<<<
160.701	19.4
166.742	47.4
172.777	114.4
178.805	368.4
184.826	969.4
190.841	2095.4
196.849	3502.4
202.85	4616.4
208.845	5054.4
214.833	5042.4
220.815	4946.4
226.789	4907.4
232.758	4924.4
238.719	4918.4
244.674	4876.4
250.623	4820.4
256.565	4771.4
262.5	4661.4
268.429	4641.4
274.351	4584.4
280.267	4542.4
286.176	4539.4
292.079	4506.4
297.975	4473.4
303.865	4454.4
309.748	4455.4
315.625	4400.4
321.495	4431.4
327.359	4393.4
333.217	4411.4
339.068	4437.4
344.912	4409.4
350.751	4461.4
356.583	4460.4
362.408	4456.4
368.227	4469.4
374.04	4458.4
379.847	4513.4
385.647	4483.4
391.44	4539.4
397.228	4549.4
403.009	4618.4
408.784	4600.4
414.553	4633.4
420.315	4624.4
426.071	4616.4
431.821	4613.4
437.565	4623.4
443.302	4623.4
449.033	4592.4
454.758	4570.4
460.477	4546.4
466.189	4503.4
471.896	4485.4
477.596	4452.4
483.29	4482.4
488.978	4477.4
494.66	4426.4
500.335	4362.4
506.005	4243.4
511.668	4066.4
517.325	3928.4
522.977	3836.4
528.622	3750.4
534.261	3719.4
539.894	3688.4
545.521	3615.4
551.141	3606.4
556.756	3571.4
562.365	3545.4
567.968	3504.4
573.565	3511.4
579.155	3481.4
584.74	3455.4
590.319	3446.4
595.892	3435.4
601.459	3437.4
607.02	3454.4
612.575	3415.4
618.124	3382.4
623.667	3351.4
629.204	3320.4
634.735	3260.4
640.261	3272.4
645.781	3214.4
651.294	3223.4
656.802	3211.4
662.304	3216.4
667.8	3200.4
673.29	3189.4
678.775	3186.4
684.254	3190.4
689.726	3175.4
695.193	3158.4
700.655	3144.4
706.11	3129.4
711.56	3105.4
717.004	3090.4
722.442	3091.4
727.874	3054.4
733.301	3065.4
738.722	3035.4
744.137	3009.4
749.547	3029.4
754.951	3027.4
760.349	3015.4
765.741	3021.4
771.128	3034.4
776.509	3069.4
781.885	3084.4
787.254	3094.4
792.618	3088.4
797.977	3077.4
803.33	3071.4
808.677	3011.4
814.019	3007.4
819.355	3008.4
824.686	2964.4
830.011	2972.4
835.33	2925.4
840.644	2929.4
845.952	2937.4
851.255	2914.4
856.552	2925.4
861.844	2893.4
867.13	2880.4
872.41	2858.4
877.686	2843.4
882.955	2803.4
888.219	2785.4
893.478	2757.4
898.731	2729.4
903.979	2696.4
909.221	2666.4
914.458	2648.4
919.69	2659.4
924.916	2644.4
930.136	2656.4
935.351	2653.4
940.561	2672.4
945.766	2638.4
950.965	2664.4
956.158	2633.4
961.347	2612.4
966.529	2570.4
971.707	2539.4
976.879	2507.4
982.046	2466.4
987.208	2473.4
992.364	2469.4
997.515	2476.4
1002.66	2507.4
1007.801	2533.4
1012.936	2536.4
1018.066	2556.4
1023.19	2538.4
1028.309	2558.4
1033.423	2564.4
1038.532	2532.4
1043.636	2530.4
1048.734	2487.4
1053.827	2469.4
1058.915	2437.4
1063.998	2436.4
1069.075	2408.4
1074.147	2442.4
1079.214	2430.4
1084.276	2443.4
1089.333	2435.4
1094.385	2440.4
1099.431	2464.4
1104.472	2466.4
1109.509	2416.4
1114.54	2395.4
1119.565	2371.4
1124.586	2316.4
1129.602	2310.4
1134.613	2282.4
1139.618	2296.4
1144.619	2272.4
1149.614	2262.4
1154.604	2311.4
1159.589	2303.4
1164.57	2292.4
1169.545	2308.4
1174.515	2306.4
1179.48	2295.4
1184.44	2278.4
1189.395	2254.4
1194.345	2253.4
1199.29	2220.4
1204.23	2224.4
1209.165	2202.4
1214.095	2219.4
1219.021	2246.4
1223.941	2253.4
1228.856	2280.4
1233.766	2290.4
1238.672	2286.4
1243.572	2278.4
1248.467	2267.4
1253.358	2232.4
1258.244	2209.4
1263.124	2180.4
1268	2139.4
1272.871	2109.4
1277.737	2085.4
1282.599	2089.4
1287.455	2066.4
1292.306	2084.4
1297.153	2080.4
1301.995	2109.4
1306.832	2119.4
1311.664	2103.4
1316.491	2127.4
1321.314	2113.4
1326.132	2143.4
1330.945	2103.4
1335.753	2056.4
1340.556	2039.4
1345.354	1990.4
1350.148	1968.4
1354.937	1950.4
1359.722	1900.4
1364.501	1875.4
1369.276	1844.4
1374.046	1822.4
1378.811	1781.4
1383.572	1784.4
1388.327	1772.4
1393.079	1805.4
1397.825	1777.4
1402.567	1782.4
1407.304	1772.4
1412.036	1791.4
1416.764	1792.4
1421.487	1789.4
1426.205	1806.4
1430.919	1803.4
1435.628	1822.4
1440.333	1832.4
1445.032	1847.4
1449.727	1854.4
1454.418	1862.4
1459.104	1875.4
1463.785	1852.4
1468.462	1811.4
1473.134	1779.4
1477.802	1733.4
1482.465	1712.4
1487.123	1674.4
1491.777	1655.4
1496.426	1624.4
1501.071	1608.4
1505.711	1619.4
1510.347	1621.4
1514.978	1596.4
1519.604	1605.4
1524.226	1591.4
1528.844	1580.4
1533.457	1566.4
1538.065	1584.4
1542.669	1574.4
1547.269	1560.4
1551.864	1575.4
1556.454	1592.4
1561.041	1606.4
1565.622	1595.4
1570.199	1603.4
1574.772	1635.4
1579.34	1646.4
1583.904	1673.4
1588.464	1682.4
1593.019	1686.4
1597.569	1704.4
1602.115	1685.4
1606.657	1698.4
1611.195	1692.4
1615.728	1694.4
1620.256	1684.4
1624.78	1678.4
1629.3	1670.4
1633.816	1683.4
1638.327	1693.4
1642.834	1693.4
1647.336	1701.4
1651.834	1725.4
1656.328	1715.4
1660.817	1698.4
1665.302	1697.4
1669.783	1664.4
1674.259	1648.4
1678.732	1588.4
1683.199	1545.4
1687.663	1521.4
1692.122	1450.4
1696.577	1391.4
1701.028	1334.4
1705.474	1279.4
1709.917	1249.4
1714.355	1225.4
1718.788	1203.4
1723.218	1197.4
1727.643	1218.4
1732.064	1200.4
1736.481	1193.4
1740.893	1166.4
1745.301	1134.4
1749.705	1127.4
1754.105	1108.4
1758.501	1076.4
1762.893	1061.4
1767.28	1052.4
1771.663	1056.4
1776.042	1026.4
1780.417	1036.4
1784.787	1011.4
1789.154	992.4
1793.516	999.4
1797.874	980.4
1802.228	982.4
1806.578	968.4
1810.924	940.4
1815.266	932.4
1819.603	934.4
1823.937	937.4
1828.266	940.4
1832.591	923.4
1836.913	931.4
1841.23	942.4
1845.543	932.4
1849.852	927.4
1854.156	938.4
1858.457	946.4
1862.754	945.4
1867.047	944.4
1871.335	949.4
1875.62	946.4
1879.9	951.4
1884.177	921.4
1888.449	907.4
1892.718	897.4
1896.982	890.4
1901.243	884.4
1905.499	885.4
1909.752	864.4
1914	853.4
1918.245	859.4
1922.485	830.4
1926.722	834.4
1930.954	833.4
1935.183	815.4
1939.408	810.4
1943.628	813.4
1947.845	808.4
1952.058	793.4
1956.267	792.4
1960.472	790.4
1964.673	780.4
1968.87	770.4
1973.063	769.4
1977.252	758.4
1981.438	763.4
1985.619	761.4
1989.797	748.4
1993.971	767.4
1998.14	769.4
2002.306	769.4
2006.469	753.4
2010.627	771.4
2014.781	770.4
2018.932	753.4
2023.078	758.4
2027.221	761.4
2031.36	753.4
2035.495	746.4
2039.627	718.4
2043.754	718.4
2047.878	715.4
2051.998	722.4
2056.114	717.4
2060.226	713.4
2064.334	712.4
2068.439	707.4
2072.54	699.4
2076.637	688.4
2080.73	698.4
2084.82	694.4
2088.906	693.4
2092.988	685.4
2097.066	672.4
2101.14	658.4
2105.211	656.4
2109.278	646.4
2113.342	646.4
2117.401	630.4
2121.457	642.4
2125.509	631.4
2129.558	630.4
2133.602	638.4
2137.643	629.4
2141.681	624.4
2145.714	635.4
2149.744	633.4
2153.77	624.4
2157.793	606.4
2161.812	620.4
2165.827	625.4
2169.838	609.4
2173.846	590.4
2177.851	577.4
2181.851	561.4
2185.848	568.4
2189.841	580.4
2193.831	575.4
2197.817	549.4
2201.799	551.4
2205.778	540.4
2209.753	555.4
2213.725	545.4
2217.693	557.4
2221.657	549.4
2225.618	551.4
2229.575	550.4
2233.529	543.4
2237.479	529.4
2241.425	520.4
2245.368	510.4
2249.307	507.4
2253.243	503.4
2257.175	492.4
2261.104	492.4
2265.029	493.4
2268.95	477.4
2272.868	478.4
2276.783	469.4
2280.694	464.4
2284.601	452.4
2288.505	462.4
2292.405	451.4
2296.302	441.4
2300.195	439.4
2304.085	431.4
2307.971	419.4
2311.854	413.4
2315.734	425.4
2319.609	413.4
2323.482	403.4
2327.351	401.4
2331.216	410.4
2335.078	440.4
2338.937	409.4
2342.792	395.4
2346.643	390.4
2350.492	387.4
2354.336	394.4
2358.178	391.4
2362.015	386.4
2365.85	402.4
2369.681	396.4
2373.508	396.4
2377.333	393.4
2381.153	395.4
2384.971	402.4
2388.785	392.4
2392.595	389.4
2396.402	374.4
2400.206	386.4
2404.007	386.4
2407.804	380.4
2411.597	377.4
2415.388	368.4
2419.174	377.4
2422.958	367.4
2426.738	376.4
2430.515	366.4
2434.289	369.4
2438.059	354.4
2441.825	359.4
2445.589	355.4
2449.349	330.4
2453.106	346.4
2456.859	338.4
2460.61	343.4
2464.356	339.4
2468.1	325.4
2471.84	316.4
2475.577	330.4
2479.311	318.4
2483.041	317.4
2486.768	325.4
2490.492	314.4
2494.213	321.4
2497.93	316.4
2501.644	305.4
2505.355	304.4
2509.062	310.4
2512.766	303.4
2516.467	294.4
2520.165	290.4
2523.859	294.4
2527.551	287.4
2531.239	277.4
2534.923	271.4
2538.605	275.4
2542.283	263.4
2545.958	265.4
2549.63	269.4
2553.299	255.4
2556.964	264.4
2560.626	254.4
2564.285	254.4
2567.941	259.4
2571.594	255.4
2575.243	252.4
2578.89	242.4
2582.533	235.4
2586.173	232.4
2589.809	232.4
2593.443	232.4
2597.073	234.4
2600.701	225.4
2604.325	224.4
2607.946	222.4
2611.564	217.4
2615.178	218.4
2618.79	221.4
2622.398	228.4
2626.004	218.4
2629.606	215.4
2633.205	204.4
2636.801	208.4
2640.394	211.4
2643.983	208.4
2647.57	212.4
2651.153	202.4
2654.734	207.4
2658.311	196.4
2661.885	189.4
2665.456	188.4
2669.025	191.4
2672.589	191.4
2676.151	190.4
2679.71	185.4
2683.266	181.4
2686.819	178.4
2690.368	178.4
2693.915	172.4
2697.458	171.4
2700.999	169.4
2704.536	174.4
2708.071	166.4
2711.602	160.4
2715.13	157.4
2718.656	155.4
2722.178	155.4
2725.697	153.4
2729.214	150.4
2732.727	154.4
2736.237	148.4
2739.744	139.4
2743.249	140.4
2746.75	139.4
2750.248	131.4
2753.743	132.4
2757.236	126.4
2760.725	130.4
2764.211	115.4
2767.695	125.4
2771.175	113.4
2774.652	116.4
2778.127	120.4
2781.598	117.4
2785.067	111.4
2788.532	129.4
2791.995	123.4
2795.455	116.4
2798.911	115.4
2802.365	125.4
2805.816	130.4
2809.264	124.4
2812.709	130.4
2816.151	123.4
2819.59	119.4
2823.026	115.4
2826.46	116.4
2829.89	123.4
2833.318	119.4
2836.742	131.4
2840.164	114.4
2843.583	134.4
2846.999	125.4
2850.412	120.4
2853.822	121.4
2857.229	131.4
2860.634	139.4
2864.035	136.4
2867.434	143.4
2870.83	146.4
2874.223	154.4
2877.613	157.4
2881	166.4
2884.385	163.4
2887.766	147.4
2891.145	156.4
2894.521	161.4
2897.894	170.4
2901.264	163.4
2904.631	164.4
2907.996	166.4
2911.358	165.4
2914.717	178.4
2918.073	172.4
2921.426	183.4
2924.777	183.4
2928.124	184.4
2931.469	186.4
2934.811	194.4
2938.15	191.4
2941.487	207.4
2944.821	208.4
2948.152	207.4
2951.48	210.4
2954.805	215.4
2958.128	206.4
2961.447	184.4
2964.765	203.4
2968.079	189.4
2971.39	199.4
2974.699	198.4
2978.005	205.4
2981.308	209.4
2984.609	204.4
2987.907	200.4
2991.202	224.4
2994.494	211.4
2997.784	215.4
3001.07	218.4
3004.355	224.4
3007.636	222.4
3010.915	224.4
3014.191	224.4
3017.464	238.4
3020.734	234.4
3024.002	225.4
3027.267	241.4
3030.53	244.4
3033.789	251.4
3037.046	261.4
3040.301	262.4
3043.552	278.4
3046.801	279.4
3050.048	286.4
3053.291	298.4
3056.532	301.4
3059.771	319.4
3063.006	318.4
3066.239	337.4
3069.469	358.4
3072.697	353.4
3075.922	367.4
3079.144	391.4
3082.364	390.4
3085.581	414.4
3088.795	398.4
3092.007	402.4
3095.216	414.4
3098.423	426.4
3101.627	443.4
3104.828	452.4
3108.026	459.4
3111.222	467.4
3114.416	472.4
3117.607	500.4
3120.795	498.4
3123.98	495.4
3127.163	518.4
3130.344	538.4
3133.521	545.4
3136.696	563.4
3139.869	553.4
3143.039	568.4
3146.206	570.4
3149.371	588.4
3152.533	592.4
3155.693	595.4
3158.85	606.4
3162.005	615.4
3165.157	607.4
3168.306	603.4
3171.453	622.4
3174.597	616.4
3177.739	629.4
3180.878	633.4
3184.014	650.4
3187.149	639.4
3190.28	635.4
3193.409	627.4
3196.536	640.4
3199.659	635.4
3202.781	658.4
3205.9	647.4
3209.016	649.4
3212.13	644.4
3215.241	636.4
3218.35	633.4
3221.456	619.4
3224.56	621.4
3227.661	612.4
3230.76	608.4
3233.856	612.4
3236.95	585.4
3240.041	570.4
3243.13	560.4
3246.216	555.4
3249.3	553.4
3252.382	551.4
3255.46	551.4
3258.537	537.4
3261.611	542.4
3264.682	526.4
3267.751	519.4
3270.818	522.4
3273.882	507.4
3276.943	514.4
3280.002	521.4
3283.059	513.4
3286.113	505.4
3289.165	509.4
3292.214	497.4
3295.261	480.4
3298.306	475.4
3301.348	476.4
3304.387	471.4
3307.425	471.4
3310.459	451.4
3313.492	455.4
3316.521	455.4
3319.549	450.4
3322.574	449.4
3325.597	443.4
3328.617	444.4
3331.635	442.4
3334.65	434.4
3337.663	422.4
3340.674	444.4
3343.682	438.4
3346.688	423.4
3349.691	432.4
3352.692	421.4
3355.691	428.4
3358.687	431.4
3361.681	428.4
3364.673	422.4
3367.662	407.4
3370.649	404.4
3373.633	385.4
3376.615	387.4
3379.595	386.4
3382.572	385.4
3385.547	375.4
3388.52	361.4
3391.49	356.4
3394.458	351.4
3397.424	342.4
3400.387	337.4
3403.348	345.4
3406.307	329.4
3409.263	331.4
3412.217	323.4
3415.168	322.4
3418.118	320.4
3421.065	307.4
3424.009	304.4
3426.951	299.4
3429.891	290.4
3432.829	276.4
3435.764	272.4
3438.697	277.4
3441.628	267.4
3444.557	261.4
3447.483	238.4
3450.407	243.4
3453.328	227.4
3456.247	218.4
3459.164	212.4
3462.079	201.4
3464.991	185.4
3467.902	179.4
3470.809	177.4
3473.715	161.4
3476.618	162.4
3479.519	162.4
3482.418	145.4
3485.315	136.4
3488.209	135.4
3491.101	124.4
3493.99	133.4
3496.878	116.4
3499.763	108.4
3502.646	104.4
3505.527	89.4
3508.405	88.4
3511.281	81.4
3514.155	78.4
3517.027	67.4
3519.897	63.4
3522.764	51.4
3525.629	47.4
3528.492	45.4
3531.352	34.4
3534.211	28.4
3537.067	23.4
3539.921	32.4
3542.773	20.4
3545.622	8.4
3548.469	4.4
3551.315	3.4
3554.157	-7.6
3556.998	-7.6
3559.837	-12.6
3562.673	-15.6
3565.507	-21.6
3568.339	-18.6
3571.169	-32.6
3573.996	-31.6
3576.822	-30.6
3579.645	-35.6
3582.466	-26.6
3585.285	-40.6
3588.101	-33.6
3590.916	-52.6
3593.728	-57.6
3596.538	-53.6
3599.346	-53.6
3602.152	-57.6
3604.956	-53.6
3607.757	-56.6
3610.556	-67.6
3613.354	-66.6
3616.149	-72.6
3618.942	-81.6
3621.732	-73.6
3624.521	-74.6
3627.307	-71.6
3630.092	-73.6
3632.874	-74.6
3635.654	-89.6
3638.432	-78.6
3641.208	-84.6
3643.982	-87.6
3646.753	-91.6
3649.523	-87.6
3652.29	-87.6
3655.055	-90.6
3657.818	-94.6
3660.579	-90.6
3663.338	-89.6
3666.095	-100.6
3668.849	-98.6
3671.602	-99.6
3674.352	-97.6
3677.101	-103.6
3679.847	-106.6
3682.591	-108.6
3685.333	-107.6
3688.073	-102.6
3690.811	-108.6
3693.547	-118.6
3696.281	-113.6
3699.013	-115.6
3701.742	-119.6
3704.47	-113.6
3707.195	-108.6
3709.919	-112.6
3712.64	-110.6
3715.359	-117.6
3718.076	-121.6
3720.792	-119.6
3723.505	-121.6
3726.216	-114.6
3728.925	-118.6
3731.632	-114.6
3734.336	-125.6
3737.039	-118.6
3739.74	-120.6
3742.439	-130.6
3745.136	-118.6
3747.83	-128.6
3750.523	-125.6
3753.213	-126.6
3755.902	-120.6
3758.589	-132.6
3761.273	-121.6
3763.956	-120.6
3766.636	-120.6
3769.315	-118.6
3771.991	-114.6
3774.665	-126.6
3777.338	-120.6
3780.008	-127.6
3782.677	-125.6
3785.343	-121.6
3788.007	-126.6
3790.67	-127.6
3793.33	-125.6
3795.989	-125.6
3798.645	-122.6
3801.299	-122.6
3803.952	-131.6
3806.602	-125.6
3809.251	-129.6
3811.897	-129.6
3814.542	-133.6
3817.184	-125.6
3819.825	-127.6
3822.463	-130.6
3825.1	-128.6
3827.735	-127.6
3830.367	-127.6
3832.998	-129.6
3835.627	-130.6
3838.253	-128.6
3840.878	-129.6
3843.501	-128.6
3846.122	-127.6
3848.741	-132.6
3851.358	-123.6
3853.973	-131.6
3856.586	-129.6
3859.197	-134.6
3861.806	-125.6
3864.414	-131.6
3867.019	-121.6
3869.622	-129.6
3872.224	-117.6
3874.823	-106.6
3877.421	-101.6
3880.016	-75.6
3882.61	-49.6
3885.202	-53.6
3887.792	-76.6
3890.38	-95.6
3892.966	-117.6
3895.55	-126.6
3898.132	-127.6
3900.713	-124.6
3903.291	-133.6
3905.868	-131.6
3908.442	-121.6
3911.015	-130.6
3913.586	-135.6
3916.155	-137.6
3918.722	-131.6
3921.287	-131.6
3923.85	-132.6
3926.411	-131.6
3928.971	-129.6
3931.528	-134.6
3934.084	-129.6
3936.638	-125.6
3939.19	-141.6
3941.74	-132.6
3944.288	-132.6
3946.834	-130.6
3949.378	-130.6
3951.921	-134.6
3954.462	-136.6
3957	-133.6
3959.537	-128.6
3962.072	-128.6
3964.606	-122.6
3967.137	-126.6
3969.667	-133.6
3972.194	-132.6
3974.72	-129.6
3977.244	-133.6
3979.766	-136.6
3982.286	-132.6
3984.805	-131.6
3987.321	-130.6
3989.836	-121.6
3992.349	-131.6
3994.86	-130.6
3997.369	-136.6
3999.877	-130.6
4002.382	-122.6
4004.886	-131.6
4007.388	-127.6
4009.888	-128.6
4012.386	-131.6
4014.883	-130.6
4017.377	-128.6
4019.87	-130.6
4022.361	-126.6
4024.85	-130.6
4027.338	-128.6
4029.823	-124.6
4032.307	-125.6
4034.789	-135.6
4037.269	-132.6
4039.747	-127.6
4042.224	-126.6
4044.699	-125.6
4047.172	-125.6
4049.643	-126.6
4052.112	-133.6
4054.58	-130.6
4057.046	-130.6
4059.51	-130.6
4061.972	-126.6
4064.432	-129.6
4066.891	-125.6
4069.348	-127.6
4071.803	-133.6
4074.256	-131.6
4076.708	-130.6
4079.158	-129.6
4081.606	-124.6
4084.052	-128.6
4086.497	-126.6
4088.939	-120.6
4091.38	-129.6
4093.819	-131.6
4096.257	-134.6
4098.693	-132.6
4101.127	-133.6
4103.559	-130.6
4105.989	13.4
4108.418	4.4
4110.845	4.4
4113.27	-0.6
4115.694	-2.6
4118.115	5.4
4120.535	-135.6
4122.954	-127.6
4125.37	-129.6
4127.785	-130.6
4130.198	-123.6
4132.609	-126.6
4135.019	-135.6
4137.427	-137.6
4139.833	-135.6
4142.237	-140.6
