Data from 2018-2-8_conc=6_n=6_RamanShift_02.txt Node
Date: Mon Mar 12 16:39:27 IST 2018
User: aro
Spectrometer: QEPB0276
Trigger mode: 0
Integration Time (sec): 3.000000E1
Scans to average: 1
Electric dark correction enabled: true
Nonlinearity correction enabled: false
Boxcar width: 0
XAxis mode: Raman Shifts
Number of Pixels in Spectrum: 1044
>>>>>Begin Spectral Data<<<<<
160.701	14.6
166.742	33.6
172.777	115.6
178.805	370.6
184.826	986.6
190.841	2155.6
196.849	3590.6
202.85	4661.6
208.845	5084.6
214.833	5088.6
220.815	5014.6
226.789	5014.6
232.758	5030.6
238.719	5007.6
244.674	4978.6
250.623	4956.6
256.565	4863.6
262.5	4797.6
268.429	4717.6
274.351	4694.6
280.267	4680.6
286.176	4612.6
292.079	4598.6
297.975	4614.6
303.865	4606.6
309.748	4588.6
315.625	4589.6
321.495	4547.6
327.359	4560.6
333.217	4576.6
339.068	4574.6
344.912	4583.6
350.751	4557.6
356.583	4598.6
362.408	4581.6
368.227	4608.6
374.04	4603.6
379.847	4669.6
385.647	4681.6
391.44	4677.6
397.228	4712.6
403.009	4682.6
408.784	4730.6
414.553	4731.6
420.315	4777.6
426.071	4780.6
431.821	4768.6
437.565	4770.6
443.302	4758.6
449.033	4742.6
454.758	4734.6
460.477	4700.6
466.189	4674.6
471.896	4666.6
477.596	4640.6
483.29	4622.6
488.978	4618.6
494.66	4582.6
500.335	4511.6
506.005	4403.6
511.668	4257.6
517.325	4128.6
522.977	4039.6
528.622	3980.6
534.261	3914.6
539.894	3858.6
545.521	3825.6
551.141	3795.6
556.756	3786.6
562.365	3767.6
567.968	3744.6
573.565	3722.6
579.155	3717.6
584.74	3709.6
590.319	3664.6
595.892	3643.6
601.459	3642.6
607.02	3615.6
612.575	3606.6
618.124	3588.6
623.667	3537.6
629.204	3519.6
634.735	3473.6
640.261	3460.6
645.781	3434.6
651.294	3421.6
656.802	3422.6
662.304	3412.6
667.8	3385.6
673.29	3416.6
678.775	3393.6
684.254	3362.6
689.726	3354.6
695.193	3367.6
700.655	3353.6
706.11	3327.6
711.56	3302.6
717.004	3268.6
722.442	3265.6
727.874	3248.6
733.301	3245.6
738.722	3220.6
744.137	3205.6
749.547	3217.6
754.951	3210.6
760.349	3205.6
765.741	3212.6
771.128	3219.6
776.509	3248.6
781.885	3246.6
787.254	3263.6
792.618	3266.6
797.977	3255.6
803.33	3217.6
808.677	3211.6
814.019	3170.6
819.355	3179.6
824.686	3136.6
830.011	3124.6
835.33	3123.6
840.644	3120.6
845.952	3090.6
851.255	3090.6
856.552	3083.6
861.844	3086.6
867.13	3059.6
872.41	3042.6
877.686	3013.6
882.955	2990.6
888.219	2954.6
893.478	2932.6
898.731	2888.6
903.979	2856.6
909.221	2846.6
914.458	2821.6
919.69	2807.6
924.916	2831.6
930.136	2834.6
935.351	2843.6
940.561	2843.6
945.766	2825.6
950.965	2816.6
956.158	2790.6
961.347	2756.6
966.529	2716.6
971.707	2686.6
976.879	2661.6
982.046	2624.6
987.208	2601.6
992.364	2626.6
997.515	2629.6
1002.66	2648.6
1007.801	2681.6
1012.936	2676.6
1018.066	2701.6
1023.19	2690.6
1028.309	2695.6
1033.423	2679.6
1038.532	2671.6
1043.636	2669.6
1048.734	2640.6
1053.827	2629.6
1058.915	2577.6
1063.998	2551.6
1069.075	2539.6
1074.147	2553.6
1079.214	2546.6
1084.276	2581.6
1089.333	2564.6
1094.385	2588.6
1099.431	2582.6
1104.472	2571.6
1109.509	2580.6
1114.54	2543.6
1119.565	2496.6
1124.586	2485.6
1129.602	2436.6
1134.613	2419.6
1139.618	2406.6
1144.619	2384.6
1149.614	2381.6
1154.604	2404.6
1159.589	2427.6
1164.57	2414.6
1169.545	2411.6
1174.515	2438.6
1179.48	2403.6
1184.44	2364.6
1189.395	2362.6
1194.345	2343.6
1199.29	2337.6
1204.23	2335.6
1209.165	2336.6
1214.095	2354.6
1219.021	2366.6
1223.941	2371.6
1228.856	2379.6
1233.766	2388.6
1238.672	2403.6
1243.572	2394.6
1248.467	2390.6
1253.358	2344.6
1258.244	2313.6
1263.124	2267.6
1268	2224.6
1272.871	2226.6
1277.737	2197.6
1282.599	2160.6
1287.455	2169.6
1292.306	2194.6
1297.153	2185.6
1301.995	2204.6
1306.832	2214.6
1311.664	2243.6
1316.491	2235.6
1321.314	2238.6
1326.132	2221.6
1330.945	2191.6
1335.753	2152.6
1340.556	2140.6
1345.354	2100.6
1350.148	2069.6
1354.937	2047.6
1359.722	1989.6
1364.501	1982.6
1369.276	1941.6
1374.046	1913.6
1378.811	1900.6
1383.572	1883.6
1388.327	1887.6
1393.079	1879.6
1397.825	1877.6
1402.567	1873.6
1407.304	1872.6
1412.036	1878.6
1416.764	1873.6
1421.487	1891.6
1426.205	1888.6
1430.919	1894.6
1435.628	1908.6
1440.333	1910.6
1445.032	1928.6
1449.727	1937.6
1454.418	1936.6
1459.104	1947.6
1463.785	1921.6
1468.462	1897.6
1473.134	1866.6
1477.802	1822.6
1482.465	1783.6
1487.123	1749.6
1491.777	1733.6
1496.426	1724.6
1501.071	1698.6
1505.711	1697.6
1510.347	1681.6
1514.978	1708.6
1519.604	1686.6
1524.226	1699.6
1528.844	1681.6
1533.457	1651.6
1538.065	1656.6
1542.669	1648.6
1547.269	1636.6
1551.864	1656.6
1556.454	1662.6
1561.041	1689.6
1565.622	1687.6
1570.199	1700.6
1574.772	1707.6
1579.34	1711.6
1583.904	1738.6
1588.464	1756.6
1593.019	1764.6
1597.569	1772.6
1602.115	1751.6
1606.657	1757.6
1611.195	1740.6
1615.728	1726.6
1620.256	1732.6
1624.78	1735.6
1629.3	1733.6
1633.816	1749.6
1638.327	1777.6
1642.834	1761.6
1647.336	1792.6
1651.834	1773.6
1656.328	1778.6
1660.817	1789.6
1665.302	1745.6
1669.783	1702.6
1674.259	1692.6
1678.732	1637.6
1683.199	1614.6
1687.663	1562.6
1692.122	1506.6
1696.577	1454.6
1701.028	1387.6
1705.474	1345.6
1709.917	1296.6
1714.355	1294.6
1718.788	1267.6
1723.218	1285.6
1727.643	1270.6
1732.064	1261.6
1736.481	1249.6
1740.893	1229.6
1745.301	1196.6
1749.705	1185.6
1754.105	1160.6
1758.501	1136.6
1762.893	1115.6
1767.28	1101.6
1771.663	1099.6
1776.042	1105.6
1780.417	1069.6
1784.787	1057.6
1789.154	1046.6
1793.516	1049.6
1797.874	1016.6
1802.228	1011.6
1806.578	1004.6
1810.924	987.6
1815.266	1001.6
1819.603	993.6
1823.937	968.6
1828.266	984.6
1832.591	997.6
1836.913	987.6
1841.23	989.6
1845.543	987.6
1849.852	980.6
1854.156	976.6
1858.457	986.6
1862.754	981.6
1867.047	967.6
1871.335	980.6
1875.62	995.6
1879.9	980.6
1884.177	971.6
1888.449	955.6
1892.718	949.6
1896.982	954.6
1901.243	915.6
1905.499	915.6
1909.752	898.6
1914	889.6
1918.245	883.6
1922.485	873.6
1926.722	871.6
1930.954	858.6
1935.183	860.6
1939.408	844.6
1943.628	853.6
1947.845	834.6
1952.058	828.6
1956.267	821.6
1960.472	828.6
1964.673	806.6
1968.87	802.6
1973.063	797.6
1977.252	806.6
1981.438	806.6
1985.619	799.6
1989.797	796.6
1993.971	800.6
1998.14	804.6
2002.306	793.6
2006.469	809.6
2010.627	797.6
2014.781	806.6
2018.932	796.6
2023.078	802.6
2027.221	771.6
2031.36	791.6
2035.495	764.6
2039.627	769.6
2043.754	750.6
2047.878	751.6
2051.998	740.6
2056.114	732.6
2060.226	734.6
2064.334	734.6
2068.439	727.6
2072.54	735.6
2076.637	734.6
2080.73	714.6
2084.82	714.6
2088.906	710.6
2092.988	700.6
2097.066	709.6
2101.14	685.6
2105.211	686.6
2109.278	674.6
2113.342	651.6
2117.401	655.6
2121.457	657.6
2125.509	651.6
2129.558	647.6
2133.602	647.6
2137.643	638.6
2141.681	649.6
2145.714	646.6
2149.744	643.6
2153.77	646.6
2157.793	633.6
2161.812	631.6
2165.827	627.6
2169.838	628.6
2173.846	605.6
2177.851	590.6
2181.851	587.6
2185.848	569.6
2189.841	588.6
2193.831	575.6
2197.817	571.6
2201.799	566.6
2205.778	564.6
2209.753	560.6
2213.725	559.6
2217.693	561.6
2221.657	563.6
2225.618	575.6
2229.575	555.6
2233.529	543.6
2237.479	550.6
2241.425	536.6
2245.368	525.6
2249.307	530.6
2253.243	511.6
2257.175	504.6
2261.104	509.6
2265.029	485.6
2268.95	491.6
2272.868	480.6
2276.783	472.6
2280.694	467.6
2284.601	470.6
2288.505	463.6
2292.405	450.6
2296.302	447.6
2300.195	443.6
2304.085	435.6
2307.971	423.6
2311.854	421.6
2315.734	412.6
2319.609	407.6
2323.482	411.6
2327.351	415.6
2331.216	415.6
2335.078	427.6
2338.937	409.6
2342.792	386.6
2346.643	381.6
2350.492	399.6
2354.336	394.6
2358.178	403.6
2362.015	397.6
2365.85	404.6
2369.681	386.6
2373.508	394.6
2377.333	392.6
2381.153	384.6
2384.971	394.6
2388.785	391.6
2392.595	386.6
2396.402	373.6
2400.206	383.6
2404.007	378.6
2407.804	371.6
2411.597	370.6
2415.388	363.6
2419.174	371.6
2422.958	366.6
2426.738	371.6
2430.515	366.6
2434.289	366.6
2438.059	354.6
2441.825	352.6
2445.589	354.6
2449.349	338.6
2453.106	337.6
2456.859	327.6
2460.61	332.6
2464.356	320.6
2468.1	325.6
2471.84	317.6
2475.577	321.6
2479.311	307.6
2483.041	311.6
2486.768	313.6
2490.492	301.6
2494.213	308.6
2497.93	316.6
2501.644	307.6
2505.355	296.6
2509.062	294.6
2512.766	295.6
2516.467	290.6
2520.165	290.6
2523.859	285.6
2527.551	285.6
2531.239	273.6
2534.923	265.6
2538.605	267.6
2542.283	274.6
2545.958	260.6
2549.63	264.6
2553.299	258.6
2556.964	264.6
2560.626	251.6
2564.285	245.6
2567.941	248.6
2571.594	244.6
2575.243	233.6
2578.89	235.6
2582.533	232.6
2586.173	236.6
2589.809	219.6
2593.443	235.6
2597.073	226.6
2600.701	215.6
2604.325	212.6
2607.946	215.6
2611.564	214.6
2615.178	213.6
2618.79	217.6
2622.398	217.6
2626.004	213.6
2629.606	206.6
2633.205	203.6
2636.801	194.6
2640.394	201.6
2643.983	201.6
2647.57	207.6
2651.153	203.6
2654.734	189.6
2658.311	176.6
2661.885	176.6
2665.456	185.6
2669.025	193.6
2672.589	181.6
2676.151	184.6
2679.71	185.6
2683.266	178.6
2686.819	173.6
2690.368	179.6
2693.915	165.6
2697.458	162.6
2700.999	169.6
2704.536	165.6
2708.071	155.6
2711.602	151.6
2715.13	149.6
2718.656	142.6
2722.178	149.6
2725.697	141.6
2729.214	135.6
2732.727	148.6
2736.237	147.6
2739.744	133.6
2743.249	137.6
2746.75	139.6
2750.248	128.6
2753.743	134.6
2757.236	125.6
2760.725	130.6
2764.211	121.6
2767.695	117.6
2771.175	102.6
2774.652	105.6
2778.127	115.6
2781.598	118.6
2785.067	118.6
2788.532	106.6
2791.995	113.6
2795.455	111.6
2798.911	111.6
2802.365	114.6
2805.816	116.6
2809.264	116.6
2812.709	128.6
2816.151	116.6
2819.59	119.6
2823.026	115.6
2826.46	107.6
2829.89	118.6
2833.318	112.6
2836.742	120.6
2840.164	124.6
2843.583	116.6
2846.999	124.6
2850.412	115.6
2853.822	119.6
2857.229	126.6
2860.634	132.6
2864.035	135.6
2867.434	130.6
2870.83	144.6
2874.223	142.6
2877.613	142.6
2881	158.6
2884.385	159.6
2887.766	152.6
2891.145	152.6
2894.521	149.6
2897.894	151.6
2901.264	162.6
2904.631	150.6
2907.996	161.6
2911.358	158.6
2914.717	167.6
2918.073	157.6
2921.426	181.6
2924.777	171.6
2928.124	177.6
2931.469	179.6
2934.811	190.6
2938.15	193.6
2941.487	192.6
2944.821	204.6
2948.152	192.6
2951.48	198.6
2954.805	201.6
2958.128	192.6
2961.447	187.6
2964.765	196.6
2968.079	187.6
2971.39	196.6
2974.699	199.6
2978.005	195.6
2981.308	198.6
2984.609	203.6
2987.907	194.6
2991.202	206.6
2994.494	200.6
2997.784	212.6
3001.07	214.6
3004.355	222.6
3007.636	222.6
3010.915	222.6
3014.191	219.6
3017.464	225.6
3020.734	225.6
3024.002	216.6
3027.267	234.6
3030.53	240.6
3033.789	249.6
3037.046	254.6
3040.301	251.6
3043.552	269.6
3046.801	267.6
3050.048	267.6
3053.291	290.6
3056.532	299.6
3059.771	317.6
3063.006	319.6
3066.239	331.6
3069.469	334.6
3072.697	350.6
3075.922	358.6
3079.144	371.6
3082.364	388.6
3085.581	389.6
3088.795	394.6
3092.007	403.6
3095.216	414.6
3098.423	410.6
3101.627	424.6
3104.828	445.6
3108.026	446.6
3111.222	454.6
3114.416	471.6
3117.607	491.6
3120.795	485.6
3123.98	490.6
3127.163	505.6
3130.344	524.6
3133.521	528.6
3136.696	543.6
3139.869	553.6
3143.039	561.6
3146.206	573.6
3149.371	593.6
3152.533	595.6
3155.693	607.6
3158.85	593.6
3162.005	590.6
3165.157	612.6
3168.306	605.6
3171.453	613.6
3174.597	619.6
3177.739	627.6
3180.878	626.6
3184.014	620.6
3187.149	627.6
3190.28	627.6
3193.409	631.6
3196.536	637.6
3199.659	632.6
3202.781	635.6
3205.9	645.6
3209.016	644.6
3212.13	629.6
3215.241	641.6
3218.35	621.6
3221.456	620.6
3224.56	614.6
3227.661	605.6
3230.76	607.6
3233.856	596.6
3236.95	580.6
3240.041	577.6
3243.13	559.6
3246.216	567.6
3249.3	550.6
3252.382	547.6
3255.46	540.6
3258.537	545.6
3261.611	534.6
3264.682	525.6
3267.751	526.6
3270.818	509.6
3273.882	519.6
3276.943	512.6
3280.002	500.6
3283.059	507.6
3286.113	510.6
3289.165	502.6
3292.214	491.6
3295.261	493.6
3298.306	477.6
3301.348	471.6
3304.387	467.6
3307.425	461.6
3310.459	464.6
3313.492	442.6
3316.521	454.6
3319.549	444.6
3322.574	446.6
3325.597	441.6
3328.617	444.6
3331.635	437.6
3334.65	435.6
3337.663	418.6
3340.674	431.6
3343.682	426.6
3346.688	424.6
3349.691	433.6
3352.692	423.6
3355.691	419.6
3358.687	413.6
3361.681	410.6
3364.673	412.6
3367.662	407.6
3370.649	395.6
3373.633	376.6
3376.615	375.6
3379.595	368.6
3382.572	373.6
3385.547	366.6
3388.52	358.6
3391.49	357.6
3394.458	354.6
3397.424	336.6
3400.387	333.6
3403.348	334.6
3406.307	335.6
3409.263	327.6
3412.217	327.6
3415.168	322.6
3418.118	315.6
3421.065	300.6
3424.009	312.6
3426.951	295.6
3429.891	302.6
3432.829	279.6
3435.764	277.6
3438.697	262.6
3441.628	263.6
3444.557	256.6
3447.483	239.6
3450.407	233.6
3453.328	226.6
3456.247	216.6
3459.164	201.6
3462.079	194.6
3464.991	186.6
3467.902	178.6
3470.809	185.6
3473.715	163.6
3476.618	167.6
3479.519	152.6
3482.418	139.6
3485.315	140.6
3488.209	123.6
3491.101	127.6
3493.99	130.6
3496.878	115.6
3499.763	107.6
3502.646	100.6
3505.527	93.6
3508.405	91.6
3511.281	80.6
3514.155	74.6
3517.027	69.6
3519.897	63.6
3522.764	56.6
3525.629	45.6
3528.492	41.6
3531.352	31.6
3534.211	32.6
3537.067	22.6
3539.921	25.6
3542.773	16.6
3545.622	8.6
3548.469	11.6
3551.315	7.6
3554.157	-3.4
3556.998	-9.4
3559.837	-8.4
3562.673	-16.4
3565.507	-15.4
3568.339	-25.4
3571.169	-32.4
3573.996	-26.4
3576.822	-27.4
3579.645	-27.4
3582.466	-30.4
3585.285	-40.4
3588.101	-30.4
3590.916	-48.4
3593.728	-58.4
3596.538	-55.4
3599.346	-59.4
3602.152	-58.4
3604.956	-57.4
3607.757	-58.4
3610.556	-66.4
3613.354	-60.4
3616.149	-73.4
3618.942	-77.4
3621.732	-72.4
3624.521	-73.4
3627.307	-74.4
3630.092	-76.4
3632.874	-76.4
3635.654	-81.4
3638.432	-78.4
3641.208	-85.4
3643.982	-85.4
3646.753	-93.4
3649.523	-83.4
3652.29	-87.4
3655.055	-92.4
3657.818	-90.4
3660.579	-88.4
3663.338	-92.4
3666.095	-99.4
3668.849	-99.4
3671.602	-100.4
3674.352	-103.4
3677.101	-101.4
3679.847	-100.4
3682.591	-106.4
3685.333	-104.4
3688.073	-102.4
3690.811	-109.4
3693.547	-114.4
3696.281	-109.4
3699.013	-111.4
3701.742	-114.4
3704.47	-114.4
3707.195	-106.4
3709.919	-113.4
3712.64	-120.4
3715.359	-123.4
3718.076	-116.4
3720.792	-113.4
3723.505	-116.4
3726.216	-115.4
3728.925	-117.4
3731.632	-113.4
3734.336	-127.4
3737.039	-115.4
3739.74	-120.4
3742.439	-129.4
3745.136	-115.4
3747.83	-126.4
3750.523	-119.4
3753.213	-121.4
3755.902	-123.4
3758.589	-123.4
3761.273	-117.4
3763.956	-118.4
3766.636	-120.4
3769.315	-117.4
3771.991	-119.4
3774.665	-126.4
3777.338	-120.4
3780.008	-124.4
3782.677	-120.4
3785.343	-121.4
3788.007	-119.4
3790.67	-122.4
3793.33	-119.4
3795.989	-125.4
3798.645	-121.4
3801.299	-124.4
3803.952	-125.4
3806.602	-117.4
3809.251	-126.4
3811.897	-127.4
3814.542	-125.4
3817.184	-123.4
3819.825	-125.4
3822.463	-126.4
3825.1	-122.4
3827.735	-125.4
3830.367	-129.4
3832.998	-126.4
3835.627	-129.4
3838.253	-131.4
3840.878	-128.4
3843.501	-125.4
3846.122	-127.4
3848.741	-127.4
3851.358	-122.4
3853.973	-129.4
3856.586	-127.4
3859.197	-133.4
3861.806	-128.4
3864.414	-130.4
3867.019	-126.4
3869.622	-124.4
3872.224	-113.4
3874.823	-111.4
3877.421	-106.4
3880.016	-86.4
3882.61	-69.4
3885.202	-66.4
3887.792	-79.4
3890.38	-94.4
3892.966	-120.4
3895.55	-125.4
3898.132	-124.4
3900.713	-127.4
3903.291	-126.4
3905.868	-127.4
3908.442	-124.4
3911.015	-130.4
3913.586	-128.4
3916.155	-130.4
3918.722	-127.4
3921.287	-128.4
3923.85	-130.4
3926.411	-129.4
3928.971	-123.4
3931.528	-131.4
3934.084	-127.4
3936.638	-123.4
3939.19	-134.4
3941.74	-133.4
3944.288	-132.4
3946.834	-126.4
3949.378	-124.4
3951.921	-128.4
3954.462	-137.4
3957	-132.4
3959.537	-125.4
3962.072	-129.4
3964.606	-121.4
3967.137	-127.4
3969.667	-124.4
3972.194	-131.4
3974.72	-127.4
3977.244	-126.4
3979.766	-132.4
3982.286	-126.4
3984.805	-129.4
3987.321	-126.4
3989.836	-116.4
3992.349	-126.4
3994.86	-129.4
3997.369	-131.4
3999.877	-132.4
4002.382	-123.4
4004.886	-130.4
4007.388	-126.4
4009.888	-126.4
4012.386	-128.4
4014.883	-125.4
4017.377	-129.4
4019.87	-125.4
4022.361	-128.4
4024.85	-129.4
4027.338	-127.4
4029.823	-125.4
4032.307	-122.4
4034.789	-129.4
4037.269	-127.4
4039.747	-123.4
4042.224	-126.4
4044.699	-127.4
4047.172	-127.4
4049.643	-120.4
4052.112	-129.4
4054.58	-124.4
4057.046	-128.4
4059.51	-129.4
4061.972	-124.4
4064.432	-126.4
4066.891	-126.4
4069.348	-125.4
4071.803	-133.4
4074.256	-128.4
4076.708	-123.4
4079.158	-124.4
4081.606	-117.4
4084.052	-129.4
4086.497	-128.4
4088.939	-118.4
4091.38	-120.4
4093.819	-130.4
4096.257	-134.4
4098.693	-130.4
4101.127	-130.4
4103.559	-129.4
4105.989	-2.4
4108.418	-9.4
4110.845	-12.4
4113.27	-7.4
4115.694	-12.4
4118.115	-12.4
4120.535	-128.4
4122.954	-129.4
4125.37	-127.4
4127.785	-126.4
4130.198	-128.4
4132.609	-127.4
4135.019	-133.4
4137.427	-136.4
4139.833	-131.4
4142.237	-133.4
