Data from 2018-2-8_conc=2_n=4_RamanShift_03.txt Node
Date: Mon Mar 12 14:06:58 IST 2018
User: aro
Spectrometer: QEPB0276
Trigger mode: 0
Integration Time (sec): 3.000000E1
Scans to average: 1
Electric dark correction enabled: true
Nonlinearity correction enabled: false
Boxcar width: 0
XAxis mode: Raman Shifts
Number of Pixels in Spectrum: 1044
>>>>>Begin Spectral Data<<<<<
160.701	5.6
166.742	40.6
172.777	120.6
178.805	385.6
184.826	1064.6
190.841	2280.6
196.849	3786.6
202.85	5027.6
208.845	5468.6
214.833	5467.6
220.815	5408.6
226.789	5377.6
232.758	5399.6
238.719	5366.6
244.674	5331.6
250.623	5292.6
256.565	5203.6
262.5	5131.6
268.429	5047.6
274.351	5029.6
280.267	4973.6
286.176	4940.6
292.079	4937.6
297.975	4901.6
303.865	4880.6
309.748	4869.6
315.625	4853.6
321.495	4866.6
327.359	4853.6
333.217	4841.6
339.068	4860.6
344.912	4848.6
350.751	4841.6
356.583	4852.6
362.408	4866.6
368.227	4888.6
374.04	4871.6
379.847	4919.6
385.647	4920.6
391.44	4950.6
397.228	4964.6
403.009	4977.6
408.784	5000.6
414.553	5034.6
420.315	5029.6
426.071	5042.6
431.821	5029.6
437.565	5007.6
443.302	4986.6
449.033	5009.6
454.758	4983.6
460.477	4967.6
466.189	4925.6
471.896	4885.6
477.596	4887.6
483.29	4869.6
488.978	4851.6
494.66	4863.6
500.335	4781.6
506.005	4668.6
511.668	4528.6
517.325	4425.6
522.977	4321.6
528.622	4243.6
534.261	4190.6
539.894	4146.6
545.521	4105.6
551.141	4132.6
556.756	4046.6
562.365	4032.6
567.968	3967.6
573.565	3990.6
579.155	3986.6
584.74	3968.6
590.319	3947.6
595.892	3937.6
601.459	3908.6
607.02	3900.6
612.575	3876.6
618.124	3816.6
623.667	3813.6
629.204	3793.6
634.735	3758.6
640.261	3717.6
645.781	3712.6
651.294	3682.6
656.802	3709.6
662.304	3691.6
667.8	3643.6
673.29	3669.6
678.775	3665.6
684.254	3634.6
689.726	3615.6
695.193	3600.6
700.655	3604.6
706.11	3579.6
711.56	3545.6
717.004	3527.6
722.442	3503.6
727.874	3507.6
733.301	3493.6
738.722	3461.6
744.137	3457.6
749.547	3471.6
754.951	3446.6
760.349	3463.6
765.741	3467.6
771.128	3474.6
776.509	3481.6
781.885	3526.6
787.254	3493.6
792.618	3503.6
797.977	3501.6
803.33	3449.6
808.677	3434.6
814.019	3413.6
819.355	3387.6
824.686	3391.6
830.011	3355.6
835.33	3368.6
840.644	3354.6
845.952	3374.6
851.255	3327.6
856.552	3312.6
861.844	3308.6
867.13	3300.6
872.41	3274.6
877.686	3250.6
882.955	3228.6
888.219	3185.6
893.478	3172.6
898.731	3126.6
903.979	3099.6
909.221	3067.6
914.458	3043.6
919.69	3053.6
924.916	3046.6
930.136	3061.6
935.351	3056.6
940.561	3057.6
945.766	3050.6
950.965	3030.6
956.158	3032.6
961.347	2997.6
966.529	2943.6
971.707	2898.6
976.879	2859.6
982.046	2839.6
987.208	2819.6
992.364	2843.6
997.515	2853.6
1002.66	2870.6
1007.801	2905.6
1012.936	2908.6
1018.066	2895.6
1023.19	2933.6
1028.309	2905.6
1033.423	2931.6
1038.532	2909.6
1043.636	2891.6
1048.734	2866.6
1053.827	2826.6
1058.915	2794.6
1063.998	2765.6
1069.075	2741.6
1074.147	2776.6
1079.214	2766.6
1084.276	2780.6
1089.333	2787.6
1094.385	2797.6
1099.431	2796.6
1104.472	2790.6
1109.509	2773.6
1114.54	2745.6
1119.565	2700.6
1124.586	2650.6
1129.602	2616.6
1134.613	2600.6
1139.618	2584.6
1144.619	2585.6
1149.614	2583.6
1154.604	2581.6
1159.589	2613.6
1164.57	2598.6
1169.545	2614.6
1174.515	2608.6
1179.48	2580.6
1184.44	2561.6
1189.395	2563.6
1194.345	2531.6
1199.29	2527.6
1204.23	2528.6
1209.165	2528.6
1214.095	2537.6
1219.021	2556.6
1223.941	2564.6
1228.856	2589.6
1233.766	2579.6
1238.672	2584.6
1243.572	2590.6
1248.467	2566.6
1253.358	2554.6
1258.244	2506.6
1263.124	2450.6
1268	2413.6
1272.871	2400.6
1277.737	2383.6
1282.599	2351.6
1287.455	2359.6
1292.306	2355.6
1297.153	2390.6
1301.995	2388.6
1306.832	2420.6
1311.664	2435.6
1316.491	2443.6
1321.314	2419.6
1326.132	2406.6
1330.945	2394.6
1335.753	2333.6
1340.556	2302.6
1345.354	2284.6
1350.148	2216.6
1354.937	2189.6
1359.722	2148.6
1364.501	2110.6
1369.276	2077.6
1374.046	2052.6
1378.811	2015.6
1383.572	1992.6
1388.327	2002.6
1393.079	2006.6
1397.825	2010.6
1402.567	2006.6
1407.304	2015.6
1412.036	2030.6
1416.764	2040.6
1421.487	2022.6
1426.205	2021.6
1430.919	2054.6
1435.628	2020.6
1440.333	2065.6
1445.032	2097.6
1449.727	2095.6
1454.418	2096.6
1459.104	2102.6
1463.785	2059.6
1468.462	2042.6
1473.134	1997.6
1477.802	1960.6
1482.465	1896.6
1487.123	1873.6
1491.777	1838.6
1496.426	1827.6
1501.071	1793.6
1505.711	1801.6
1510.347	1798.6
1514.978	1787.6
1519.604	1777.6
1524.226	1794.6
1528.844	1758.6
1533.457	1739.6
1538.065	1748.6
1542.669	1746.6
1547.269	1755.6
1551.864	1751.6
1556.454	1775.6
1561.041	1794.6
1565.622	1797.6
1570.199	1808.6
1574.772	1821.6
1579.34	1838.6
1583.904	1851.6
1588.464	1870.6
1593.019	1853.6
1597.569	1888.6
1602.115	1897.6
1606.657	1873.6
1611.195	1884.6
1615.728	1860.6
1620.256	1834.6
1624.78	1864.6
1629.3	1858.6
1633.816	1845.6
1638.327	1879.6
1642.834	1882.6
1647.336	1898.6
1651.834	1904.6
1656.328	1878.6
1660.817	1884.6
1665.302	1851.6
1669.783	1817.6
1674.259	1799.6
1678.732	1765.6
1683.199	1704.6
1687.663	1657.6
1692.122	1594.6
1696.577	1516.6
1701.028	1454.6
1705.474	1380.6
1709.917	1358.6
1714.355	1323.6
1718.788	1330.6
1723.218	1335.6
1727.643	1324.6
1732.064	1344.6
1736.481	1307.6
1740.893	1287.6
1745.301	1262.6
1749.705	1234.6
1754.105	1212.6
1758.501	1188.6
1762.893	1159.6
1767.28	1167.6
1771.663	1148.6
1776.042	1142.6
1780.417	1121.6
1784.787	1105.6
1789.154	1118.6
1793.516	1087.6
1797.874	1079.6
1802.228	1065.6
1806.578	1055.6
1810.924	1028.6
1815.266	1011.6
1819.603	1031.6
1823.937	1031.6
1828.266	1014.6
1832.591	1012.6
1836.913	1031.6
1841.23	1036.6
1845.543	1033.6
1849.852	1025.6
1854.156	1030.6
1858.457	1025.6
1862.754	1021.6
1867.047	1032.6
1871.335	1030.6
1875.62	1016.6
1879.9	1031.6
1884.177	1022.6
1888.449	998.6
1892.718	983.6
1896.982	969.6
1901.243	965.6
1905.499	950.6
1909.752	938.6
1914	921.6
1918.245	927.6
1922.485	908.6
1926.722	897.6
1930.954	889.6
1935.183	865.6
1939.408	872.6
1943.628	862.6
1947.845	850.6
1952.058	852.6
1956.267	855.6
1960.472	840.6
1964.673	836.6
1968.87	820.6
1973.063	821.6
1977.252	808.6
1981.438	821.6
1985.619	838.6
1989.797	822.6
1993.971	823.6
1998.14	824.6
2002.306	833.6
2006.469	822.6
2010.627	836.6
2014.781	841.6
2018.932	836.6
2023.078	835.6
2027.221	823.6
2031.36	821.6
2035.495	801.6
2039.627	786.6
2043.754	795.6
2047.878	780.6
2051.998	780.6
2056.114	759.6
2060.226	755.6
2064.334	760.6
2068.439	757.6
2072.54	748.6
2076.637	755.6
2080.73	744.6
2084.82	756.6
2088.906	745.6
2092.988	736.6
2097.066	732.6
2101.14	718.6
2105.211	699.6
2109.278	688.6
2113.342	690.6
2117.401	695.6
2121.457	685.6
2125.509	682.6
2129.558	669.6
2133.602	663.6
2137.643	675.6
2141.681	672.6
2145.714	679.6
2149.744	669.6
2153.77	676.6
2157.793	661.6
2161.812	668.6
2165.827	652.6
2169.838	647.6
2173.846	636.6
2177.851	620.6
2181.851	612.6
2185.848	603.6
2189.841	616.6
2193.831	599.6
2197.817	597.6
2201.799	594.6
2205.778	601.6
2209.753	597.6
2213.725	591.6
2217.693	603.6
2221.657	595.6
2225.618	598.6
2229.575	596.6
2233.529	574.6
2237.479	578.6
2241.425	561.6
2245.368	556.6
2249.307	551.6
2253.243	548.6
2257.175	540.6
2261.104	528.6
2265.029	517.6
2268.95	521.6
2272.868	506.6
2276.783	504.6
2280.694	497.6
2284.601	496.6
2288.505	491.6
2292.405	482.6
2296.302	470.6
2300.195	482.6
2304.085	462.6
2307.971	459.6
2311.854	449.6
2315.734	442.6
2319.609	432.6
2323.482	445.6
2327.351	447.6
2331.216	451.6
2335.078	456.6
2338.937	444.6
2342.792	428.6
2346.643	428.6
2350.492	422.6
2354.336	418.6
2358.178	425.6
2362.015	424.6
2365.85	434.6
2369.681	434.6
2373.508	434.6
2377.333	425.6
2381.153	411.6
2384.971	432.6
2388.785	432.6
2392.595	420.6
2396.402	418.6
2400.206	413.6
2404.007	406.6
2407.804	413.6
2411.597	408.6
2415.388	393.6
2419.174	410.6
2422.958	404.6
2426.738	396.6
2430.515	401.6
2434.289	402.6
2438.059	386.6
2441.825	386.6
2445.589	379.6
2449.349	373.6
2453.106	374.6
2456.859	369.6
2460.61	370.6
2464.356	353.6
2468.1	352.6
2471.84	340.6
2475.577	345.6
2479.311	335.6
2483.041	345.6
2486.768	347.6
2490.492	345.6
2494.213	336.6
2497.93	340.6
2501.644	336.6
2505.355	323.6
2509.062	316.6
2512.766	331.6
2516.467	317.6
2520.165	319.6
2523.859	312.6
2527.551	313.6
2531.239	290.6
2534.923	288.6
2538.605	284.6
2542.283	284.6
2545.958	278.6
2549.63	289.6
2553.299	272.6
2556.964	286.6
2560.626	270.6
2564.285	276.6
2567.941	257.6
2571.594	266.6
2575.243	269.6
2578.89	265.6
2582.533	262.6
2586.173	251.6
2589.809	240.6
2593.443	252.6
2597.073	238.6
2600.701	236.6
2604.325	239.6
2607.946	240.6
2611.564	244.6
2615.178	240.6
2618.79	232.6
2622.398	235.6
2626.004	228.6
2629.606	228.6
2633.205	213.6
2636.801	230.6
2640.394	231.6
2643.983	223.6
2647.57	229.6
2651.153	211.6
2654.734	212.6
2658.311	212.6
2661.885	196.6
2665.456	212.6
2669.025	208.6
2672.589	214.6
2676.151	206.6
2679.71	203.6
2683.266	203.6
2686.819	195.6
2690.368	195.6
2693.915	177.6
2697.458	185.6
2700.999	181.6
2704.536	189.6
2708.071	173.6
2711.602	174.6
2715.13	172.6
2718.656	163.6
2722.178	165.6
2725.697	158.6
2729.214	152.6
2732.727	157.6
2736.237	152.6
2739.744	144.6
2743.249	151.6
2746.75	147.6
2750.248	145.6
2753.743	138.6
2757.236	132.6
2760.725	135.6
2764.211	125.6
2767.695	129.6
2771.175	119.6
2774.652	119.6
2778.127	124.6
2781.598	118.6
2785.067	128.6
2788.532	130.6
2791.995	125.6
2795.455	126.6
2798.911	122.6
2802.365	132.6
2805.816	135.6
2809.264	118.6
2812.709	129.6
2816.151	128.6
2819.59	137.6
2823.026	152.6
2826.46	152.6
2829.89	133.6
2833.318	122.6
2836.742	132.6
2840.164	124.6
2843.583	131.6
2846.999	135.6
2850.412	135.6
2853.822	132.6
2857.229	135.6
2860.634	140.6
2864.035	142.6
2867.434	150.6
2870.83	152.6
2874.223	158.6
2877.613	172.6
2881	178.6
2884.385	175.6
2887.766	172.6
2891.145	164.6
2894.521	168.6
2897.894	169.6
2901.264	173.6
2904.631	178.6
2907.996	180.6
2911.358	182.6
2914.717	183.6
2918.073	189.6
2921.426	188.6
2924.777	199.6
2928.124	207.6
2931.469	203.6
2934.811	218.6
2938.15	223.6
2941.487	217.6
2944.821	218.6
2948.152	219.6
2951.48	225.6
2954.805	216.6
2958.128	216.6
2961.447	209.6
2964.765	217.6
2968.079	209.6
2971.39	208.6
2974.699	216.6
2978.005	218.6
2981.308	221.6
2984.609	220.6
2987.907	219.6
2991.202	223.6
2994.494	222.6
2997.784	232.6
3001.07	240.6
3004.355	240.6
3007.636	233.6
3010.915	238.6
3014.191	242.6
3017.464	255.6
3020.734	249.6
3024.002	237.6
3027.267	255.6
3030.53	258.6
3033.789	253.6
3037.046	272.6
3040.301	277.6
3043.552	292.6
3046.801	295.6
3050.048	299.6
3053.291	309.6
3056.532	320.6
3059.771	328.6
3063.006	341.6
3066.239	358.6
3069.469	369.6
3072.697	375.6
3075.922	386.6
3079.144	405.6
3082.364	403.6
3085.581	420.6
3088.795	424.6
3092.007	436.6
3095.216	443.6
3098.423	448.6
3101.627	459.6
3104.828	456.6
3108.026	476.6
3111.222	489.6
3114.416	491.6
3117.607	513.6
3120.795	504.6
3123.98	535.6
3127.163	550.6
3130.344	558.6
3133.521	570.6
3136.696	579.6
3139.869	581.6
3143.039	611.6
3146.206	615.6
3149.371	615.6
3152.533	634.6
3155.693	626.6
3158.85	630.6
3162.005	635.6
3165.157	638.6
3168.306	638.6
3171.453	645.6
3174.597	653.6
3177.739	644.6
3180.878	658.6
3184.014	675.6
3187.149	663.6
3190.28	673.6
3193.409	669.6
3196.536	664.6
3199.659	685.6
3202.781	671.6
3205.9	686.6
3209.016	683.6
3212.13	667.6
3215.241	670.6
3218.35	669.6
3221.456	657.6
3224.56	642.6
3227.661	646.6
3230.76	623.6
3233.856	616.6
3236.95	616.6
3240.041	615.6
3243.13	591.6
3246.216	581.6
3249.3	580.6
3252.382	573.6
3255.46	570.6
3258.537	556.6
3261.611	562.6
3264.682	553.6
3267.751	559.6
3270.818	546.6
3273.882	545.6
3276.943	535.6
3280.002	540.6
3283.059	542.6
3286.113	533.6
3289.165	517.6
3292.214	530.6
3295.261	514.6
3298.306	514.6
3301.348	499.6
3304.387	496.6
3307.425	486.6
3310.459	479.6
3313.492	471.6
3316.521	477.6
3319.549	478.6
3322.574	464.6
3325.597	475.6
3328.617	461.6
3331.635	458.6
3334.65	460.6
3337.663	453.6
3340.674	458.6
3343.682	458.6
3346.688	471.6
3349.691	446.6
3352.692	457.6
3355.691	445.6
3358.687	443.6
3361.681	448.6
3364.673	440.6
3367.662	434.6
3370.649	422.6
3373.633	424.6
3376.615	408.6
3379.595	397.6
3382.572	406.6
3385.547	384.6
3388.52	381.6
3391.49	373.6
3394.458	367.6
3397.424	360.6
3400.387	354.6
3403.348	351.6
3406.307	345.6
3409.263	350.6
3412.217	349.6
3415.168	342.6
3418.118	344.6
3421.065	332.6
3424.009	328.6
3426.951	316.6
3429.891	310.6
3432.829	310.6
3435.764	306.6
3438.697	279.6
3441.628	277.6
3444.557	261.6
3447.483	261.6
3450.407	243.6
3453.328	236.6
3456.247	239.6
3459.164	222.6
3462.079	203.6
3464.991	202.6
3467.902	192.6
3470.809	184.6
3473.715	171.6
3476.618	161.6
3479.519	160.6
3482.418	160.6
3485.315	151.6
3488.209	135.6
3491.101	138.6
3493.99	135.6
3496.878	126.6
3499.763	122.6
3502.646	112.6
3505.527	100.6
3508.405	96.6
3511.281	84.6
3514.155	83.6
3517.027	78.6
3519.897	67.6
3522.764	64.6
3525.629	60.6
3528.492	47.6
3531.352	42.6
3534.211	31.6
3537.067	27.6
3539.921	27.6
3542.773	22.6
3545.622	13.6
3548.469	6.6
3551.315	5.6
3554.157	5.6
3556.998	-7.4
3559.837	-12.4
3562.673	-14.4
3565.507	-14.4
3568.339	-18.4
3571.169	-33.4
3573.996	-31.4
3576.822	-30.4
3579.645	-33.4
3582.466	-35.4
3585.285	-39.4
3588.101	-31.4
3590.916	-45.4
3593.728	-57.4
3596.538	-53.4
3599.346	-54.4
3602.152	-57.4
3604.956	-60.4
3607.757	-60.4
3610.556	-63.4
3613.354	-63.4
3616.149	-73.4
3618.942	-71.4
3621.732	-73.4
3624.521	-77.4
3627.307	-77.4
3630.092	-78.4
3632.874	-75.4
3635.654	-75.4
3638.432	-74.4
3641.208	-80.4
3643.982	-88.4
3646.753	-92.4
3649.523	-94.4
3652.29	-85.4
3655.055	-85.4
3657.818	-90.4
3660.579	-89.4
3663.338	-95.4
3666.095	-101.4
3668.849	-105.4
3671.602	-97.4
3674.352	-102.4
3677.101	-101.4
3679.847	-106.4
3682.591	-109.4
3685.333	-103.4
3688.073	-110.4
3690.811	-110.4
3693.547	-115.4
3696.281	-111.4
3699.013	-108.4
3701.742	-114.4
3704.47	-113.4
3707.195	-109.4
3709.919	-117.4
3712.64	-116.4
3715.359	-122.4
3718.076	-119.4
3720.792	-117.4
3723.505	-123.4
3726.216	-118.4
3728.925	-119.4
3731.632	-118.4
3734.336	-131.4
3737.039	-123.4
3739.74	-123.4
3742.439	-130.4
3745.136	-114.4
3747.83	-124.4
3750.523	-125.4
3753.213	-134.4
3755.902	-123.4
3758.589	-131.4
3761.273	-125.4
3763.956	-122.4
3766.636	-122.4
3769.315	-115.4
3771.991	-121.4
3774.665	-129.4
3777.338	-123.4
3780.008	-123.4
3782.677	-125.4
3785.343	-127.4
3788.007	-129.4
3790.67	-127.4
3793.33	-125.4
3795.989	-127.4
3798.645	-123.4
3801.299	-129.4
3803.952	-135.4
3806.602	-124.4
3809.251	-131.4
3811.897	-132.4
3814.542	-129.4
3817.184	-124.4
3819.825	-127.4
3822.463	-128.4
3825.1	-126.4
3827.735	-135.4
3830.367	-128.4
3832.998	-127.4
3835.627	-128.4
3838.253	-125.4
3840.878	-127.4
3843.501	-125.4
3846.122	-128.4
3848.741	-136.4
3851.358	-129.4
3853.973	-137.4
3856.586	-125.4
3859.197	-137.4
3861.806	-128.4
3864.414	-130.4
3867.019	-131.4
3869.622	-131.4
3872.224	-123.4
3874.823	-116.4
3877.421	-107.4
3880.016	-83.4
3882.61	-68.4
3885.202	-67.4
3887.792	-83.4
3890.38	-103.4
3892.966	-121.4
3895.55	-129.4
3898.132	-127.4
3900.713	-129.4
3903.291	-130.4
3905.868	-134.4
3908.442	-128.4
3911.015	-137.4
3913.586	-133.4
3916.155	-135.4
3918.722	-134.4
3921.287	-131.4
3923.85	-129.4
3926.411	-134.4
3928.971	-130.4
3931.528	-133.4
3934.084	-135.4
3936.638	-125.4
3939.19	-133.4
3941.74	-136.4
3944.288	-135.4
3946.834	-129.4
3949.378	-130.4
3951.921	-133.4
3954.462	-140.4
3957	-133.4
3959.537	-132.4
3962.072	-137.4
3964.606	-127.4
3967.137	-129.4
3969.667	-129.4
3972.194	-139.4
3974.72	-131.4
3977.244	-135.4
3979.766	-135.4
3982.286	-129.4
3984.805	-130.4
3987.321	-129.4
3989.836	-126.4
3992.349	-128.4
3994.86	-133.4
3997.369	-132.4
3999.877	-129.4
4002.382	-127.4
4004.886	-136.4
4007.388	-126.4
4009.888	-126.4
4012.386	-130.4
4014.883	-133.4
4017.377	-130.4
4019.87	-130.4
4022.361	-140.4
4024.85	-129.4
4027.338	-127.4
4029.823	-129.4
4032.307	-128.4
4034.789	-134.4
4037.269	-129.4
4039.747	-126.4
4042.224	-132.4
4044.699	-133.4
4047.172	-129.4
4049.643	-122.4
4052.112	-131.4
4054.58	-130.4
4057.046	-132.4
4059.51	-134.4
4061.972	-135.4
4064.432	-124.4
4066.891	-132.4
4069.348	-128.4
4071.803	-131.4
4074.256	-130.4
4076.708	-127.4
4079.158	-127.4
4081.606	-128.4
4084.052	-134.4
4086.497	-129.4
4088.939	-123.4
4091.38	-125.4
4093.819	-128.4
4096.257	-136.4
4098.693	-134.4
4101.127	-140.4
4103.559	-136.4
4105.989	-5.4
4108.418	-13.4
4110.845	-13.4
4113.27	-8.4
4115.694	-11.4
4118.115	-16.4
4120.535	-131.4
4122.954	-133.4
4125.37	-134.4
4127.785	-131.4
4130.198	-128.4
4132.609	-129.4
4135.019	-137.4
4137.427	-138.4
4139.833	-138.4
4142.237	-138.4
