Data from 2018-2-8_conc=0_n=1_RamanShift_05.txt Node
Date: Mon Mar 12 13:18:29 IST 2018
User: aro
Spectrometer: QEPB0276
Trigger mode: 0
Integration Time (sec): 3.000000E1
Scans to average: 1
Electric dark correction enabled: true
Nonlinearity correction enabled: false
Boxcar width: 0
XAxis mode: Raman Shifts
Number of Pixels in Spectrum: 1044
>>>>>Begin Spectral Data<<<<<
160.701	6.6
166.742	47.6
172.777	147.6
178.805	459.6
184.826	1264.6
190.841	2723.6
196.849	4521.6
202.85	5857.6
208.845	6415.6
214.833	6423.6
220.815	6385.6
226.789	6317.6
232.758	6316.6
238.719	6296.6
244.674	6291.6
250.623	6193.6
256.565	6102.6
262.5	6011.6
268.429	5956.6
274.351	5869.6
280.267	5824.6
286.176	5780.6
292.079	5768.6
297.975	5732.6
303.865	5706.6
309.748	5664.6
315.625	5667.6
321.495	5640.6
327.359	5604.6
333.217	5628.6
339.068	5633.6
344.912	5643.6
350.751	5665.6
356.583	5666.6
362.408	5677.6
368.227	5677.6
374.04	5671.6
379.847	5701.6
385.647	5748.6
391.44	5732.6
397.228	5742.6
403.009	5807.6
408.784	5799.6
414.553	5826.6
420.315	5828.6
426.071	5837.6
431.821	5863.6
437.565	5851.6
443.302	5839.6
449.033	5828.6
454.758	5805.6
460.477	5786.6
466.189	5760.6
471.896	5716.6
477.596	5672.6
483.29	5663.6
488.978	5662.6
494.66	5649.6
500.335	5578.6
506.005	5442.6
511.668	5332.6
517.325	5168.6
522.977	5089.6
528.622	5007.6
534.261	4953.6
539.894	4919.6
545.521	4880.6
551.141	4838.6
556.756	4778.6
562.365	4753.6
567.968	4746.6
573.565	4736.6
579.155	4728.6
584.74	4695.6
590.319	4672.6
595.892	4661.6
601.459	4660.6
607.02	4604.6
612.575	4611.6
618.124	4563.6
623.667	4532.6
629.204	4505.6
634.735	4457.6
640.261	4417.6
645.781	4412.6
651.294	4401.6
656.802	4407.6
662.304	4401.6
667.8	4369.6
673.29	4354.6
678.775	4356.6
684.254	4328.6
689.726	4299.6
695.193	4308.6
700.655	4262.6
706.11	4250.6
711.56	4208.6
717.004	4212.6
722.442	4166.6
727.874	4178.6
733.301	4149.6
738.722	4131.6
744.137	4128.6
749.547	4120.6
754.951	4105.6
760.349	4118.6
765.741	4109.6
771.128	4107.6
776.509	4131.6
781.885	4200.6
787.254	4153.6
792.618	4190.6
797.977	4115.6
803.33	4105.6
808.677	4100.6
814.019	4037.6
819.355	4019.6
824.686	3997.6
830.011	3965.6
835.33	3978.6
840.644	3960.6
845.952	3955.6
851.255	3943.6
856.552	3931.6
861.844	3928.6
867.13	3949.6
872.41	3934.6
877.686	3888.6
882.955	3871.6
888.219	3846.6
893.478	3768.6
898.731	3729.6
903.979	3673.6
909.221	3663.6
914.458	3622.6
919.69	3611.6
924.916	3602.6
930.136	3631.6
935.351	3619.6
940.561	3639.6
945.766	3625.6
950.965	3616.6
956.158	3574.6
961.347	3555.6
966.529	3493.6
971.707	3425.6
976.879	3398.6
982.046	3376.6
987.208	3376.6
992.364	3377.6
997.515	3369.6
1002.66	3404.6
1007.801	3441.6
1012.936	3451.6
1018.066	3459.6
1023.19	3455.6
1028.309	3459.6
1033.423	3475.6
1038.532	3467.6
1043.636	3445.6
1048.734	3371.6
1053.827	3352.6
1058.915	3300.6
1063.998	3264.6
1069.075	3278.6
1074.147	3271.6
1079.214	3265.6
1084.276	3290.6
1089.333	3300.6
1094.385	3311.6
1099.431	3342.6
1104.472	3309.6
1109.509	3301.6
1114.54	3234.6
1119.565	3225.6
1124.586	3147.6
1129.602	3116.6
1134.613	3090.6
1139.618	3072.6
1144.619	3064.6
1149.614	3052.6
1154.604	3064.6
1159.589	3069.6
1164.57	3103.6
1169.545	3107.6
1174.515	3096.6
1179.48	3077.6
1184.44	3072.6
1189.395	3038.6
1194.345	3004.6
1199.29	3007.6
1204.23	2985.6
1209.165	2990.6
1214.095	3013.6
1219.021	3025.6
1223.941	3034.6
1228.856	3055.6
1233.766	3038.6
1238.672	3049.6
1243.572	3049.6
1248.467	3044.6
1253.358	3025.6
1258.244	2962.6
1263.124	2916.6
1268	2846.6
1272.871	2817.6
1277.737	2810.6
1282.599	2791.6
1287.455	2785.6
1292.306	2803.6
1297.153	2806.6
1301.995	2818.6
1306.832	2817.6
1311.664	2848.6
1316.491	2830.6
1321.314	2839.6
1326.132	2822.6
1330.945	2787.6
1335.753	2740.6
1340.556	2699.6
1345.354	2639.6
1350.148	2632.6
1354.937	2578.6
1359.722	2547.6
1364.501	2523.6
1369.276	2465.6
1374.046	2426.6
1378.811	2377.6
1383.572	2402.6
1388.327	2382.6
1393.079	2394.6
1397.825	2398.6
1402.567	2402.6
1407.304	2372.6
1412.036	2397.6
1416.764	2401.6
1421.487	2403.6
1426.205	2416.6
1430.919	2394.6
1435.628	2425.6
1440.333	2449.6
1445.032	2445.6
1449.727	2464.6
1454.418	2485.6
1459.104	2484.6
1463.785	2443.6
1468.462	2395.6
1473.134	2344.6
1477.802	2298.6
1482.465	2247.6
1487.123	2185.6
1491.777	2158.6
1496.426	2146.6
1501.071	2115.6
1505.711	2088.6
1510.347	2104.6
1514.978	2084.6
1519.604	2090.6
1524.226	2084.6
1528.844	2080.6
1533.457	2070.6
1538.065	2042.6
1542.669	2059.6
1547.269	2053.6
1551.864	2069.6
1556.454	2072.6
1561.041	2088.6
1565.622	2105.6
1570.199	2120.6
1574.772	2134.6
1579.34	2169.6
1583.904	2189.6
1588.464	2227.6
1593.019	2228.6
1597.569	2218.6
1602.115	2205.6
1606.657	2209.6
1611.195	2194.6
1615.728	2174.6
1620.256	2213.6
1624.78	2179.6
1629.3	2184.6
1633.816	2194.6
1638.327	2179.6
1642.834	2213.6
1647.336	2217.6
1651.834	2208.6
1656.328	2214.6
1660.817	2193.6
1665.302	2186.6
1669.783	2135.6
1674.259	2101.6
1678.732	2036.6
1683.199	1970.6
1687.663	1888.6
1692.122	1833.6
1696.577	1753.6
1701.028	1687.6
1705.474	1631.6
1709.917	1577.6
1714.355	1564.6
1718.788	1541.6
1723.218	1542.6
1727.643	1547.6
1732.064	1540.6
1736.481	1525.6
1740.893	1486.6
1745.301	1470.6
1749.705	1431.6
1754.105	1409.6
1758.501	1383.6
1762.893	1358.6
1767.28	1369.6
1771.663	1330.6
1776.042	1323.6
1780.417	1297.6
1784.787	1283.6
1789.154	1266.6
1793.516	1272.6
1797.874	1230.6
1802.228	1228.6
1806.578	1224.6
1810.924	1219.6
1815.266	1194.6
1819.603	1201.6
1823.937	1196.6
1828.266	1195.6
1832.591	1204.6
1836.913	1195.6
1841.23	1184.6
1845.543	1196.6
1849.852	1186.6
1854.156	1193.6
1858.457	1179.6
1862.754	1188.6
1867.047	1183.6
1871.335	1191.6
1875.62	1183.6
1879.9	1183.6
1884.177	1164.6
1888.449	1161.6
1892.718	1147.6
1896.982	1117.6
1901.243	1117.6
1905.499	1096.6
1909.752	1076.6
1914	1054.6
1918.245	1057.6
1922.485	1025.6
1926.722	1027.6
1930.954	1020.6
1935.183	1013.6
1939.408	1003.6
1943.628	1017.6
1947.845	997.6
1952.058	977.6
1956.267	993.6
1960.472	967.6
1964.673	971.6
1968.87	954.6
1973.063	956.6
1977.252	952.6
1981.438	954.6
1985.619	952.6
1989.797	952.6
1993.971	950.6
1998.14	955.6
2002.306	946.6
2006.469	966.6
2010.627	959.6
2014.781	968.6
2018.932	955.6
2023.078	970.6
2027.221	953.6
2031.36	946.6
2035.495	935.6
2039.627	914.6
2043.754	910.6
2047.878	910.6
2051.998	889.6
2056.114	879.6
2060.226	888.6
2064.334	877.6
2068.439	874.6
2072.54	873.6
2076.637	869.6
2080.73	870.6
2084.82	866.6
2088.906	846.6
2092.988	854.6
2097.066	824.6
2101.14	821.6
2105.211	821.6
2109.278	799.6
2113.342	782.6
2117.401	773.6
2121.457	785.6
2125.509	781.6
2129.558	770.6
2133.602	772.6
2137.643	790.6
2141.681	763.6
2145.714	768.6
2149.744	773.6
2153.77	757.6
2157.793	765.6
2161.812	761.6
2165.827	755.6
2169.838	745.6
2173.846	732.6
2177.851	718.6
2181.851	709.6
2185.848	706.6
2189.841	704.6
2193.831	693.6
2197.817	688.6
2201.799	687.6
2205.778	682.6
2209.753	686.6
2213.725	690.6
2217.693	673.6
2221.657	670.6
2225.618	678.6
2229.575	686.6
2233.529	667.6
2237.479	673.6
2241.425	656.6
2245.368	636.6
2249.307	630.6
2253.243	624.6
2257.175	625.6
2261.104	625.6
2265.029	607.6
2268.95	601.6
2272.868	586.6
2276.783	583.6
2280.694	578.6
2284.601	577.6
2288.505	566.6
2292.405	563.6
2296.302	543.6
2300.195	547.6
2304.085	548.6
2307.971	530.6
2311.854	531.6
2315.734	510.6
2319.609	508.6
2323.482	493.6
2327.351	499.6
2331.216	509.6
2335.078	520.6
2338.937	502.6
2342.792	482.6
2346.643	482.6
2350.492	490.6
2354.336	486.6
2358.178	487.6
2362.015	484.6
2365.85	494.6
2369.681	492.6
2373.508	493.6
2377.333	493.6
2381.153	481.6
2384.971	494.6
2388.785	481.6
2392.595	483.6
2396.402	473.6
2400.206	476.6
2404.007	468.6
2407.804	477.6
2411.597	472.6
2415.388	451.6
2419.174	452.6
2422.958	448.6
2426.738	449.6
2430.515	444.6
2434.289	447.6
2438.059	447.6
2441.825	435.6
2445.589	437.6
2449.349	423.6
2453.106	425.6
2456.859	424.6
2460.61	411.6
2464.356	403.6
2468.1	400.6
2471.84	386.6
2475.577	398.6
2479.311	380.6
2483.041	375.6
2486.768	383.6
2490.492	379.6
2494.213	377.6
2497.93	373.6
2501.644	378.6
2505.355	365.6
2509.062	359.6
2512.766	368.6
2516.467	353.6
2520.165	350.6
2523.859	352.6
2527.551	340.6
2531.239	321.6
2534.923	330.6
2538.605	320.6
2542.283	313.6
2545.958	315.6
2549.63	305.6
2553.299	319.6
2556.964	309.6
2560.626	308.6
2564.285	283.6
2567.941	295.6
2571.594	293.6
2575.243	287.6
2578.89	287.6
2582.533	282.6
2586.173	278.6
2589.809	267.6
2593.443	274.6
2597.073	267.6
2600.701	256.6
2604.325	262.6
2607.946	257.6
2611.564	262.6
2615.178	269.6
2618.79	267.6
2622.398	257.6
2626.004	264.6
2629.606	252.6
2633.205	249.6
2636.801	242.6
2640.394	241.6
2643.983	246.6
2647.57	253.6
2651.153	241.6
2654.734	239.6
2658.311	231.6
2661.885	231.6
2665.456	216.6
2669.025	224.6
2672.589	217.6
2676.151	221.6
2679.71	216.6
2683.266	211.6
2686.819	220.6
2690.368	220.6
2693.915	195.6
2697.458	201.6
2700.999	194.6
2704.536	196.6
2708.071	182.6
2711.602	181.6
2715.13	181.6
2718.656	180.6
2722.178	180.6
2725.697	166.6
2729.214	162.6
2732.727	166.6
2736.237	170.6
2739.744	165.6
2743.249	164.6
2746.75	156.6
2750.248	154.6
2753.743	150.6
2757.236	141.6
2760.725	146.6
2764.211	130.6
2767.695	140.6
2771.175	129.6
2774.652	126.6
2778.127	133.6
2781.598	126.6
2785.067	136.6
2788.532	133.6
2791.995	136.6
2795.455	137.6
2798.911	141.6
2802.365	148.6
2805.816	139.6
2809.264	134.6
2812.709	143.6
2816.151	136.6
2819.59	136.6
2823.026	142.6
2826.46	147.6
2829.89	145.6
2833.318	134.6
2836.742	139.6
2840.164	146.6
2843.583	139.6
2846.999	148.6
2850.412	145.6
2853.822	147.6
2857.229	147.6
2860.634	157.6
2864.035	154.6
2867.434	164.6
2870.83	176.6
2874.223	182.6
2877.613	185.6
2881	194.6
2884.385	205.6
2887.766	188.6
2891.145	188.6
2894.521	193.6
2897.894	202.6
2901.264	193.6
2904.631	207.6
2907.996	201.6
2911.358	203.6
2914.717	212.6
2918.073	225.6
2921.426	223.6
2924.777	234.6
2928.124	238.6
2931.469	236.6
2934.811	246.6
2938.15	250.6
2941.487	256.6
2944.821	264.6
2948.152	261.6
2951.48	259.6
2954.805	259.6
2958.128	253.6
2961.447	240.6
2964.765	255.6
2968.079	251.6
2971.39	249.6
2974.699	249.6
2978.005	250.6
2981.308	260.6
2984.609	254.6
2987.907	253.6
2991.202	265.6
2994.494	259.6
2997.784	262.6
3001.07	269.6
3004.355	283.6
3007.636	276.6
3010.915	267.6
3014.191	273.6
3017.464	291.6
3020.734	286.6
3024.002	287.6
3027.267	302.6
3030.53	306.6
3033.789	316.6
3037.046	309.6
3040.301	322.6
3043.552	346.6
3046.801	350.6
3050.048	356.6
3053.291	363.6
3056.532	382.6
3059.771	404.6
3063.006	407.6
3066.239	415.6
3069.469	442.6
3072.697	439.6
3075.922	465.6
3079.144	470.6
3082.364	492.6
3085.581	503.6
3088.795	495.6
3092.007	507.6
3095.216	520.6
3098.423	529.6
3101.627	542.6
3104.828	560.6
3108.026	571.6
3111.222	573.6
3114.416	595.6
3117.607	601.6
3120.795	608.6
3123.98	622.6
3127.163	637.6
3130.344	652.6
3133.521	673.6
3136.696	686.6
3139.869	690.6
3143.039	707.6
3146.206	720.6
3149.371	731.6
3152.533	743.6
3155.693	746.6
3158.85	743.6
3162.005	748.6
3165.157	752.6
3168.306	760.6
3171.453	760.6
3174.597	772.6
3177.739	770.6
3180.878	780.6
3184.014	793.6
3187.149	789.6
3190.28	797.6
3193.409	790.6
3196.536	797.6
3199.659	800.6
3202.781	803.6
3205.9	812.6
3209.016	815.6
3212.13	807.6
3215.241	791.6
3218.35	792.6
3221.456	793.6
3224.56	779.6
3227.661	766.6
3230.76	752.6
3233.856	739.6
3236.95	737.6
3240.041	735.6
3243.13	708.6
3246.216	696.6
3249.3	695.6
3252.382	690.6
3255.46	672.6
3258.537	674.6
3261.611	663.6
3264.682	655.6
3267.751	663.6
3270.818	663.6
3273.882	639.6
3276.943	628.6
3280.002	632.6
3283.059	627.6
3286.113	629.6
3289.165	641.6
3292.214	617.6
3295.261	598.6
3298.306	603.6
3301.348	596.6
3304.387	590.6
3307.425	578.6
3310.459	582.6
3313.492	572.6
3316.521	567.6
3319.549	552.6
3322.574	553.6
3325.597	546.6
3328.617	561.6
3331.635	561.6
3334.65	553.6
3337.663	541.6
3340.674	538.6
3343.682	543.6
3346.688	531.6
3349.691	544.6
3352.692	537.6
3355.691	531.6
3358.687	518.6
3361.681	525.6
3364.673	522.6
3367.662	504.6
3370.649	494.6
3373.633	496.6
3376.615	479.6
3379.595	465.6
3382.572	477.6
3385.547	454.6
3388.52	454.6
3391.49	456.6
3394.458	437.6
3397.424	427.6
3400.387	422.6
3403.348	424.6
3406.307	408.6
3409.263	422.6
3412.217	404.6
3415.168	394.6
3418.118	390.6
3421.065	377.6
3424.009	376.6
3426.951	379.6
3429.891	362.6
3432.829	356.6
3435.764	346.6
3438.697	340.6
3441.628	322.6
3444.557	311.6
3447.483	309.6
3450.407	295.6
3453.328	277.6
3456.247	283.6
3459.164	256.6
3462.079	246.6
3464.991	234.6
3467.902	231.6
3470.809	213.6
3473.715	203.6
3476.618	203.6
3479.519	197.6
3482.418	187.6
3485.315	169.6
3488.209	170.6
3491.101	161.6
3493.99	161.6
3496.878	148.6
3499.763	140.6
3502.646	136.6
3505.527	116.6
3508.405	121.6
3511.281	99.6
3514.155	95.6
3517.027	89.6
3519.897	75.6
3522.764	62.6
3525.629	62.6
3528.492	53.6
3531.352	57.6
3534.211	37.6
3537.067	34.6
3539.921	33.6
3542.773	23.6
3545.622	9.6
3548.469	4.6
3551.315	6.6
3554.157	-8.4
3556.998	-17.4
3559.837	-11.4
3562.673	-23.4
3565.507	-17.4
3568.339	-22.4
3571.169	-39.4
3573.996	-39.4
3576.822	-38.4
3579.645	-39.4
3582.466	-42.4
3585.285	-50.4
3588.101	-44.4
3590.916	-55.4
3593.728	-64.4
3596.538	-59.4
3599.346	-62.4
3602.152	-63.4
3604.956	-77.4
3607.757	-68.4
3610.556	-79.4
3613.354	-76.4
3616.149	-90.4
3618.942	-92.4
3621.732	-90.4
3624.521	-87.4
3627.307	-90.4
3630.092	-89.4
3632.874	-91.4
3635.654	-102.4
3638.432	-98.4
3641.208	-100.4
3643.982	-105.4
3646.753	-104.4
3649.523	-108.4
3652.29	-107.4
3655.055	-110.4
3657.818	-110.4
3660.579	-109.4
3663.338	-109.4
3666.095	-116.4
3668.849	-121.4
3671.602	-122.4
3674.352	-127.4
3677.101	-123.4
3679.847	-125.4
3682.591	-132.4
3685.333	-123.4
3688.073	-122.4
3690.811	-128.4
3693.547	-131.4
3696.281	-133.4
3699.013	-134.4
3701.742	-137.4
3704.47	-133.4
3707.195	-131.4
3709.919	-136.4
3712.64	-139.4
3715.359	-144.4
3718.076	-137.4
3720.792	-142.4
3723.505	-148.4
3726.216	-136.4
3728.925	-142.4
3731.632	-143.4
3734.336	-145.4
3737.039	-143.4
3739.74	-149.4
3742.439	-154.4
3745.136	-143.4
3747.83	-149.4
3750.523	-147.4
3753.213	-136.4
3755.902	-146.4
3758.589	-154.4
3761.273	-151.4
3763.956	-146.4
3766.636	-151.4
3769.315	-147.4
3771.991	-145.4
3774.665	-151.4
3777.338	-142.4
3780.008	-150.4
3782.677	-151.4
3785.343	-149.4
3788.007	-155.4
3790.67	-154.4
3793.33	-147.4
3795.989	-150.4
3798.645	-147.4
3801.299	-146.4
3803.952	-156.4
3806.602	-155.4
3809.251	-156.4
3811.897	-155.4
3814.542	-159.4
3817.184	-150.4
3819.825	-152.4
3822.463	-153.4
3825.1	-149.4
3827.735	-154.4
3830.367	-151.4
3832.998	-160.4
3835.627	-154.4
3838.253	-156.4
3840.878	-152.4
3843.501	-153.4
3846.122	-154.4
3848.741	-154.4
3851.358	-155.4
3853.973	-157.4
3856.586	-156.4
3859.197	-157.4
3861.806	-150.4
3864.414	-155.4
3867.019	-147.4
3869.622	-156.4
3872.224	-145.4
3874.823	-137.4
3877.421	-132.4
3880.016	-106.4
3882.61	-81.4
3885.202	-84.4
3887.792	-102.4
3890.38	-122.4
3892.966	-146.4
3895.55	-150.4
3898.132	-155.4
3900.713	-154.4
3903.291	-160.4
3905.868	-163.4
3908.442	-152.4
3911.015	-159.4
3913.586	-156.4
3916.155	-159.4
3918.722	-159.4
3921.287	-156.4
3923.85	-159.4
3926.411	-163.4
3928.971	-155.4
3931.528	-162.4
3934.084	-153.4
3936.638	-154.4
3939.19	-156.4
3941.74	-157.4
3944.288	-155.4
3946.834	-155.4
3949.378	-158.4
3951.921	-159.4
3954.462	-166.4
3957	-156.4
3959.537	-157.4
3962.072	-156.4
3964.606	-155.4
3967.137	-157.4
3969.667	-161.4
3972.194	-162.4
3974.72	-160.4
3977.244	-154.4
3979.766	-158.4
3982.286	-157.4
3984.805	-154.4
3987.321	-154.4
3989.836	-155.4
3992.349	-160.4
3994.86	-158.4
3997.369	-152.4
3999.877	-157.4
4002.382	-149.4
4004.886	-158.4
4007.388	-154.4
4009.888	-152.4
4012.386	-160.4
4014.883	-159.4
4017.377	-156.4
4019.87	-153.4
4022.361	-157.4
4024.85	-153.4
4027.338	-155.4
4029.823	-154.4
4032.307	-154.4
4034.789	-156.4
4037.269	-155.4
4039.747	-148.4
4042.224	-151.4
4044.699	-156.4
4047.172	-148.4
4049.643	-155.4
4052.112	-157.4
4054.58	-159.4
4057.046	-162.4
4059.51	-155.4
4061.972	-152.4
4064.432	-157.4
4066.891	-151.4
4069.348	-153.4
4071.803	-161.4
4074.256	-158.4
4076.708	-157.4
4079.158	-159.4
4081.606	-150.4
4084.052	-157.4
4086.497	-150.4
4088.939	-147.4
4091.38	-151.4
4093.819	-158.4
4096.257	-166.4
4098.693	-163.4
4101.127	-165.4
4103.559	-160.4
4105.989	-18.4
4108.418	-19.4
4110.845	-14.4
4113.27	-9.4
4115.694	-24.4
4118.115	-15.4
4120.535	-161.4
4122.954	-165.4
4125.37	-160.4
4127.785	-154.4
4130.198	-153.4
4132.609	-153.4
4135.019	-163.4
4137.427	-167.4
4139.833	-164.4
4142.237	-166.4
