Data from 2018-2-8_ethanol_RamanShift_01.txt Node
Date: Mon Mar 12 13:11:59 IST 2018
User: aro
Spectrometer: QEPB0276
Trigger mode: 0
Integration Time (sec): 3.000000E1
Scans to average: 1
Electric dark correction enabled: true
Nonlinearity correction enabled: false
Boxcar width: 0
XAxis mode: Raman Shifts
Number of Pixels in Spectrum: 1044
>>>>>Begin Spectral Data<<<<<
160.701	22.5
166.742	49.5
172.777	115.5
178.805	369.5
184.826	967.5
190.841	2025.5
196.849	3254.5
202.85	4184.5
208.845	4444.5
214.833	4311.5
220.815	4191.5
226.789	4116.5
232.758	4035.5
238.719	3962.5
244.674	3905.5
250.623	3810.5
256.565	3731.5
262.5	3643.5
268.429	3575.5
274.351	3532.5
280.267	3468.5
286.176	3347.5
292.079	3281.5
297.975	3193.5
303.865	3090.5
309.748	3010.5
315.625	2943.5
321.495	2880.5
327.359	2821.5
333.217	2793.5
339.068	2784.5
344.912	2797.5
350.751	2779.5
356.583	2811.5
362.408	2823.5
368.227	2850.5
374.04	2879.5
379.847	2936.5
385.647	3020.5
391.44	3080.5
397.228	3209.5
403.009	3363.5
408.784	3569.5
414.553	3870.5
420.315	4382.5
426.071	5153.5
431.821	6086.5
437.565	6811.5
443.302	6964.5
449.033	6454.5
454.758	5545.5
460.477	4743.5
466.189	4112.5
471.896	3717.5
477.596	3436.5
483.29	3207.5
488.978	3114.5
494.66	2975.5
500.335	2850.5
506.005	2707.5
511.668	2527.5
517.325	2360.5
522.977	2234.5
528.622	2107.5
534.261	2044.5
539.894	1988.5
545.521	1939.5
551.141	1914.5
556.756	1862.5
562.365	1832.5
567.968	1809.5
573.565	1798.5
579.155	1763.5
584.74	1756.5
590.319	1749.5
595.892	1730.5
601.459	1738.5
607.02	1725.5
612.575	1704.5
618.124	1680.5
623.667	1651.5
629.204	1623.5
634.735	1596.5
640.261	1574.5
645.781	1548.5
651.294	1564.5
656.802	1538.5
662.304	1547.5
667.8	1518.5
673.29	1531.5
678.775	1503.5
684.254	1505.5
689.726	1520.5
695.193	1501.5
700.655	1481.5
706.11	1481.5
711.56	1492.5
717.004	1467.5
722.442	1472.5
727.874	1460.5
733.301	1485.5
738.722	1465.5
744.137	1471.5
749.547	1496.5
754.951	1497.5
760.349	1521.5
765.741	1547.5
771.128	1594.5
776.509	1635.5
781.885	1699.5
787.254	1730.5
792.618	1813.5
797.977	1863.5
803.33	1940.5
808.677	2020.5
814.019	2098.5
819.355	2119.5
824.686	2170.5
830.011	2211.5
835.33	2287.5
840.644	2453.5
845.952	2682.5
851.255	3017.5
856.552	3586.5
861.844	4647.5
867.13	6808.5
872.41	11464.5
877.686	19657.5
882.955	29556.5
888.219	34071.5
893.478	28371.5
898.731	17428.5
903.979	9332.5
909.221	5502.5
914.458	3862.5
919.69	3052.5
924.916	2587.5
930.136	2284.5
935.351	2096.5
940.561	1952.5
945.766	1866.5
950.965	1796.5
956.158	1711.5
961.347	1690.5
966.529	1662.5
971.707	1621.5
976.879	1626.5
982.046	1667.5
987.208	1716.5
992.364	1825.5
997.515	1945.5
1002.66	2143.5
1007.801	2452.5
1012.936	2902.5
1018.066	3494.5
1023.19	4178.5
1028.309	4935.5
1033.423	5806.5
1038.532	7014.5
1043.636	8834.5
1048.734	11070.5
1053.827	12715.5
1058.915	12417.5
1063.998	10613.5
1069.075	8705.5
1074.147	7903.5
1079.214	8278.5
1084.276	9594.5
1089.333	11376.5
1094.385	12834.5
1099.431	12756.5
1104.472	11045.5
1109.509	8477.5
1114.54	6534.5
1119.565	5465.5
1124.586	4885.5
1129.602	4488.5
1134.613	3987.5
1139.618	3421.5
1144.619	2953.5
1149.614	2610.5
1154.604	2385.5
1159.589	2212.5
1164.57	2067.5
1169.545	1944.5
1174.515	1815.5
1179.48	1681.5
1184.44	1571.5
1189.395	1516.5
1194.345	1476.5
1199.29	1437.5
1204.23	1448.5
1209.165	1423.5
1214.095	1455.5
1219.021	1502.5
1223.941	1543.5
1228.856	1623.5
1233.766	1727.5
1238.672	1830.5
1243.572	1949.5
1248.467	2097.5
1253.358	2277.5
1258.244	2505.5
1263.124	2842.5
1268	3448.5
1272.871	4373.5
1277.737	5491.5
1282.599	6192.5
1287.455	5949.5
1292.306	4979.5
1297.153	3898.5
1301.995	3216.5
1306.832	2777.5
1311.664	2568.5
1316.491	2423.5
1321.314	2295.5
1326.132	2239.5
1330.945	2175.5
1335.753	2116.5
1340.556	2109.5
1345.354	2071.5
1350.148	2098.5
1354.937	2085.5
1359.722	2137.5
1364.501	2203.5
1369.276	2299.5
1374.046	2433.5
1378.811	2632.5
1383.572	2927.5
1388.327	3220.5
1393.079	3393.5
1397.825	3424.5
1402.567	3533.5
1407.304	3702.5
1412.036	3930.5
1416.764	4226.5
1421.487	4635.5
1426.205	5043.5
1430.919	5565.5
1435.628	6224.5
1440.333	7142.5
1445.032	8653.5
1449.727	11100.5
1454.418	14149.5
1459.104	16404.5
1463.785	15945.5
1468.462	13069.5
1473.134	9904.5
1477.802	7954.5
1482.465	7182.5
1487.123	6906.5
1491.777	6514.5
1496.426	5729.5
1501.071	4703.5
1505.711	3888.5
1510.347	3335.5
1514.978	2971.5
1519.604	2666.5
1524.226	2488.5
1528.844	2291.5
1533.457	2110.5
1538.065	1967.5
1542.669	1855.5
1547.269	1753.5
1551.864	1652.5
1556.454	1580.5
1561.041	1503.5
1565.622	1432.5
1570.199	1370.5
1574.772	1329.5
1579.34	1286.5
1583.904	1238.5
1588.464	1193.5
1593.019	1163.5
1597.569	1156.5
1602.115	1121.5
1606.657	1087.5
1611.195	1085.5
1615.728	1093.5
1620.256	1078.5
1624.78	1081.5
1629.3	1066.5
1633.816	1052.5
1638.327	1023.5
1642.834	993.5
1647.336	963.5
1651.834	965.5
1656.328	939.5
1660.817	924.5
1665.302	903.5
1669.783	882.5
1674.259	862.5
1678.732	849.5
1683.199	830.5
1687.663	789.5
1692.122	779.5
1696.577	735.5
1701.028	716.5
1705.474	696.5
1709.917	661.5
1714.355	659.5
1718.788	640.5
1723.218	627.5
1727.643	611.5
1732.064	582.5
1736.481	564.5
1740.893	542.5
1745.301	516.5
1749.705	494.5
1754.105	473.5
1758.501	456.5
1762.893	441.5
1767.28	424.5
1771.663	417.5
1776.042	415.5
1780.417	383.5
1784.787	379.5
1789.154	364.5
1793.516	370.5
1797.874	360.5
1802.228	354.5
1806.578	342.5
1810.924	333.5
1815.266	325.5
1819.603	323.5
1823.937	316.5
1828.266	309.5
1832.591	310.5
1836.913	307.5
1841.23	323.5
1845.543	308.5
1849.852	313.5
1854.156	294.5
1858.457	316.5
1862.754	312.5
1867.047	311.5
1871.335	309.5
1875.62	317.5
1879.9	313.5
1884.177	327.5
1888.449	324.5
1892.718	316.5
1896.982	324.5
1901.243	306.5
1905.499	307.5
1909.752	298.5
1914	295.5
1918.245	297.5
1922.485	289.5
1926.722	284.5
1930.954	280.5
1935.183	281.5
1939.408	272.5
1943.628	275.5
1947.845	271.5
1952.058	270.5
1956.267	281.5
1960.472	271.5
1964.673	275.5
1968.87	267.5
1973.063	275.5
1977.252	262.5
1981.438	257.5
1985.619	262.5
1989.797	260.5
1993.971	262.5
1998.14	257.5
2002.306	241.5
2006.469	260.5
2010.627	249.5
2014.781	260.5
2018.932	264.5
2023.078	263.5
2027.221	262.5
2031.36	257.5
2035.495	251.5
2039.627	244.5
2043.754	242.5
2047.878	245.5
2051.998	254.5
2056.114	252.5
2060.226	253.5
2064.334	257.5
2068.439	275.5
2072.54	269.5
2076.637	285.5
2080.73	288.5
2084.82	293.5
2088.906	303.5
2092.988	306.5
2097.066	308.5
2101.14	296.5
2105.211	297.5
2109.278	281.5
2113.342	274.5
2117.401	271.5
2121.457	272.5
2125.509	260.5
2129.558	258.5
2133.602	266.5
2137.643	266.5
2141.681	263.5
2145.714	258.5
2149.744	252.5
2153.77	265.5
2157.793	268.5
2161.812	260.5
2165.827	266.5
2169.838	257.5
2173.846	265.5
2177.851	266.5
2181.851	256.5
2185.848	256.5
2189.841	267.5
2193.831	257.5
2197.817	262.5
2201.799	250.5
2205.778	253.5
2209.753	239.5
2213.725	245.5
2217.693	253.5
2221.657	252.5
2225.618	245.5
2229.575	265.5
2233.529	261.5
2237.479	268.5
2241.425	267.5
2245.368	269.5
2249.307	280.5
2253.243	295.5
2257.175	280.5
2261.104	288.5
2265.029	286.5
2268.95	291.5
2272.868	275.5
2276.783	281.5
2280.694	292.5
2284.601	292.5
2288.505	299.5
2292.405	289.5
2296.302	278.5
2300.195	266.5
2304.085	267.5
2307.971	247.5
2311.854	242.5
2315.734	217.5
2319.609	224.5
2323.482	216.5
2327.351	226.5
2331.216	224.5
2335.078	234.5
2338.937	223.5
2342.792	207.5
2346.643	202.5
2350.492	196.5
2354.336	199.5
2358.178	190.5
2362.015	200.5
2365.85	197.5
2369.681	190.5
2373.508	191.5
2377.333	185.5
2381.153	183.5
2384.971	195.5
2388.785	181.5
2392.595	185.5
2396.402	184.5
2400.206	181.5
2404.007	181.5
2407.804	179.5
2411.597	193.5
2415.388	190.5
2419.174	187.5
2422.958	198.5
2426.738	197.5
2430.515	210.5
2434.289	209.5
2438.059	222.5
2441.825	204.5
2445.589	220.5
2449.349	220.5
2453.106	219.5
2456.859	232.5
2460.61	238.5
2464.356	233.5
2468.1	233.5
2471.84	233.5
2475.577	232.5
2479.311	226.5
2483.041	230.5
2486.768	231.5
2490.492	231.5
2494.213	238.5
2497.93	223.5
2501.644	233.5
2505.355	233.5
2509.062	236.5
2512.766	237.5
2516.467	254.5
2520.165	260.5
2523.859	262.5
2527.551	266.5
2531.239	278.5
2534.923	299.5
2538.605	321.5
2542.283	341.5
2545.958	356.5
2549.63	372.5
2553.299	378.5
2556.964	372.5
2560.626	374.5
2564.285	356.5
2567.941	354.5
2571.594	340.5
2575.243	344.5
2578.89	330.5
2582.533	334.5
2586.173	333.5
2589.809	339.5
2593.443	335.5
2597.073	341.5
2600.701	338.5
2604.325	354.5
2607.946	348.5
2611.564	355.5
2615.178	350.5
2618.79	355.5
2622.398	359.5
2626.004	359.5
2629.606	351.5
2633.205	358.5
2636.801	365.5
2640.394	370.5
2643.983	383.5
2647.57	389.5
2651.153	387.5
2654.734	412.5
2658.311	411.5
2661.885	431.5
2665.456	454.5
2669.025	480.5
2672.589	492.5
2676.151	497.5
2679.71	538.5
2683.266	562.5
2686.819	594.5
2690.368	656.5
2693.915	701.5
2697.458	786.5
2700.999	864.5
2704.536	959.5
2708.071	1063.5
2711.602	1189.5
2715.13	1281.5
2718.656	1374.5
2722.178	1432.5
2725.697	1465.5
2729.214	1466.5
2732.727	1440.5
2736.237	1406.5
2739.744	1348.5
2743.249	1281.5
2746.75	1282.5
2750.248	1278.5
2753.743	1275.5
2757.236	1289.5
2760.725	1271.5
2764.211	1243.5
2767.695	1193.5
2771.175	1150.5
2774.652	1116.5
2778.127	1100.5
2781.598	1089.5
2785.067	1110.5
2788.532	1116.5
2791.995	1164.5
2795.455	1224.5
2798.911	1268.5
2802.365	1368.5
2805.816	1443.5
2809.264	1534.5
2812.709	1662.5
2816.151	1789.5
2819.59	1927.5
2823.026	2107.5
2826.46	2309.5
2829.89	2567.5
2833.318	2807.5
2836.742	3092.5
2840.164	3347.5
2843.583	3565.5
2846.999	3793.5
2850.412	3957.5
2853.822	4199.5
2857.229	4445.5
2860.634	4813.5
2864.035	5241.5
2867.434	5857.5
2870.83	6593.5
2874.223	7498.5
2877.613	8489.5
2881	9332.5
2884.385	9916.5
2887.766	10098.5
2891.145	10053.5
2894.521	9848.5
2897.894	9636.5
2901.264	9338.5
2904.631	9152.5
2907.996	8907.5
2911.358	8789.5
2914.717	8829.5
2918.073	9086.5
2921.426	9607.5
2924.777	10530.5
2928.124	11784.5
2931.469	12992.5
2934.811	13863.5
2938.15	13743.5
2941.487	12813.5
2944.821	11442.5
2948.152	10184.5
2951.48	9014.5
2954.805	7998.5
2958.128	7214.5
2961.447	6656.5
2964.765	6311.5
2968.079	6169.5
2971.39	6192.5
2974.699	6257.5
2978.005	6280.5
2981.308	6159.5
2984.609	5847.5
2987.907	5348.5
2991.202	4816.5
2994.494	4192.5
2997.784	3681.5
3001.07	3232.5
3004.355	2842.5
3007.636	2563.5
3010.915	2284.5
3014.191	2062.5
3017.464	1891.5
3020.734	1722.5
3024.002	1603.5
3027.267	1481.5
3030.53	1361.5
3033.789	1297.5
3037.046	1226.5
3040.301	1133.5
3043.552	1076.5
3046.801	1037.5
3050.048	973.5
3053.291	941.5
3056.532	904.5
3059.771	883.5
3063.006	853.5
3066.239	829.5
3069.469	807.5
3072.697	782.5
3075.922	768.5
3079.144	746.5
3082.364	726.5
3085.581	714.5
3088.795	703.5
3092.007	674.5
3095.216	670.5
3098.423	666.5
3101.627	655.5
3104.828	654.5
3108.026	623.5
3111.222	630.5
3114.416	628.5
3117.607	630.5
3120.795	615.5
3123.98	624.5
3127.163	621.5
3130.344	623.5
3133.521	631.5
3136.696	641.5
3139.869	631.5
3143.039	637.5
3146.206	634.5
3149.371	641.5
3152.533	633.5
3155.693	642.5
3158.85	641.5
3162.005	648.5
3165.157	642.5
3168.306	642.5
3171.453	645.5
3174.597	653.5
3177.739	639.5
3180.878	647.5
3184.014	644.5
3187.149	631.5
3190.28	639.5
3193.409	639.5
3196.536	649.5
3199.659	652.5
3202.781	649.5
3205.9	666.5
3209.016	655.5
3212.13	658.5
3215.241	665.5
3218.35	650.5
3221.456	636.5
3224.56	638.5
3227.661	630.5
3230.76	627.5
3233.856	609.5
3236.95	606.5
3240.041	592.5
3243.13	578.5
3246.216	576.5
3249.3	566.5
3252.382	569.5
3255.46	556.5
3258.537	552.5
3261.611	552.5
3264.682	547.5
3267.751	535.5
3270.818	534.5
3273.882	532.5
3276.943	533.5
3280.002	523.5
3283.059	523.5
3286.113	529.5
3289.165	513.5
3292.214	518.5
3295.261	509.5
3298.306	492.5
3301.348	494.5
3304.387	479.5
3307.425	482.5
3310.459	470.5
3313.492	457.5
3316.521	466.5
3319.549	458.5
3322.574	453.5
3325.597	449.5
3328.617	455.5
3331.635	450.5
3334.65	449.5
3337.663	431.5
3340.674	442.5
3343.682	446.5
3346.688	435.5
3349.691	434.5
3352.692	426.5
3355.691	426.5
3358.687	427.5
3361.681	418.5
3364.673	423.5
3367.662	414.5
3370.649	409.5
3373.633	396.5
3376.615	395.5
3379.595	389.5
3382.572	388.5
3385.547	374.5
3388.52	367.5
3391.49	375.5
3394.458	363.5
3397.424	359.5
3400.387	352.5
3403.348	348.5
3406.307	339.5
3409.263	337.5
3412.217	333.5
3415.168	333.5
3418.118	331.5
3421.065	325.5
3424.009	310.5
3426.951	308.5
3429.891	298.5
3432.829	293.5
3435.764	288.5
3438.697	276.5
3441.628	266.5
3444.557	255.5
3447.483	251.5
3450.407	245.5
3453.328	219.5
3456.247	218.5
3459.164	204.5
3462.079	196.5
3464.991	191.5
3467.902	178.5
3470.809	185.5
3473.715	163.5
3476.618	155.5
3479.519	149.5
3482.418	139.5
3485.315	134.5
3488.209	120.5
3491.101	126.5
3493.99	119.5
3496.878	112.5
3499.763	92.5
3502.646	91.5
3505.527	81.5
3508.405	73.5
3511.281	75.5
3514.155	66.5
3517.027	53.5
3519.897	55.5
3522.764	41.5
3525.629	37.5
3528.492	25.5
3531.352	23.5
3534.211	20.5
3537.067	12.5
3539.921	11.5
3542.773	3.5
3545.622	1.5
3548.469	-11.5
3551.315	-18.5
3554.157	-17.5
3556.998	-20.5
3559.837	-26.5
3562.673	-30.5
3565.507	-30.5
3568.339	-39.5
3571.169	-56.5
3573.996	-39.5
3576.822	-47.5
3579.645	-51.5
3582.466	-48.5
3585.285	-52.5
3588.101	-55.5
3590.916	-62.5
3593.728	-64.5
3596.538	-71.5
3599.346	-72.5
3602.152	-72.5
3604.956	-70.5
3607.757	-66.5
3610.556	-74.5
3613.354	-75.5
3616.149	-88.5
3618.942	-89.5
3621.732	-85.5
3624.521	-89.5
3627.307	-86.5
3630.092	-82.5
3632.874	-85.5
3635.654	-96.5
3638.432	-94.5
3641.208	-98.5
3643.982	-98.5
3646.753	-98.5
3649.523	-100.5
3652.29	-98.5
3655.055	-98.5
3657.818	-100.5
3660.579	-104.5
3663.338	-102.5
3666.095	-104.5
3668.849	-104.5
3671.602	-111.5
3674.352	-107.5
3677.101	-110.5
3679.847	-107.5
3682.591	-112.5
3685.333	-111.5
3688.073	-110.5
3690.811	-113.5
3693.547	-123.5
3696.281	-109.5
3699.013	-109.5
3701.742	-120.5
3704.47	-122.5
3707.195	-113.5
3709.919	-119.5
3712.64	-120.5
3715.359	-121.5
3718.076	-119.5
3720.792	-119.5
3723.505	-124.5
3726.216	-121.5
3728.925	-122.5
3731.632	-123.5
3734.336	-135.5
3737.039	-124.5
3739.74	-124.5
3742.439	-125.5
3745.136	-118.5
3747.83	-126.5
3750.523	-127.5
3753.213	-134.5
3755.902	-126.5
3758.589	-127.5
3761.273	-123.5
3763.956	-119.5
3766.636	-122.5
3769.315	-123.5
3771.991	-119.5
3774.665	-133.5
3777.338	-121.5
3780.008	-126.5
3782.677	-129.5
3785.343	-126.5
3788.007	-130.5
3790.67	-133.5
3793.33	-124.5
3795.989	-127.5
3798.645	-123.5
3801.299	-127.5
3803.952	-136.5
3806.602	-126.5
3809.251	-132.5
3811.897	-135.5
3814.542	-134.5
3817.184	-127.5
3819.825	-128.5
3822.463	-129.5
3825.1	-131.5
3827.735	-128.5
3830.367	-134.5
3832.998	-132.5
3835.627	-125.5
3838.253	-123.5
3840.878	-124.5
3843.501	-126.5
3846.122	-130.5
3848.741	-134.5
3851.358	-128.5
3853.973	-132.5
3856.586	-128.5
3859.197	-131.5
3861.806	-121.5
3864.414	-128.5
3867.019	-122.5
3869.622	-127.5
3872.224	-120.5
3874.823	-106.5
3877.421	-96.5
3880.016	-67.5
3882.61	-38.5
3885.202	-31.5
3887.792	-51.5
3890.38	-86.5
3892.966	-114.5
3895.55	-121.5
3898.132	-127.5
3900.713	-126.5
3903.291	-133.5
3905.868	-133.5
3908.442	-127.5
3911.015	-133.5
3913.586	-130.5
3916.155	-137.5
3918.722	-135.5
3921.287	-134.5
3923.85	-134.5
3926.411	-134.5
3928.971	-129.5
3931.528	-130.5
3934.084	-129.5
3936.638	-127.5
3939.19	-137.5
3941.74	-135.5
3944.288	-132.5
3946.834	-127.5
3949.378	-127.5
3951.921	-131.5
3954.462	-139.5
3957	-132.5
3959.537	-129.5
3962.072	-138.5
3964.606	-127.5
3967.137	-126.5
3969.667	-130.5
3972.194	-134.5
3974.72	-130.5
3977.244	-135.5
3979.766	-133.5
3982.286	-129.5
3984.805	-136.5
3987.321	-127.5
3989.836	-118.5
3992.349	-131.5
3994.86	-129.5
3997.369	-129.5
3999.877	-131.5
4002.382	-133.5
4004.886	-138.5
4007.388	-130.5
4009.888	-126.5
4012.386	-130.5
4014.883	-133.5
4017.377	-131.5
4019.87	-129.5
4022.361	-134.5
4024.85	-134.5
4027.338	-134.5
4029.823	-128.5
4032.307	-129.5
4034.789	-131.5
4037.269	-125.5
4039.747	-129.5
4042.224	-131.5
4044.699	-135.5
4047.172	-129.5
4049.643	-128.5
4052.112	-133.5
4054.58	-138.5
4057.046	-127.5
4059.51	-131.5
4061.972	-125.5
4064.432	-130.5
4066.891	-134.5
4069.348	-128.5
4071.803	-138.5
4074.256	-124.5
4076.708	-132.5
4079.158	-129.5
4081.606	-126.5
4084.052	-131.5
4086.497	-130.5
4088.939	-124.5
4091.38	-130.5
4093.819	-131.5
4096.257	-141.5
4098.693	-136.5
4101.127	-136.5
4103.559	-132.5
4105.989	13.5
4108.418	5.5
4110.845	3.5
4113.27	3.5
4115.694	-6.5
4118.115	-1.5
4120.535	-132.5
4122.954	-133.5
4125.37	-127.5
4127.785	-130.5
4130.198	-129.5
4132.609	-133.5
4135.019	-137.5
4137.427	-142.5
4139.833	-137.5
4142.237	-139.5
