Data from 2018-2-8_conc=0_n=10_RamanShift_03.txt Node
Date: Mon Mar 12 13:51:58 IST 2018
User: aro
Spectrometer: QEPB0276
Trigger mode: 0
Integration Time (sec): 3.000000E1
Scans to average: 1
Electric dark correction enabled: true
Nonlinearity correction enabled: false
Boxcar width: 0
XAxis mode: Raman Shifts
Number of Pixels in Spectrum: 1044
>>>>>Begin Spectral Data<<<<<
160.701	18.2
166.742	38.2
172.777	113.2
178.805	339.2
184.826	928.2
190.841	1999.2
196.849	3297.2
202.85	4360.2
208.845	4763.2
214.833	4770.2
220.815	4691.2
226.789	4706.2
232.758	4725.2
238.719	4709.2
244.674	4684.2
250.623	4633.2
256.565	4604.2
262.5	4535.2
268.429	4443.2
274.351	4413.2
280.267	4407.2
286.176	4397.2
292.079	4374.2
297.975	4370.2
303.865	4360.2
309.748	4329.2
315.625	4334.2
321.495	4325.2
327.359	4324.2
333.217	4318.2
339.068	4311.2
344.912	4322.2
350.751	4345.2
356.583	4341.2
362.408	4370.2
368.227	4361.2
374.04	4369.2
379.847	4407.2
385.647	4427.2
391.44	4442.2
397.228	4462.2
403.009	4497.2
408.784	4474.2
414.553	4507.2
420.315	4518.2
426.071	4520.2
431.821	4510.2
437.565	4516.2
443.302	4517.2
449.033	4479.2
454.758	4477.2
460.477	4433.2
466.189	4420.2
471.896	4407.2
477.596	4355.2
483.29	4365.2
488.978	4345.2
494.66	4338.2
500.335	4263.2
506.005	4179.2
511.668	4024.2
517.325	3897.2
522.977	3790.2
528.622	3724.2
534.261	3680.2
539.894	3620.2
545.521	3582.2
551.141	3565.2
556.756	3538.2
562.365	3525.2
567.968	3514.2
573.565	3485.2
579.155	3459.2
584.74	3464.2
590.319	3433.2
595.892	3452.2
601.459	3422.2
607.02	3450.2
612.575	3376.2
618.124	3347.2
623.667	3330.2
629.204	3305.2
634.735	3280.2
640.261	3246.2
645.781	3231.2
651.294	3227.2
656.802	3237.2
662.304	3183.2
667.8	3188.2
673.29	3179.2
678.775	3166.2
684.254	3152.2
689.726	3132.2
695.193	3165.2
700.655	3116.2
706.11	3091.2
711.56	3084.2
717.004	3049.2
722.442	3060.2
727.874	3071.2
733.301	3016.2
738.722	3036.2
744.137	3039.2
749.547	3000.2
754.951	3016.2
760.349	2998.2
765.741	3017.2
771.128	3023.2
776.509	3042.2
781.885	3061.2
787.254	3075.2
792.618	3097.2
797.977	3046.2
803.33	3022.2
808.677	3015.2
814.019	2995.2
819.355	2973.2
824.686	2937.2
830.011	2944.2
835.33	2939.2
840.644	2930.2
845.952	2910.2
851.255	2916.2
856.552	2900.2
861.844	2876.2
867.13	2872.2
872.41	2857.2
877.686	2855.2
882.955	2842.2
888.219	2803.2
893.478	2775.2
898.731	2720.2
903.979	2684.2
909.221	2655.2
914.458	2659.2
919.69	2639.2
924.916	2659.2
930.136	2651.2
935.351	2670.2
940.561	2679.2
945.766	2661.2
950.965	2660.2
956.158	2622.2
961.347	2603.2
966.529	2586.2
971.707	2530.2
976.879	2500.2
982.046	2450.2
987.208	2465.2
992.364	2470.2
997.515	2482.2
1002.66	2495.2
1007.801	2544.2
1012.936	2555.2
1018.066	2531.2
1023.19	2547.2
1028.309	2559.2
1033.423	2524.2
1038.532	2523.2
1043.636	2531.2
1048.734	2504.2
1053.827	2479.2
1058.915	2435.2
1063.998	2414.2
1069.075	2433.2
1074.147	2425.2
1079.214	2394.2
1084.276	2416.2
1089.333	2439.2
1094.385	2434.2
1099.431	2448.2
1104.472	2435.2
1109.509	2436.2
1114.54	2379.2
1119.565	2346.2
1124.586	2331.2
1129.602	2292.2
1134.613	2294.2
1139.618	2255.2
1144.619	2260.2
1149.614	2251.2
1154.604	2277.2
1159.589	2266.2
1164.57	2263.2
1169.545	2283.2
1174.515	2288.2
1179.48	2284.2
1184.44	2257.2
1189.395	2230.2
1194.345	2217.2
1199.29	2205.2
1204.23	2198.2
1209.165	2188.2
1214.095	2225.2
1219.021	2231.2
1223.941	2242.2
1228.856	2254.2
1233.766	2253.2
1238.672	2259.2
1243.572	2259.2
1248.467	2253.2
1253.358	2219.2
1258.244	2190.2
1263.124	2141.2
1268	2108.2
1272.871	2105.2
1277.737	2079.2
1282.599	2078.2
1287.455	2062.2
1292.306	2067.2
1297.153	2080.2
1301.995	2075.2
1306.832	2098.2
1311.664	2118.2
1316.491	2114.2
1321.314	2116.2
1326.132	2082.2
1330.945	2071.2
1335.753	2033.2
1340.556	2016.2
1345.354	1978.2
1350.148	1934.2
1354.937	1909.2
1359.722	1865.2
1364.501	1854.2
1369.276	1820.2
1374.046	1790.2
1378.811	1755.2
1383.572	1764.2
1388.327	1763.2
1393.079	1733.2
1397.825	1752.2
1402.567	1770.2
1407.304	1754.2
1412.036	1754.2
1416.764	1757.2
1421.487	1781.2
1426.205	1770.2
1430.919	1774.2
1435.628	1800.2
1440.333	1795.2
1445.032	1812.2
1449.727	1828.2
1454.418	1853.2
1459.104	1830.2
1463.785	1799.2
1468.462	1793.2
1473.134	1757.2
1477.802	1708.2
1482.465	1681.2
1487.123	1630.2
1491.777	1629.2
1496.426	1597.2
1501.071	1588.2
1505.711	1562.2
1510.347	1584.2
1514.978	1560.2
1519.604	1553.2
1524.226	1557.2
1528.844	1550.2
1533.457	1535.2
1538.065	1533.2
1542.669	1522.2
1547.269	1523.2
1551.864	1540.2
1556.454	1551.2
1561.041	1545.2
1565.622	1571.2
1570.199	1580.2
1574.772	1586.2
1579.34	1607.2
1583.904	1635.2
1588.464	1641.2
1593.019	1633.2
1597.569	1636.2
1602.115	1645.2
1606.657	1627.2
1611.195	1621.2
1615.728	1605.2
1620.256	1615.2
1624.78	1603.2
1629.3	1635.2
1633.816	1617.2
1638.327	1635.2
1642.834	1636.2
1647.336	1632.2
1651.834	1652.2
1656.328	1637.2
1660.817	1642.2
1665.302	1621.2
1669.783	1604.2
1674.259	1541.2
1678.732	1531.2
1683.199	1484.2
1687.663	1429.2
1692.122	1394.2
1696.577	1323.2
1701.028	1279.2
1705.474	1229.2
1709.917	1178.2
1714.355	1166.2
1718.788	1160.2
1723.218	1163.2
1727.643	1166.2
1732.064	1162.2
1736.481	1157.2
1740.893	1124.2
1745.301	1105.2
1749.705	1071.2
1754.105	1067.2
1758.501	1050.2
1762.893	1017.2
1767.28	1015.2
1771.663	1015.2
1776.042	1001.2
1780.417	979.2
1784.787	974.2
1789.154	957.2
1793.516	959.2
1797.874	954.2
1802.228	930.2
1806.578	920.2
1810.924	905.2
1815.266	895.2
1819.603	889.2
1823.937	907.2
1828.266	901.2
1832.591	900.2
1836.913	895.2
1841.23	908.2
1845.543	927.2
1849.852	899.2
1854.156	886.2
1858.457	909.2
1862.754	897.2
1867.047	913.2
1871.335	913.2
1875.62	911.2
1879.9	901.2
1884.177	892.2
1888.449	868.2
1892.718	867.2
1896.982	866.2
1901.243	845.2
1905.499	850.2
1909.752	828.2
1914	825.2
1918.245	810.2
1922.485	795.2
1926.722	782.2
1930.954	782.2
1935.183	785.2
1939.408	772.2
1943.628	775.2
1947.845	774.2
1952.058	756.2
1956.267	743.2
1960.472	738.2
1964.673	736.2
1968.87	734.2
1973.063	718.2
1977.252	705.2
1981.438	728.2
1985.619	718.2
1989.797	723.2
1993.971	731.2
1998.14	729.2
2002.306	721.2
2006.469	740.2
2010.627	730.2
2014.781	725.2
2018.932	729.2
2023.078	727.2
2027.221	714.2
2031.36	708.2
2035.495	697.2
2039.627	696.2
2043.754	675.2
2047.878	683.2
2051.998	665.2
2056.114	666.2
2060.226	657.2
2064.334	676.2
2068.439	676.2
2072.54	670.2
2076.637	658.2
2080.73	659.2
2084.82	655.2
2088.906	639.2
2092.988	639.2
2097.066	629.2
2101.14	632.2
2105.211	616.2
2109.278	611.2
2113.342	601.2
2117.401	597.2
2121.457	594.2
2125.509	597.2
2129.558	572.2
2133.602	598.2
2137.643	584.2
2141.681	591.2
2145.714	579.2
2149.744	583.2
2153.77	582.2
2157.793	580.2
2161.812	584.2
2165.827	568.2
2169.838	564.2
2173.846	553.2
2177.851	551.2
2181.851	543.2
2185.848	536.2
2189.841	544.2
2193.831	534.2
2197.817	538.2
2201.799	528.2
2205.778	529.2
2209.753	513.2
2213.725	515.2
2217.693	522.2
2221.657	516.2
2225.618	516.2
2229.575	521.2
2233.529	509.2
2237.479	500.2
2241.425	506.2
2245.368	486.2
2249.307	488.2
2253.243	467.2
2257.175	467.2
2261.104	460.2
2265.029	455.2
2268.95	467.2
2272.868	446.2
2276.783	442.2
2280.694	443.2
2284.601	438.2
2288.505	427.2
2292.405	432.2
2296.302	428.2
2300.195	421.2
2304.085	416.2
2307.971	403.2
2311.854	416.2
2315.734	388.2
2319.609	379.2
2323.482	394.2
2327.351	394.2
2331.216	414.2
2335.078	409.2
2338.937	395.2
2342.792	382.2
2346.643	365.2
2350.492	374.2
2354.336	362.2
2358.178	381.2
2362.015	382.2
2365.85	390.2
2369.681	372.2
2373.508	383.2
2377.333	373.2
2381.153	387.2
2384.971	377.2
2388.785	384.2
2392.595	371.2
2396.402	377.2
2400.206	370.2
2404.007	365.2
2407.804	361.2
2411.597	368.2
2415.388	369.2
2419.174	357.2
2422.958	355.2
2426.738	359.2
2430.515	353.2
2434.289	348.2
2438.059	351.2
2441.825	338.2
2445.589	340.2
2449.349	340.2
2453.106	333.2
2456.859	325.2
2460.61	339.2
2464.356	319.2
2468.1	329.2
2471.84	314.2
2475.577	308.2
2479.311	301.2
2483.041	299.2
2486.768	295.2
2490.492	303.2
2494.213	312.2
2497.93	302.2
2501.644	295.2
2505.355	277.2
2509.062	293.2
2512.766	292.2
2516.467	270.2
2520.165	287.2
2523.859	278.2
2527.551	273.2
2531.239	269.2
2534.923	269.2
2538.605	254.2
2542.283	255.2
2545.958	258.2
2549.63	247.2
2553.299	254.2
2556.964	252.2
2560.626	251.2
2564.285	240.2
2567.941	244.2
2571.594	240.2
2575.243	237.2
2578.89	231.2
2582.533	223.2
2586.173	228.2
2589.809	223.2
2593.443	224.2
2597.073	227.2
2600.701	221.2
2604.325	206.2
2607.946	219.2
2611.564	221.2
2615.178	217.2
2618.79	215.2
2622.398	209.2
2626.004	209.2
2629.606	201.2
2633.205	194.2
2636.801	203.2
2640.394	198.2
2643.983	190.2
2647.57	199.2
2651.153	198.2
2654.734	193.2
2658.311	182.2
2661.885	178.2
2665.456	179.2
2669.025	187.2
2672.589	180.2
2676.151	184.2
2679.71	181.2
2683.266	174.2
2686.819	167.2
2690.368	169.2
2693.915	167.2
2697.458	163.2
2700.999	159.2
2704.536	158.2
2708.071	146.2
2711.602	157.2
2715.13	158.2
2718.656	141.2
2722.178	144.2
2725.697	137.2
2729.214	139.2
2732.727	141.2
2736.237	138.2
2739.744	139.2
2743.249	128.2
2746.75	129.2
2750.248	126.2
2753.743	117.2
2757.236	119.2
2760.725	121.2
2764.211	103.2
2767.695	108.2
2771.175	115.2
2774.652	105.2
2778.127	108.2
2781.598	114.2
2785.067	111.2
2788.532	109.2
2791.995	108.2
2795.455	113.2
2798.911	101.2
2802.365	119.2
2805.816	113.2
2809.264	117.2
2812.709	113.2
2816.151	112.2
2819.59	113.2
2823.026	107.2
2826.46	113.2
2829.89	117.2
2833.318	120.2
2836.742	127.2
2840.164	112.2
2843.583	113.2
2846.999	113.2
2850.412	110.2
2853.822	123.2
2857.229	125.2
2860.634	122.2
2864.035	128.2
2867.434	128.2
2870.83	131.2
2874.223	143.2
2877.613	149.2
2881	162.2
2884.385	151.2
2887.766	150.2
2891.145	146.2
2894.521	144.2
2897.894	153.2
2901.264	156.2
2904.631	153.2
2907.996	156.2
2911.358	155.2
2914.717	158.2
2918.073	170.2
2921.426	164.2
2924.777	176.2
2928.124	174.2
2931.469	168.2
2934.811	181.2
2938.15	187.2
2941.487	197.2
2944.821	188.2
2948.152	193.2
2951.48	183.2
2954.805	188.2
2958.128	184.2
2961.447	170.2
2964.765	181.2
2968.079	181.2
2971.39	179.2
2974.699	184.2
2978.005	178.2
2981.308	184.2
2984.609	184.2
2987.907	173.2
2991.202	184.2
2994.494	186.2
2997.784	184.2
3001.07	195.2
3004.355	202.2
3007.636	209.2
3010.915	188.2
3014.191	189.2
3017.464	199.2
3020.734	209.2
3024.002	199.2
3027.267	215.2
3030.53	224.2
3033.789	219.2
3037.046	224.2
3040.301	225.2
3043.552	240.2
3046.801	244.2
3050.048	253.2
3053.291	264.2
3056.532	269.2
3059.771	281.2
3063.006	290.2
3066.239	300.2
3069.469	311.2
3072.697	324.2
3075.922	328.2
3079.144	331.2
3082.364	347.2
3085.581	342.2
3088.795	354.2
3092.007	357.2
3095.216	374.2
3098.423	378.2
3101.627	392.2
3104.828	398.2
3108.026	393.2
3111.222	411.2
3114.416	414.2
3117.607	432.2
3120.795	424.2
3123.98	430.2
3127.163	452.2
3130.344	469.2
3133.521	478.2
3136.696	485.2
3139.869	498.2
3143.039	500.2
3146.206	503.2
3149.371	512.2
3152.533	516.2
3155.693	529.2
3158.85	533.2
3162.005	548.2
3165.157	541.2
3168.306	538.2
3171.453	537.2
3174.597	531.2
3177.739	547.2
3180.878	552.2
3184.014	553.2
3187.149	553.2
3190.28	545.2
3193.409	553.2
3196.536	554.2
3199.659	557.2
3202.781	581.2
3205.9	565.2
3209.016	563.2
3212.13	574.2
3215.241	549.2
3218.35	549.2
3221.456	546.2
3224.56	540.2
3227.661	521.2
3230.76	530.2
3233.856	517.2
3236.95	508.2
3240.041	503.2
3243.13	491.2
3246.216	479.2
3249.3	473.2
3252.382	465.2
3255.46	474.2
3258.537	465.2
3261.611	469.2
3264.682	463.2
3267.751	460.2
3270.818	455.2
3273.882	446.2
3276.943	437.2
3280.002	448.2
3283.059	444.2
3286.113	444.2
3289.165	425.2
3292.214	421.2
3295.261	416.2
3298.306	418.2
3301.348	418.2
3304.387	402.2
3307.425	406.2
3310.459	405.2
3313.492	381.2
3316.521	388.2
3319.549	380.2
3322.574	392.2
3325.597	380.2
3328.617	384.2
3331.635	378.2
3334.65	375.2
3337.663	366.2
3340.674	378.2
3343.682	366.2
3346.688	363.2
3349.691	383.2
3352.692	375.2
3355.691	367.2
3358.687	366.2
3361.681	360.2
3364.673	356.2
3367.662	344.2
3370.649	336.2
3373.633	330.2
3376.615	327.2
3379.595	322.2
3382.572	329.2
3385.547	326.2
3388.52	310.2
3391.49	306.2
3394.458	299.2
3397.424	299.2
3400.387	304.2
3403.348	296.2
3406.307	283.2
3409.263	278.2
3412.217	285.2
3415.168	281.2
3418.118	271.2
3421.065	254.2
3424.009	270.2
3426.951	265.2
3429.891	253.2
3432.829	245.2
3435.764	247.2
3438.697	227.2
3441.628	219.2
3444.557	216.2
3447.483	213.2
3450.407	195.2
3453.328	186.2
3456.247	191.2
3459.164	168.2
3462.079	169.2
3464.991	162.2
3467.902	158.2
3470.809	162.2
3473.715	148.2
3476.618	123.2
3479.519	129.2
3482.418	114.2
3485.315	121.2
3488.209	113.2
3491.101	112.2
3493.99	115.2
3496.878	100.2
3499.763	90.2
3502.646	80.2
3505.527	73.2
3508.405	73.2
3511.281	65.2
3514.155	68.2
3517.027	48.2
3519.897	52.2
3522.764	42.2
3525.629	36.2
3528.492	26.2
3531.352	24.2
3534.211	20.2
3537.067	13.2
3539.921	13.2
3542.773	10.2
3545.622	-1.8
3548.469	-4.8
3551.315	-9.8
3554.157	-8.8
3556.998	-14.8
3559.837	-17.8
3562.673	-15.8
3565.507	-20.8
3568.339	-24.8
3571.169	-36.8
3573.996	-36.8
3576.822	-33.8
3579.645	-39.8
3582.466	-36.8
3585.285	-38.8
3588.101	-30.8
3590.916	-46.8
3593.728	-60.8
3596.538	-51.8
3599.346	-55.8
3602.152	-58.8
3604.956	-60.8
3607.757	-60.8
3610.556	-58.8
3613.354	-61.8
3616.149	-73.8
3618.942	-74.8
3621.732	-77.8
3624.521	-76.8
3627.307	-72.8
3630.092	-67.8
3632.874	-68.8
3635.654	-82.8
3638.432	-79.8
3641.208	-83.8
3643.982	-81.8
3646.753	-88.8
3649.523	-86.8
3652.29	-83.8
3655.055	-87.8
3657.818	-87.8
3660.579	-92.8
3663.338	-87.8
3666.095	-91.8
3668.849	-94.8
3671.602	-96.8
3674.352	-98.8
3677.101	-98.8
3679.847	-98.8
3682.591	-99.8
3685.333	-100.8
3688.073	-103.8
3690.811	-106.8
3693.547	-109.8
3696.281	-104.8
3699.013	-110.8
3701.742	-103.8
3704.47	-109.8
3707.195	-105.8
3709.919	-106.8
3712.64	-109.8
3715.359	-112.8
3718.076	-105.8
3720.792	-107.8
3723.505	-112.8
3726.216	-108.8
3728.925	-116.8
3731.632	-113.8
3734.336	-117.8
3737.039	-112.8
3739.74	-120.8
3742.439	-113.8
3745.136	-111.8
3747.83	-115.8
3750.523	-114.8
3753.213	-111.8
3755.902	-113.8
3758.589	-118.8
3761.273	-115.8
3763.956	-114.8
3766.636	-114.8
3769.315	-108.8
3771.991	-108.8
3774.665	-117.8
3777.338	-112.8
3780.008	-113.8
3782.677	-118.8
3785.343	-116.8
3788.007	-118.8
3790.67	-120.8
3793.33	-107.8
3795.989	-113.8
3798.645	-115.8
3801.299	-117.8
3803.952	-123.8
3806.602	-118.8
3809.251	-122.8
3811.897	-122.8
3814.542	-121.8
3817.184	-117.8
3819.825	-114.8
3822.463	-116.8
3825.1	-115.8
3827.735	-120.8
3830.367	-119.8
3832.998	-119.8
3835.627	-121.8
3838.253	-116.8
3840.878	-119.8
3843.501	-114.8
3846.122	-117.8
3848.741	-125.8
3851.358	-120.8
3853.973	-124.8
3856.586	-118.8
3859.197	-127.8
3861.806	-114.8
3864.414	-118.8
3867.019	-112.8
3869.622	-119.8
3872.224	-111.8
3874.823	-101.8
3877.421	-94.8
3880.016	-69.8
3882.61	-42.8
3885.202	-41.8
3887.792	-63.8
3890.38	-87.8
3892.966	-107.8
3895.55	-121.8
3898.132	-119.8
3900.713	-121.8
3903.291	-119.8
3905.868	-117.8
3908.442	-121.8
3911.015	-123.8
3913.586	-119.8
3916.155	-121.8
3918.722	-121.8
3921.287	-120.8
3923.85	-120.8
3926.411	-124.8
3928.971	-121.8
3931.528	-123.8
3934.084	-118.8
3936.638	-119.8
3939.19	-130.8
3941.74	-118.8
3944.288	-127.8
3946.834	-117.8
3949.378	-118.8
3951.921	-124.8
3954.462	-132.8
3957	-126.8
3959.537	-119.8
3962.072	-125.8
3964.606	-113.8
3967.137	-121.8
3969.667	-121.8
3972.194	-125.8
3974.72	-122.8
3977.244	-118.8
3979.766	-124.8
3982.286	-119.8
3984.805	-127.8
3987.321	-118.8
3989.836	-110.8
3992.349	-116.8
3994.86	-119.8
3997.369	-120.8
3999.877	-122.8
4002.382	-116.8
4004.886	-126.8
4007.388	-120.8
4009.888	-120.8
4012.386	-123.8
4014.883	-123.8
4017.377	-120.8
4019.87	-120.8
4022.361	-123.8
4024.85	-124.8
4027.338	-117.8
4029.823	-118.8
4032.307	-117.8
4034.789	-127.8
4037.269	-119.8
4039.747	-117.8
4042.224	-118.8
4044.699	-125.8
4047.172	-117.8
4049.643	-119.8
4052.112	-124.8
4054.58	-119.8
4057.046	-121.8
4059.51	-123.8
4061.972	-120.8
4064.432	-116.8
4066.891	-121.8
4069.348	-117.8
4071.803	-127.8
4074.256	-123.8
4076.708	-116.8
4079.158	-117.8
4081.606	-117.8
4084.052	-127.8
4086.497	-117.8
4088.939	-111.8
4091.38	-122.8
4093.819	-118.8
4096.257	-123.8
4098.693	-124.8
4101.127	-124.8
4103.559	-122.8
4105.989	5.2
4108.418	-1.8
4110.845	0.2
4113.27	2.2
4115.694	-1.8
4118.115	-0.8
4120.535	-117.8
4122.954	-124.8
4125.37	-118.8
4127.785	-118.8
4130.198	-122.8
4132.609	-120.8
4135.019	-129.8
4137.427	-122.8
4139.833	-127.8
4142.237	-128.8
