Data from 2018-2-8_conc=4_n=2_RamanShift_02.txt Node
Date: Mon Mar 12 15:12:28 IST 2018
User: aro
Spectrometer: QEPB0276
Trigger mode: 0
Integration Time (sec): 3.000000E1
Scans to average: 1
Electric dark correction enabled: true
Nonlinearity correction enabled: false
Boxcar width: 0
XAxis mode: Raman Shifts
Number of Pixels in Spectrum: 1044
>>>>>Begin Spectral Data<<<<<
160.701	11.4
166.742	43.4
172.777	109.4
178.805	343.4
184.826	938.4
190.841	1991.4
196.849	3292.4
202.85	4324.4
208.845	4736.4
214.833	4724.4
220.815	4681.4
226.789	4662.4
232.758	4658.4
238.719	4650.4
244.674	4648.4
250.623	4600.4
256.565	4545.4
262.5	4485.4
268.429	4428.4
274.351	4407.4
280.267	4360.4
286.176	4352.4
292.079	4313.4
297.975	4293.4
303.865	4314.4
309.748	4257.4
315.625	4251.4
321.495	4255.4
327.359	4272.4
333.217	4266.4
339.068	4289.4
344.912	4275.4
350.751	4276.4
356.583	4310.4
362.408	4316.4
368.227	4302.4
374.04	4320.4
379.847	4335.4
385.647	4378.4
391.44	4386.4
397.228	4390.4
403.009	4421.4
408.784	4445.4
414.553	4455.4
420.315	4439.4
426.071	4452.4
431.821	4458.4
437.565	4464.4
443.302	4447.4
449.033	4452.4
454.758	4409.4
460.477	4419.4
466.189	4400.4
471.896	4342.4
477.596	4337.4
483.29	4301.4
488.978	4305.4
494.66	4298.4
500.335	4240.4
506.005	4140.4
511.668	3960.4
517.325	3860.4
522.977	3776.4
528.622	3709.4
534.261	3627.4
539.894	3605.4
545.521	3564.4
551.141	3533.4
556.756	3517.4
562.365	3477.4
567.968	3493.4
573.565	3464.4
579.155	3437.4
584.74	3416.4
590.319	3431.4
595.892	3407.4
601.459	3401.4
607.02	3384.4
612.575	3376.4
618.124	3316.4
623.667	3275.4
629.204	3263.4
634.735	3227.4
640.261	3231.4
645.781	3183.4
651.294	3185.4
656.802	3194.4
662.304	3158.4
667.8	3139.4
673.29	3164.4
678.775	3166.4
684.254	3142.4
689.726	3119.4
695.193	3138.4
700.655	3101.4
706.11	3075.4
711.56	3065.4
717.004	3026.4
722.442	3016.4
727.874	3000.4
733.301	3024.4
738.722	3010.4
744.137	2999.4
749.547	2970.4
754.951	2985.4
760.349	2994.4
765.741	3001.4
771.128	3036.4
776.509	3016.4
781.885	3028.4
787.254	3044.4
792.618	3058.4
797.977	3026.4
803.33	3005.4
808.677	2974.4
814.019	2949.4
819.355	2946.4
824.686	2911.4
830.011	2911.4
835.33	2900.4
840.644	2909.4
845.952	2891.4
851.255	2899.4
856.552	2870.4
861.844	2853.4
867.13	2838.4
872.41	2835.4
877.686	2826.4
882.955	2800.4
888.219	2753.4
893.478	2731.4
898.731	2682.4
903.979	2661.4
909.221	2641.4
914.458	2618.4
919.69	2620.4
924.916	2626.4
930.136	2622.4
935.351	2650.4
940.561	2645.4
945.766	2611.4
950.965	2625.4
956.158	2606.4
961.347	2575.4
966.529	2550.4
971.707	2491.4
976.879	2469.4
982.046	2430.4
987.208	2427.4
992.364	2451.4
997.515	2443.4
1002.66	2472.4
1007.801	2490.4
1012.936	2500.4
1018.066	2521.4
1023.19	2497.4
1028.309	2510.4
1033.423	2520.4
1038.532	2511.4
1043.636	2482.4
1048.734	2451.4
1053.827	2441.4
1058.915	2410.4
1063.998	2391.4
1069.075	2378.4
1074.147	2372.4
1079.214	2375.4
1084.276	2386.4
1089.333	2410.4
1094.385	2404.4
1099.431	2405.4
1104.472	2406.4
1109.509	2393.4
1114.54	2357.4
1119.565	2329.4
1124.586	2283.4
1129.602	2260.4
1134.613	2274.4
1139.618	2242.4
1144.619	2232.4
1149.614	2220.4
1154.604	2250.4
1159.589	2252.4
1164.57	2250.4
1169.545	2254.4
1174.515	2242.4
1179.48	2238.4
1184.44	2233.4
1189.395	2226.4
1194.345	2197.4
1199.29	2179.4
1204.23	2157.4
1209.165	2176.4
1214.095	2190.4
1219.021	2199.4
1223.941	2223.4
1228.856	2233.4
1233.766	2221.4
1238.672	2216.4
1243.572	2219.4
1248.467	2202.4
1253.358	2174.4
1258.244	2130.4
1263.124	2118.4
1268	2074.4
1272.871	2052.4
1277.737	2039.4
1282.599	2029.4
1287.455	2022.4
1292.306	2035.4
1297.153	2047.4
1301.995	2053.4
1306.832	2064.4
1311.664	2073.4
1316.491	2096.4
1321.314	2053.4
1326.132	2047.4
1330.945	2031.4
1335.753	2024.4
1340.556	1973.4
1345.354	1950.4
1350.148	1903.4
1354.937	1901.4
1359.722	1856.4
1364.501	1845.4
1369.276	1802.4
1374.046	1782.4
1378.811	1762.4
1383.572	1737.4
1388.327	1734.4
1393.079	1741.4
1397.825	1751.4
1402.567	1748.4
1407.304	1754.4
1412.036	1733.4
1416.764	1756.4
1421.487	1751.4
1426.205	1756.4
1430.919	1742.4
1435.628	1781.4
1440.333	1789.4
1445.032	1813.4
1449.727	1810.4
1454.418	1812.4
1459.104	1807.4
1463.785	1783.4
1468.462	1771.4
1473.134	1736.4
1477.802	1692.4
1482.465	1660.4
1487.123	1630.4
1491.777	1593.4
1496.426	1596.4
1501.071	1576.4
1505.711	1577.4
1510.347	1580.4
1514.978	1563.4
1519.604	1573.4
1524.226	1560.4
1528.844	1537.4
1533.457	1526.4
1538.065	1535.4
1542.669	1540.4
1547.269	1537.4
1551.864	1534.4
1556.454	1541.4
1561.041	1558.4
1565.622	1559.4
1570.199	1579.4
1574.772	1591.4
1579.34	1610.4
1583.904	1616.4
1588.464	1644.4
1593.019	1639.4
1597.569	1634.4
1602.115	1634.4
1606.657	1619.4
1611.195	1614.4
1615.728	1618.4
1620.256	1620.4
1624.78	1609.4
1629.3	1623.4
1633.816	1619.4
1638.327	1635.4
1642.834	1646.4
1647.336	1643.4
1651.834	1666.4
1656.328	1648.4
1660.817	1640.4
1665.302	1622.4
1669.783	1602.4
1674.259	1568.4
1678.732	1529.4
1683.199	1497.4
1687.663	1436.4
1692.122	1415.4
1696.577	1345.4
1701.028	1292.4
1705.474	1251.4
1709.917	1206.4
1714.355	1170.4
1718.788	1204.4
1723.218	1180.4
1727.643	1178.4
1732.064	1168.4
1736.481	1157.4
1740.893	1137.4
1745.301	1102.4
1749.705	1097.4
1754.105	1081.4
1758.501	1047.4
1762.893	1034.4
1767.28	1024.4
1771.663	1024.4
1776.042	1033.4
1780.417	1015.4
1784.787	988.4
1789.154	976.4
1793.516	976.4
1797.874	962.4
1802.228	947.4
1806.578	954.4
1810.924	933.4
1815.266	913.4
1819.603	917.4
1823.937	921.4
1828.266	919.4
1832.591	911.4
1836.913	914.4
1841.23	926.4
1845.543	922.4
1849.852	908.4
1854.156	912.4
1858.457	917.4
1862.754	915.4
1867.047	903.4
1871.335	911.4
1875.62	900.4
1879.9	924.4
1884.177	892.4
1888.449	894.4
1892.718	884.4
1896.982	871.4
1901.243	860.4
1905.499	863.4
1909.752	835.4
1914	837.4
1918.245	825.4
1922.485	805.4
1926.722	820.4
1930.954	816.4
1935.183	790.4
1939.408	794.4
1943.628	798.4
1947.845	792.4
1952.058	779.4
1956.267	783.4
1960.472	760.4
1964.673	753.4
1968.87	755.4
1973.063	754.4
1977.252	750.4
1981.438	751.4
1985.619	748.4
1989.797	731.4
1993.971	747.4
1998.14	752.4
2002.306	725.4
2006.469	757.4
2010.627	749.4
2014.781	745.4
2018.932	741.4
2023.078	754.4
2027.221	731.4
2031.36	740.4
2035.495	724.4
2039.627	704.4
2043.754	697.4
2047.878	698.4
2051.998	695.4
2056.114	688.4
2060.226	696.4
2064.334	685.4
2068.439	681.4
2072.54	674.4
2076.637	672.4
2080.73	677.4
2084.82	674.4
2088.906	667.4
2092.988	654.4
2097.066	657.4
2101.14	647.4
2105.211	644.4
2109.278	622.4
2113.342	622.4
2117.401	620.4
2121.457	612.4
2125.509	608.4
2129.558	608.4
2133.602	608.4
2137.643	613.4
2141.681	591.4
2145.714	599.4
2149.744	605.4
2153.77	603.4
2157.793	590.4
2161.812	595.4
2165.827	589.4
2169.838	581.4
2173.846	558.4
2177.851	556.4
2181.851	548.4
2185.848	546.4
2189.841	544.4
2193.831	536.4
2197.817	533.4
2201.799	528.4
2205.778	524.4
2209.753	524.4
2213.725	526.4
2217.693	532.4
2221.657	516.4
2225.618	529.4
2229.575	524.4
2233.529	523.4
2237.479	517.4
2241.425	509.4
2245.368	491.4
2249.307	491.4
2253.243	494.4
2257.175	480.4
2261.104	479.4
2265.029	453.4
2268.95	474.4
2272.868	448.4
2276.783	449.4
2280.694	439.4
2284.601	438.4
2288.505	437.4
2292.405	424.4
2296.302	429.4
2300.195	427.4
2304.085	408.4
2307.971	403.4
2311.854	404.4
2315.734	387.4
2319.609	374.4
2323.482	395.4
2327.351	387.4
2331.216	390.4
2335.078	401.4
2338.937	392.4
2342.792	378.4
2346.643	361.4
2350.492	363.4
2354.336	368.4
2358.178	368.4
2362.015	362.4
2365.85	380.4
2369.681	370.4
2373.508	367.4
2377.333	366.4
2381.153	358.4
2384.971	367.4
2388.785	379.4
2392.595	365.4
2396.402	355.4
2400.206	352.4
2404.007	355.4
2407.804	346.4
2411.597	348.4
2415.388	345.4
2419.174	351.4
2422.958	342.4
2426.738	342.4
2430.515	345.4
2434.289	343.4
2438.059	336.4
2441.825	335.4
2445.589	334.4
2449.349	319.4
2453.106	315.4
2456.859	325.4
2460.61	314.4
2464.356	310.4
2468.1	309.4
2471.84	312.4
2475.577	293.4
2479.311	283.4
2483.041	289.4
2486.768	290.4
2490.492	280.4
2494.213	284.4
2497.93	299.4
2501.644	291.4
2505.355	275.4
2509.062	271.4
2512.766	276.4
2516.467	274.4
2520.165	267.4
2523.859	266.4
2527.551	260.4
2531.239	258.4
2534.923	246.4
2538.605	252.4
2542.283	241.4
2545.958	246.4
2549.63	242.4
2553.299	234.4
2556.964	241.4
2560.626	238.4
2564.285	233.4
2567.941	237.4
2571.594	231.4
2575.243	227.4
2578.89	219.4
2582.533	219.4
2586.173	215.4
2589.809	207.4
2593.443	213.4
2597.073	212.4
2600.701	203.4
2604.325	198.4
2607.946	207.4
2611.564	210.4
2615.178	207.4
2618.79	207.4
2622.398	209.4
2626.004	195.4
2629.606	192.4
2633.205	183.4
2636.801	183.4
2640.394	189.4
2643.983	191.4
2647.57	197.4
2651.153	192.4
2654.734	186.4
2658.311	172.4
2661.885	170.4
2665.456	176.4
2669.025	180.4
2672.589	172.4
2676.151	173.4
2679.71	175.4
2683.266	170.4
2686.819	167.4
2690.368	158.4
2693.915	156.4
2697.458	153.4
2700.999	154.4
2704.536	154.4
2708.071	143.4
2711.602	148.4
2715.13	146.4
2718.656	132.4
2722.178	140.4
2725.697	136.4
2729.214	128.4
2732.727	137.4
2736.237	137.4
2739.744	124.4
2743.249	129.4
2746.75	127.4
2750.248	123.4
2753.743	118.4
2757.236	117.4
2760.725	118.4
2764.211	115.4
2767.695	112.4
2771.175	103.4
2774.652	101.4
2778.127	106.4
2781.598	104.4
2785.067	117.4
2788.532	112.4
2791.995	104.4
2795.455	113.4
2798.911	99.4
2802.365	107.4
2805.816	111.4
2809.264	108.4
2812.709	115.4
2816.151	115.4
2819.59	109.4
2823.026	106.4
2826.46	106.4
2829.89	103.4
2833.318	101.4
2836.742	114.4
2840.164	112.4
2843.583	118.4
2846.999	114.4
2850.412	115.4
2853.822	113.4
2857.229	112.4
2860.634	124.4
2864.035	125.4
2867.434	129.4
2870.83	136.4
2874.223	147.4
2877.613	144.4
2881	152.4
2884.385	149.4
2887.766	136.4
2891.145	145.4
2894.521	149.4
2897.894	152.4
2901.264	144.4
2904.631	157.4
2907.996	157.4
2911.358	154.4
2914.717	155.4
2918.073	155.4
2921.426	159.4
2924.777	164.4
2928.124	173.4
2931.469	160.4
2934.811	179.4
2938.15	179.4
2941.487	184.4
2944.821	177.4
2948.152	179.4
2951.48	191.4
2954.805	196.4
2958.128	184.4
2961.447	178.4
2964.765	182.4
2968.079	171.4
2971.39	186.4
2974.699	185.4
2978.005	187.4
2981.308	184.4
2984.609	188.4
2987.907	183.4
2991.202	198.4
2994.494	194.4
2997.784	197.4
3001.07	201.4
3004.355	211.4
3007.636	209.4
3010.915	200.4
3014.191	206.4
3017.464	205.4
3020.734	206.4
3024.002	201.4
3027.267	224.4
3030.53	221.4
3033.789	232.4
3037.046	236.4
3040.301	226.4
3043.552	258.4
3046.801	254.4
3050.048	255.4
3053.291	262.4
3056.532	285.4
3059.771	276.4
3063.006	293.4
3066.239	310.4
3069.469	313.4
3072.697	320.4
3075.922	337.4
3079.144	334.4
3082.364	345.4
3085.581	362.4
3088.795	363.4
3092.007	368.4
3095.216	377.4
3098.423	388.4
3101.627	394.4
3104.828	407.4
3108.026	414.4
3111.222	425.4
3114.416	425.4
3117.607	441.4
3120.795	445.4
3123.98	464.4
3127.163	470.4
3130.344	488.4
3133.521	486.4
3136.696	503.4
3139.869	521.4
3143.039	514.4
3146.206	522.4
3149.371	533.4
3152.533	536.4
3155.693	548.4
3158.85	563.4
3162.005	554.4
3165.157	561.4
3168.306	555.4
3171.453	550.4
3174.597	556.4
3177.739	564.4
3180.878	571.4
3184.014	575.4
3187.149	574.4
3190.28	578.4
3193.409	580.4
3196.536	581.4
3199.659	592.4
3202.781	587.4
3205.9	589.4
3209.016	588.4
3212.13	586.4
3215.241	590.4
3218.35	580.4
3221.456	563.4
3224.56	566.4
3227.661	561.4
3230.76	559.4
3233.856	546.4
3236.95	532.4
3240.041	530.4
3243.13	518.4
3246.216	507.4
3249.3	500.4
3252.382	506.4
3255.46	512.4
3258.537	506.4
3261.611	496.4
3264.682	467.4
3267.751	487.4
3270.818	475.4
3273.882	480.4
3276.943	471.4
3280.002	476.4
3283.059	479.4
3286.113	460.4
3289.165	463.4
3292.214	451.4
3295.261	440.4
3298.306	447.4
3301.348	445.4
3304.387	432.4
3307.425	429.4
3310.459	423.4
3313.492	438.4
3316.521	443.4
3319.549	406.4
3322.574	403.4
3325.597	404.4
3328.617	397.4
3331.635	397.4
3334.65	396.4
3337.663	382.4
3340.674	397.4
3343.682	397.4
3346.688	385.4
3349.691	394.4
3352.692	393.4
3355.691	386.4
3358.687	380.4
3361.681	381.4
3364.673	382.4
3367.662	372.4
3370.649	363.4
3373.633	360.4
3376.615	346.4
3379.595	348.4
3382.572	338.4
3385.547	329.4
3388.52	325.4
3391.49	328.4
3394.458	321.4
3397.424	314.4
3400.387	314.4
3403.348	309.4
3406.307	304.4
3409.263	297.4
3412.217	297.4
3415.168	294.4
3418.118	297.4
3421.065	274.4
3424.009	268.4
3426.951	276.4
3429.891	255.4
3432.829	256.4
3435.764	253.4
3438.697	246.4
3441.628	237.4
3444.557	228.4
3447.483	222.4
3450.407	209.4
3453.328	210.4
3456.247	201.4
3459.164	184.4
3462.079	180.4
3464.991	172.4
3467.902	166.4
3470.809	167.4
3473.715	150.4
3476.618	139.4
3479.519	148.4
3482.418	129.4
3485.315	130.4
3488.209	115.4
3491.101	121.4
3493.99	111.4
3496.878	113.4
3499.763	92.4
3502.646	92.4
3505.527	79.4
3508.405	86.4
3511.281	73.4
3514.155	70.4
3517.027	58.4
3519.897	54.4
3522.764	53.4
3525.629	40.4
3528.492	38.4
3531.352	41.4
3534.211	26.4
3537.067	18.4
3539.921	21.4
3542.773	12.4
3545.622	9.4
3548.469	4.4
3551.315	-0.6
3554.157	2.4
3556.998	-14.6
3559.837	-7.6
3562.673	-16.6
3565.507	-15.6
3568.339	-25.6
3571.169	-38.6
3573.996	-22.6
3576.822	-26.6
3579.645	-28.6
3582.466	-35.6
3585.285	-38.6
3588.101	-31.6
3590.916	-40.6
3593.728	-48.6
3596.538	-49.6
3599.346	-53.6
3602.152	-51.6
3604.956	-48.6
3607.757	-51.6
3610.556	-61.6
3613.354	-57.6
3616.149	-68.6
3618.942	-61.6
3621.732	-65.6
3624.521	-66.6
3627.307	-70.6
3630.092	-69.6
3632.874	-67.6
3635.654	-85.6
3638.432	-73.6
3641.208	-74.6
3643.982	-81.6
3646.753	-83.6
3649.523	-83.6
3652.29	-78.6
3655.055	-87.6
3657.818	-87.6
3660.579	-84.6
3663.338	-87.6
3666.095	-92.6
3668.849	-93.6
3671.602	-91.6
3674.352	-94.6
3677.101	-95.6
3679.847	-101.6
3682.591	-99.6
3685.333	-100.6
3688.073	-99.6
3690.811	-101.6
3693.547	-105.6
3696.281	-108.6
3699.013	-108.6
3701.742	-106.6
3704.47	-110.6
3707.195	-104.6
3709.919	-105.6
3712.64	-112.6
3715.359	-110.6
3718.076	-106.6
3720.792	-110.6
3723.505	-116.6
3726.216	-110.6
3728.925	-110.6
3731.632	-113.6
3734.336	-114.6
3737.039	-108.6
3739.74	-111.6
3742.439	-113.6
3745.136	-109.6
3747.83	-121.6
3750.523	-113.6
3753.213	-109.6
3755.902	-111.6
3758.589	-115.6
3761.273	-111.6
3763.956	-113.6
3766.636	-114.6
3769.315	-113.6
3771.991	-113.6
3774.665	-120.6
3777.338	-106.6
3780.008	-113.6
3782.677	-116.6
3785.343	-114.6
3788.007	-115.6
3790.67	-119.6
3793.33	-116.6
3795.989	-121.6
3798.645	-113.6
3801.299	-112.6
3803.952	-122.6
3806.602	-113.6
3809.251	-122.6
3811.897	-125.6
3814.542	-126.6
3817.184	-113.6
3819.825	-115.6
3822.463	-114.6
3825.1	-114.6
3827.735	-120.6
3830.367	-120.6
3832.998	-118.6
3835.627	-120.6
3838.253	-117.6
3840.878	-116.6
3843.501	-112.6
3846.122	-118.6
3848.741	-121.6
3851.358	-115.6
3853.973	-120.6
3856.586	-118.6
3859.197	-124.6
3861.806	-113.6
3864.414	-118.6
3867.019	-118.6
3869.622	-116.6
3872.224	-112.6
3874.823	-104.6
3877.421	-95.6
3880.016	-73.6
3882.61	-54.6
3885.202	-56.6
3887.792	-71.6
3890.38	-91.6
3892.966	-116.6
3895.55	-114.6
3898.132	-119.6
3900.713	-118.6
3903.291	-121.6
3905.868	-122.6
3908.442	-118.6
3911.015	-125.6
3913.586	-121.6
3916.155	-123.6
3918.722	-119.6
3921.287	-123.6
3923.85	-125.6
3926.411	-121.6
3928.971	-119.6
3931.528	-124.6
3934.084	-120.6
3936.638	-117.6
3939.19	-126.6
3941.74	-125.6
3944.288	-125.6
3946.834	-120.6
3949.378	-120.6
3951.921	-124.6
3954.462	-129.6
3957	-123.6
3959.537	-120.6
3962.072	-121.6
3964.606	-116.6
3967.137	-117.6
3969.667	-120.6
3972.194	-125.6
3974.72	-124.6
3977.244	-124.6
3979.766	-121.6
3982.286	-117.6
3984.805	-121.6
3987.321	-118.6
3989.836	-111.6
3992.349	-122.6
3994.86	-120.6
3997.369	-121.6
3999.877	-121.6
4002.382	-120.6
4004.886	-116.6
4007.388	-120.6
4009.888	-118.6
4012.386	-119.6
4014.883	-119.6
4017.377	-123.6
4019.87	-118.6
4022.361	-123.6
4024.85	-124.6
4027.338	-115.6
4029.823	-113.6
4032.307	-114.6
4034.789	-124.6
4037.269	-115.6
4039.747	-121.6
4042.224	-121.6
4044.699	-118.6
4047.172	-116.6
4049.643	-115.6
4052.112	-119.6
4054.58	-123.6
4057.046	-123.6
4059.51	-120.6
4061.972	-124.6
4064.432	-116.6
4066.891	-119.6
4069.348	-117.6
4071.803	-119.6
4074.256	-123.6
4076.708	-115.6
4079.158	-117.6
4081.606	-113.6
4084.052	-121.6
4086.497	-120.6
4088.939	-111.6
4091.38	-120.6
4093.819	-118.6
4096.257	-127.6
4098.693	-129.6
4101.127	-124.6
4103.559	-121.6
4105.989	7.4
4108.418	-0.6
4110.845	-4.6
4113.27	1.4
4115.694	-4.6
4118.115	-6.6
4120.535	-120.6
4122.954	-123.6
4125.37	-119.6
4127.785	-114.6
4130.198	-119.6
4132.609	-113.6
4135.019	-123.6
4137.427	-130.6
4139.833	-126.6
4142.237	-126.6
