Data from 2018-2-8_conc=2_n=9_RamanShift_03.txt Node
Date: Mon Mar 12 14:22:58 IST 2018
User: aro
Spectrometer: QEPB0276
Trigger mode: 0
Integration Time (sec): 3.000000E1
Scans to average: 1
Electric dark correction enabled: true
Nonlinearity correction enabled: false
Boxcar width: 0
XAxis mode: Raman Shifts
Number of Pixels in Spectrum: 1044
>>>>>Begin Spectral Data<<<<<
160.701	7.9
166.742	40.9
172.777	121.9
178.805	376.9
184.826	1032.9
190.841	2199.9
196.849	3650.9
202.85	4788.9
208.845	5243.9
214.833	5265.9
220.815	5207.9
226.789	5172.9
232.758	5159.9
238.719	5193.9
244.674	5154.9
250.623	5074.9
256.565	5020.9
262.5	4935.9
268.429	4885.9
274.351	4817.9
280.267	4777.9
286.176	4772.9
292.079	4750.9
297.975	4715.9
303.865	4692.9
309.748	4690.9
315.625	4683.9
321.495	4663.9
327.359	4636.9
333.217	4631.9
339.068	4658.9
344.912	4697.9
350.751	4683.9
356.583	4686.9
362.408	4690.9
368.227	4674.9
374.04	4698.9
379.847	4726.9
385.647	4714.9
391.44	4764.9
397.228	4776.9
403.009	4809.9
408.784	4836.9
414.553	4865.9
420.315	4836.9
426.071	4855.9
431.821	4865.9
437.565	4840.9
443.302	4864.9
449.033	4814.9
454.758	4797.9
460.477	4786.9
466.189	4762.9
471.896	4743.9
477.596	4724.9
483.29	4680.9
488.978	4674.9
494.66	4663.9
500.335	4597.9
506.005	4477.9
511.668	4350.9
517.325	4273.9
522.977	4111.9
528.622	4068.9
534.261	4004.9
539.894	3988.9
545.521	3947.9
551.141	3905.9
556.756	3881.9
562.365	3851.9
567.968	3843.9
573.565	3796.9
579.155	3766.9
584.74	3754.9
590.319	3765.9
595.892	3767.9
601.459	3731.9
607.02	3718.9
612.575	3721.9
618.124	3681.9
623.667	3640.9
629.204	3611.9
634.735	3566.9
640.261	3575.9
645.781	3519.9
651.294	3517.9
656.802	3516.9
662.304	3508.9
667.8	3512.9
673.29	3489.9
678.775	3489.9
684.254	3494.9
689.726	3457.9
695.193	3438.9
700.655	3439.9
706.11	3414.9
711.56	3382.9
717.004	3391.9
722.442	3347.9
727.874	3334.9
733.301	3312.9
738.722	3326.9
744.137	3312.9
749.547	3300.9
754.951	3301.9
760.349	3301.9
765.741	3294.9
771.128	3313.9
776.509	3360.9
781.885	3350.9
787.254	3341.9
792.618	3335.9
797.977	3337.9
803.33	3319.9
808.677	3306.9
814.019	3271.9
819.355	3260.9
824.686	3236.9
830.011	3204.9
835.33	3195.9
840.644	3173.9
845.952	3189.9
851.255	3156.9
856.552	3181.9
861.844	3168.9
867.13	3131.9
872.41	3115.9
877.686	3111.9
882.955	3088.9
888.219	3054.9
893.478	3019.9
898.731	2986.9
903.979	2936.9
909.221	2924.9
914.458	2904.9
919.69	2874.9
924.916	2921.9
930.136	2892.9
935.351	2913.9
940.561	2918.9
945.766	2895.9
950.965	2907.9
956.158	2866.9
961.347	2842.9
966.529	2799.9
971.707	2791.9
976.879	2728.9
982.046	2704.9
987.208	2700.9
992.364	2672.9
997.515	2702.9
1002.66	2729.9
1007.801	2750.9
1012.936	2788.9
1018.066	2773.9
1023.19	2777.9
1028.309	2779.9
1033.423	2784.9
1038.532	2767.9
1043.636	2737.9
1048.734	2720.9
1053.827	2684.9
1058.915	2650.9
1063.998	2636.9
1069.075	2624.9
1074.147	2633.9
1079.214	2614.9
1084.276	2668.9
1089.333	2639.9
1094.385	2670.9
1099.431	2659.9
1104.472	2663.9
1109.509	2664.9
1114.54	2611.9
1119.565	2574.9
1124.586	2536.9
1129.602	2494.9
1134.613	2512.9
1139.618	2449.9
1144.619	2473.9
1149.614	2468.9
1154.604	2494.9
1159.589	2466.9
1164.57	2498.9
1169.545	2492.9
1174.515	2512.9
1179.48	2474.9
1184.44	2451.9
1189.395	2435.9
1194.345	2406.9
1199.29	2402.9
1204.23	2405.9
1209.165	2435.9
1214.095	2409.9
1219.021	2436.9
1223.941	2472.9
1228.856	2443.9
1233.766	2467.9
1238.672	2459.9
1243.572	2464.9
1248.467	2448.9
1253.358	2410.9
1258.244	2363.9
1263.124	2348.9
1268	2306.9
1272.871	2289.9
1277.737	2256.9
1282.599	2252.9
1287.455	2246.9
1292.306	2254.9
1297.153	2282.9
1301.995	2261.9
1306.832	2292.9
1311.664	2318.9
1316.491	2297.9
1321.314	2287.9
1326.132	2267.9
1330.945	2269.9
1335.753	2215.9
1340.556	2181.9
1345.354	2152.9
1350.148	2125.9
1354.937	2109.9
1359.722	2053.9
1364.501	2014.9
1369.276	1985.9
1374.046	1940.9
1378.811	1910.9
1383.572	1910.9
1388.327	1891.9
1393.079	1906.9
1397.825	1905.9
1402.567	1910.9
1407.304	1921.9
1412.036	1940.9
1416.764	1947.9
1421.487	1923.9
1426.205	1922.9
1430.919	1966.9
1435.628	1943.9
1440.333	1981.9
1445.032	1977.9
1449.727	1984.9
1454.418	2019.9
1459.104	2003.9
1463.785	1951.9
1468.462	1929.9
1473.134	1909.9
1477.802	1861.9
1482.465	1806.9
1487.123	1790.9
1491.777	1760.9
1496.426	1725.9
1501.071	1724.9
1505.711	1712.9
1510.347	1721.9
1514.978	1727.9
1519.604	1705.9
1524.226	1697.9
1528.844	1677.9
1533.457	1677.9
1538.065	1661.9
1542.669	1659.9
1547.269	1659.9
1551.864	1669.9
1556.454	1683.9
1561.041	1714.9
1565.622	1715.9
1570.199	1714.9
1574.772	1729.9
1579.34	1754.9
1583.904	1773.9
1588.464	1798.9
1593.019	1795.9
1597.569	1810.9
1602.115	1806.9
1606.657	1773.9
1611.195	1786.9
1615.728	1780.9
1620.256	1764.9
1624.78	1762.9
1629.3	1789.9
1633.816	1786.9
1638.327	1801.9
1642.834	1801.9
1647.336	1808.9
1651.834	1812.9
1656.328	1807.9
1660.817	1812.9
1665.302	1795.9
1669.783	1734.9
1674.259	1712.9
1678.732	1676.9
1683.199	1621.9
1687.663	1573.9
1692.122	1529.9
1696.577	1474.9
1701.028	1403.9
1705.474	1342.9
1709.917	1288.9
1714.355	1278.9
1718.788	1276.9
1723.218	1279.9
1727.643	1271.9
1732.064	1266.9
1736.481	1249.9
1740.893	1211.9
1745.301	1198.9
1749.705	1184.9
1754.105	1162.9
1758.501	1135.9
1762.893	1121.9
1767.28	1120.9
1771.663	1109.9
1776.042	1083.9
1780.417	1073.9
1784.787	1058.9
1789.154	1052.9
1793.516	1047.9
1797.874	1016.9
1802.228	1012.9
1806.578	1012.9
1810.924	988.9
1815.266	972.9
1819.603	985.9
1823.937	978.9
1828.266	965.9
1832.591	981.9
1836.913	971.9
1841.23	987.9
1845.543	985.9
1849.852	991.9
1854.156	990.9
1858.457	986.9
1862.754	979.9
1867.047	982.9
1871.335	974.9
1875.62	991.9
1879.9	972.9
1884.177	969.9
1888.449	957.9
1892.718	940.9
1896.982	933.9
1901.243	910.9
1905.499	905.9
1909.752	897.9
1914	883.9
1918.245	879.9
1922.485	853.9
1926.722	874.9
1930.954	866.9
1935.183	854.9
1939.408	845.9
1943.628	841.9
1947.845	826.9
1952.058	832.9
1956.267	816.9
1960.472	803.9
1964.673	802.9
1968.87	793.9
1973.063	793.9
1977.252	772.9
1981.438	786.9
1985.619	780.9
1989.797	790.9
1993.971	782.9
1998.14	803.9
2002.306	795.9
2006.469	792.9
2010.627	793.9
2014.781	793.9
2018.932	800.9
2023.078	793.9
2027.221	797.9
2031.36	779.9
2035.495	772.9
2039.627	768.9
2043.754	742.9
2047.878	726.9
2051.998	732.9
2056.114	737.9
2060.226	735.9
2064.334	731.9
2068.439	720.9
2072.54	712.9
2076.637	718.9
2080.73	723.9
2084.82	710.9
2088.906	706.9
2092.988	711.9
2097.066	691.9
2101.14	689.9
2105.211	672.9
2109.278	658.9
2113.342	662.9
2117.401	662.9
2121.457	638.9
2125.509	651.9
2129.558	650.9
2133.602	649.9
2137.643	634.9
2141.681	630.9
2145.714	637.9
2149.744	638.9
2153.77	648.9
2157.793	626.9
2161.812	627.9
2165.827	613.9
2169.838	623.9
2173.846	611.9
2177.851	603.9
2181.851	582.9
2185.848	575.9
2189.841	586.9
2193.831	582.9
2197.817	563.9
2201.799	571.9
2205.778	569.9
2209.753	569.9
2213.725	572.9
2217.693	568.9
2221.657	559.9
2225.618	559.9
2229.575	566.9
2233.529	547.9
2237.479	554.9
2241.425	548.9
2245.368	527.9
2249.307	515.9
2253.243	512.9
2257.175	502.9
2261.104	511.9
2265.029	494.9
2268.95	500.9
2272.868	478.9
2276.783	487.9
2280.694	473.9
2284.601	474.9
2288.505	466.9
2292.405	459.9
2296.302	449.9
2300.195	462.9
2304.085	437.9
2307.971	441.9
2311.854	434.9
2315.734	418.9
2319.609	416.9
2323.482	408.9
2327.351	431.9
2331.216	436.9
2335.078	439.9
2338.937	429.9
2342.792	411.9
2346.643	397.9
2350.492	401.9
2354.336	401.9
2358.178	398.9
2362.015	412.9
2365.85	402.9
2369.681	402.9
2373.508	412.9
2377.333	408.9
2381.153	400.9
2384.971	414.9
2388.785	404.9
2392.595	393.9
2396.402	386.9
2400.206	389.9
2404.007	388.9
2407.804	381.9
2411.597	380.9
2415.388	376.9
2419.174	383.9
2422.958	372.9
2426.738	380.9
2430.515	377.9
2434.289	381.9
2438.059	366.9
2441.825	356.9
2445.589	366.9
2449.349	351.9
2453.106	360.9
2456.859	352.9
2460.61	349.9
2464.356	343.9
2468.1	329.9
2471.84	338.9
2475.577	331.9
2479.311	324.9
2483.041	326.9
2486.768	322.9
2490.492	321.9
2494.213	316.9
2497.93	313.9
2501.644	302.9
2505.355	294.9
2509.062	308.9
2512.766	310.9
2516.467	298.9
2520.165	298.9
2523.859	291.9
2527.551	285.9
2531.239	277.9
2534.923	281.9
2538.605	276.9
2542.283	267.9
2545.958	275.9
2549.63	264.9
2553.299	259.9
2556.964	273.9
2560.626	247.9
2564.285	252.9
2567.941	256.9
2571.594	247.9
2575.243	246.9
2578.89	247.9
2582.533	236.9
2586.173	236.9
2589.809	222.9
2593.443	235.9
2597.073	229.9
2600.701	223.9
2604.325	221.9
2607.946	228.9
2611.564	225.9
2615.178	224.9
2618.79	226.9
2622.398	222.9
2626.004	216.9
2629.606	216.9
2633.205	210.9
2636.801	207.9
2640.394	204.9
2643.983	210.9
2647.57	215.9
2651.153	201.9
2654.734	199.9
2658.311	192.9
2661.885	181.9
2665.456	190.9
2669.025	187.9
2672.589	187.9
2676.151	190.9
2679.71	189.9
2683.266	188.9
2686.819	190.9
2690.368	167.9
2693.915	169.9
2697.458	174.9
2700.999	171.9
2704.536	169.9
2708.071	159.9
2711.602	155.9
2715.13	160.9
2718.656	154.9
2722.178	140.9
2725.697	150.9
2729.214	137.9
2732.727	146.9
2736.237	151.9
2739.744	142.9
2743.249	141.9
2746.75	135.9
2750.248	132.9
2753.743	120.9
2757.236	127.9
2760.725	115.9
2764.211	124.9
2767.695	118.9
2771.175	117.9
2774.652	108.9
2778.127	123.9
2781.598	113.9
2785.067	115.9
2788.532	111.9
2791.995	117.9
2795.455	117.9
2798.911	116.9
2802.365	123.9
2805.816	127.9
2809.264	110.9
2812.709	121.9
2816.151	119.9
2819.59	122.9
2823.026	128.9
2826.46	119.9
2829.89	120.9
2833.318	117.9
2836.742	121.9
2840.164	122.9
2843.583	125.9
2846.999	125.9
2850.412	124.9
2853.822	125.9
2857.229	129.9
2860.634	131.9
2864.035	133.9
2867.434	136.9
2870.83	132.9
2874.223	154.9
2877.613	147.9
2881	164.9
2884.385	162.9
2887.766	159.9
2891.145	148.9
2894.521	158.9
2897.894	166.9
2901.264	161.9
2904.631	164.9
2907.996	164.9
2911.358	168.9
2914.717	170.9
2918.073	181.9
2921.426	179.9
2924.777	186.9
2928.124	183.9
2931.469	185.9
2934.811	195.9
2938.15	198.9
2941.487	203.9
2944.821	203.9
2948.152	210.9
2951.48	210.9
2954.805	210.9
2958.128	201.9
2961.447	201.9
2964.765	204.9
2968.079	196.9
2971.39	198.9
2974.699	212.9
2978.005	200.9
2981.308	207.9
2984.609	205.9
2987.907	198.9
2991.202	217.9
2994.494	215.9
2997.784	209.9
3001.07	223.9
3004.355	226.9
3007.636	217.9
3010.915	229.9
3014.191	228.9
3017.464	242.9
3020.734	229.9
3024.002	225.9
3027.267	247.9
3030.53	242.9
3033.789	257.9
3037.046	252.9
3040.301	261.9
3043.552	278.9
3046.801	290.9
3050.048	297.9
3053.291	297.9
3056.532	308.9
3059.771	326.9
3063.006	327.9
3066.239	343.9
3069.469	355.9
3072.697	358.9
3075.922	373.9
3079.144	382.9
3082.364	389.9
3085.581	398.9
3088.795	397.9
3092.007	413.9
3095.216	422.9
3098.423	417.9
3101.627	448.9
3104.828	455.9
3108.026	449.9
3111.222	469.9
3114.416	476.9
3117.607	492.9
3120.795	500.9
3123.98	495.9
3127.163	523.9
3130.344	539.9
3133.521	544.9
3136.696	557.9
3139.869	559.9
3143.039	581.9
3146.206	580.9
3149.371	589.9
3152.533	599.9
3155.693	603.9
3158.85	613.9
3162.005	599.9
3165.157	606.9
3168.306	623.9
3171.453	621.9
3174.597	627.9
3177.739	630.9
3180.878	629.9
3184.014	643.9
3187.149	635.9
3190.28	637.9
3193.409	625.9
3196.536	644.9
3199.659	658.9
3202.781	654.9
3205.9	650.9
3209.016	656.9
3212.13	653.9
3215.241	640.9
3218.35	638.9
3221.456	625.9
3224.56	620.9
3227.661	614.9
3230.76	613.9
3233.856	604.9
3236.95	586.9
3240.041	587.9
3243.13	557.9
3246.216	572.9
3249.3	560.9
3252.382	552.9
3255.46	561.9
3258.537	552.9
3261.611	544.9
3264.682	522.9
3267.751	530.9
3270.818	525.9
3273.882	521.9
3276.943	529.9
3280.002	526.9
3283.059	520.9
3286.113	511.9
3289.165	507.9
3292.214	501.9
3295.261	501.9
3298.306	491.9
3301.348	478.9
3304.387	483.9
3307.425	479.9
3310.459	481.9
3313.492	456.9
3316.521	449.9
3319.549	462.9
3322.574	447.9
3325.597	443.9
3328.617	461.9
3331.635	453.9
3334.65	447.9
3337.663	440.9
3340.674	442.9
3343.682	430.9
3346.688	438.9
3349.691	440.9
3352.692	444.9
3355.691	431.9
3358.687	419.9
3361.681	427.9
3364.673	417.9
3367.662	404.9
3370.649	397.9
3373.633	395.9
3376.615	378.9
3379.595	386.9
3382.572	388.9
3385.547	370.9
3388.52	368.9
3391.49	359.9
3394.458	359.9
3397.424	356.9
3400.387	347.9
3403.348	348.9
3406.307	331.9
3409.263	329.9
3412.217	322.9
3415.168	335.9
3418.118	313.9
3421.065	315.9
3424.009	305.9
3426.951	312.9
3429.891	304.9
3432.829	278.9
3435.764	282.9
3438.697	266.9
3441.628	262.9
3444.557	253.9
3447.483	253.9
3450.407	236.9
3453.328	217.9
3456.247	219.9
3459.164	201.9
3462.079	206.9
3464.991	194.9
3467.902	192.9
3470.809	182.9
3473.715	170.9
3476.618	158.9
3479.519	160.9
3482.418	136.9
3485.315	135.9
3488.209	131.9
3491.101	126.9
3493.99	135.9
3496.878	117.9
3499.763	109.9
3502.646	101.9
3505.527	91.9
3508.405	95.9
3511.281	87.9
3514.155	85.9
3517.027	68.9
3519.897	65.9
3522.764	60.9
3525.629	47.9
3528.492	37.9
3531.352	38.9
3534.211	20.9
3537.067	25.9
3539.921	27.9
3542.773	18.9
3545.622	5.9
3548.469	8.9
3551.315	4.9
3554.157	-4.1
3556.998	-14.1
3559.837	-8.1
3562.673	-13.1
3565.507	-14.1
3568.339	-19.1
3571.169	-38.1
3573.996	-34.1
3576.822	-27.1
3579.645	-31.1
3582.466	-37.1
3585.285	-42.1
3588.101	-35.1
3590.916	-47.1
3593.728	-57.1
3596.538	-55.1
3599.346	-57.1
3602.152	-56.1
3604.956	-51.1
3607.757	-54.1
3610.556	-67.1
3613.354	-66.1
3616.149	-77.1
3618.942	-74.1
3621.732	-68.1
3624.521	-73.1
3627.307	-78.1
3630.092	-77.1
3632.874	-79.1
3635.654	-83.1
3638.432	-79.1
3641.208	-86.1
3643.982	-91.1
3646.753	-86.1
3649.523	-91.1
3652.29	-87.1
3655.055	-90.1
3657.818	-96.1
3660.579	-90.1
3663.338	-87.1
3666.095	-98.1
3668.849	-96.1
3671.602	-100.1
3674.352	-103.1
3677.101	-105.1
3679.847	-107.1
3682.591	-114.1
3685.333	-101.1
3688.073	-104.1
3690.811	-112.1
3693.547	-117.1
3696.281	-116.1
3699.013	-111.1
3701.742	-115.1
3704.47	-117.1
3707.195	-109.1
3709.919	-115.1
3712.64	-117.1
3715.359	-119.1
3718.076	-119.1
3720.792	-118.1
3723.505	-119.1
3726.216	-119.1
3728.925	-120.1
3731.632	-120.1
3734.336	-130.1
3737.039	-122.1
3739.74	-121.1
3742.439	-132.1
3745.136	-123.1
3747.83	-124.1
3750.523	-121.1
3753.213	-120.1
3755.902	-122.1
3758.589	-131.1
3761.273	-120.1
3763.956	-120.1
3766.636	-124.1
3769.315	-119.1
3771.991	-124.1
3774.665	-127.1
3777.338	-122.1
3780.008	-125.1
3782.677	-131.1
3785.343	-124.1
3788.007	-127.1
3790.67	-131.1
3793.33	-127.1
3795.989	-130.1
3798.645	-123.1
3801.299	-131.1
3803.952	-136.1
3806.602	-123.1
3809.251	-131.1
3811.897	-132.1
3814.542	-133.1
3817.184	-124.1
3819.825	-132.1
3822.463	-130.1
3825.1	-125.1
3827.735	-129.1
3830.367	-134.1
3832.998	-130.1
3835.627	-128.1
3838.253	-126.1
3840.878	-129.1
3843.501	-128.1
3846.122	-129.1
3848.741	-133.1
3851.358	-126.1
3853.973	-132.1
3856.586	-127.1
3859.197	-136.1
3861.806	-129.1
3864.414	-133.1
3867.019	-125.1
3869.622	-127.1
3872.224	-119.1
3874.823	-109.1
3877.421	-100.1
3880.016	-81.1
3882.61	-62.1
3885.202	-62.1
3887.792	-73.1
3890.38	-96.1
3892.966	-115.1
3895.55	-123.1
3898.132	-124.1
3900.713	-127.1
3903.291	-136.1
3905.868	-128.1
3908.442	-126.1
3911.015	-133.1
3913.586	-127.1
3916.155	-132.1
3918.722	-134.1
3921.287	-134.1
3923.85	-132.1
3926.411	-136.1
3928.971	-128.1
3931.528	-132.1
3934.084	-127.1
3936.638	-124.1
3939.19	-134.1
3941.74	-138.1
3944.288	-136.1
3946.834	-136.1
3949.378	-131.1
3951.921	-134.1
3954.462	-133.1
3957	-130.1
3959.537	-126.1
3962.072	-135.1
3964.606	-129.1
3967.137	-128.1
3969.667	-135.1
3972.194	-137.1
3974.72	-128.1
3977.244	-130.1
3979.766	-130.1
3982.286	-132.1
3984.805	-132.1
3987.321	-130.1
3989.836	-121.1
3992.349	-131.1
3994.86	-128.1
3997.369	-125.1
3999.877	-128.1
4002.382	-132.1
4004.886	-131.1
4007.388	-130.1
4009.888	-130.1
4012.386	-129.1
4014.883	-133.1
4017.377	-131.1
4019.87	-127.1
4022.361	-130.1
4024.85	-130.1
4027.338	-131.1
4029.823	-130.1
4032.307	-130.1
4034.789	-132.1
4037.269	-130.1
4039.747	-127.1
4042.224	-122.1
4044.699	-130.1
4047.172	-128.1
4049.643	-126.1
4052.112	-138.1
4054.58	-129.1
4057.046	-132.1
4059.51	-133.1
4061.972	-129.1
4064.432	-127.1
4066.891	-128.1
4069.348	-128.1
4071.803	-138.1
4074.256	-134.1
4076.708	-132.1
4079.158	-126.1
4081.606	-124.1
4084.052	-130.1
4086.497	-126.1
4088.939	-121.1
4091.38	-126.1
4093.819	-133.1
4096.257	-135.1
4098.693	-133.1
4101.127	-135.1
4103.559	-134.1
4105.989	-4.1
4108.418	-4.1
4110.845	-7.1
4113.27	-5.1
4115.694	-14.1
4118.115	-9.1
4120.535	-132.1
4122.954	-135.1
4125.37	-127.1
4127.785	-126.1
4130.198	-130.1
4132.609	-123.1
4135.019	-137.1
4137.427	-139.1
4139.833	-136.1
4142.237	-135.1
