Data from 2018-2-8_conc=0_n=1_RamanShift_01.txt Node
Date: Mon Mar 12 13:16:59 IST 2018
User: aro
Spectrometer: QEPB0276
Trigger mode: 0
Integration Time (sec): 3.000000E1
Scans to average: 1
Electric dark correction enabled: true
Nonlinearity correction enabled: false
Boxcar width: 0
XAxis mode: Raman Shifts
Number of Pixels in Spectrum: 1044
>>>>>Begin Spectral Data<<<<<
160.701	27.9
166.742	45.9
172.777	131.9
178.805	400.9
184.826	1070.9
190.841	2301.9
196.849	3782.9
202.85	4940.9
208.845	5372.9
214.833	5355.9
220.815	5311.9
226.789	5272.9
232.758	5263.9
238.719	5245.9
244.674	5201.9
250.623	5170.9
256.565	5082.9
262.5	4996.9
268.429	4953.9
274.351	4874.9
280.267	4850.9
286.176	4830.9
292.079	4798.9
297.975	4760.9
303.865	4789.9
309.748	4755.9
315.625	4750.9
321.495	4718.9
327.359	4707.9
333.217	4715.9
339.068	4761.9
344.912	4755.9
350.751	4726.9
356.583	4737.9
362.408	4754.9
368.227	4740.9
374.04	4803.9
379.847	4786.9
385.647	4838.9
391.44	4857.9
397.228	4861.9
403.009	4871.9
408.784	4872.9
414.553	4926.9
420.315	4951.9
426.071	4936.9
431.821	4917.9
437.565	4905.9
443.302	4913.9
449.033	4889.9
454.758	4898.9
460.477	4863.9
466.189	4850.9
471.896	4841.9
477.596	4775.9
483.29	4761.9
488.978	4762.9
494.66	4728.9
500.335	4672.9
506.005	4541.9
511.668	4386.9
517.325	4261.9
522.977	4156.9
528.622	4098.9
534.261	4001.9
539.894	3977.9
545.521	3944.9
551.141	3918.9
556.756	3888.9
562.365	3859.9
567.968	3860.9
573.565	3818.9
579.155	3775.9
584.74	3786.9
590.319	3765.9
595.892	3754.9
601.459	3749.9
607.02	3741.9
612.575	3725.9
618.124	3680.9
623.667	3650.9
629.204	3606.9
634.735	3576.9
640.261	3534.9
645.781	3537.9
651.294	3529.9
656.802	3497.9
662.304	3530.9
667.8	3485.9
673.29	3494.9
678.775	3488.9
684.254	3473.9
689.726	3436.9
695.193	3444.9
700.655	3422.9
706.11	3444.9
711.56	3376.9
717.004	3356.9
722.442	3346.9
727.874	3326.9
733.301	3324.9
738.722	3295.9
744.137	3297.9
749.547	3268.9
754.951	3283.9
760.349	3296.9
765.741	3281.9
771.128	3303.9
776.509	3333.9
781.885	3368.9
787.254	3371.9
792.618	3368.9
797.977	3338.9
803.33	3346.9
808.677	3295.9
814.019	3267.9
819.355	3279.9
824.686	3239.9
830.011	3217.9
835.33	3191.9
840.644	3203.9
845.952	3180.9
851.255	3157.9
856.552	3170.9
861.844	3139.9
867.13	3132.9
872.41	3120.9
877.686	3122.9
882.955	3074.9
888.219	3054.9
893.478	3036.9
898.731	2978.9
903.979	2949.9
909.221	2918.9
914.458	2895.9
919.69	2879.9
924.916	2906.9
930.136	2910.9
935.351	2905.9
940.561	2910.9
945.766	2922.9
950.965	2882.9
956.158	2869.9
961.347	2832.9
966.529	2810.9
971.707	2772.9
976.879	2713.9
982.046	2716.9
987.208	2670.9
992.364	2685.9
997.515	2693.9
1002.66	2716.9
1007.801	2754.9
1012.936	2761.9
1018.066	2764.9
1023.19	2779.9
1028.309	2786.9
1033.423	2773.9
1038.532	2756.9
1043.636	2743.9
1048.734	2726.9
1053.827	2685.9
1058.915	2656.9
1063.998	2653.9
1069.075	2645.9
1074.147	2625.9
1079.214	2656.9
1084.276	2630.9
1089.333	2665.9
1094.385	2655.9
1099.431	2670.9
1104.472	2659.9
1109.509	2638.9
1114.54	2608.9
1119.565	2569.9
1124.586	2526.9
1129.602	2507.9
1134.613	2481.9
1139.618	2486.9
1144.619	2493.9
1149.614	2461.9
1154.604	2459.9
1159.589	2495.9
1164.57	2491.9
1169.545	2497.9
1174.515	2483.9
1179.48	2461.9
1184.44	2477.9
1189.395	2438.9
1194.345	2419.9
1199.29	2407.9
1204.23	2399.9
1209.165	2400.9
1214.095	2420.9
1219.021	2444.9
1223.941	2448.9
1228.856	2457.9
1233.766	2466.9
1238.672	2466.9
1243.572	2449.9
1248.467	2456.9
1253.358	2410.9
1258.244	2373.9
1263.124	2351.9
1268	2289.9
1272.871	2312.9
1277.737	2251.9
1282.599	2256.9
1287.455	2260.9
1292.306	2256.9
1297.153	2269.9
1301.995	2274.9
1306.832	2294.9
1311.664	2287.9
1316.491	2298.9
1321.314	2279.9
1326.132	2284.9
1330.945	2263.9
1335.753	2214.9
1340.556	2181.9
1345.354	2140.9
1350.148	2111.9
1354.937	2078.9
1359.722	2059.9
1364.501	2022.9
1369.276	1983.9
1374.046	1965.9
1378.811	1952.9
1383.572	1956.9
1388.327	1941.9
1393.079	1925.9
1397.825	1938.9
1402.567	1945.9
1407.304	1937.9
1412.036	1934.9
1416.764	1950.9
1421.487	1929.9
1426.205	1948.9
1430.919	1939.9
1435.628	1954.9
1440.333	1971.9
1445.032	1988.9
1449.727	2008.9
1454.418	2009.9
1459.104	1994.9
1463.785	1959.9
1468.462	1943.9
1473.134	1896.9
1477.802	1859.9
1482.465	1794.9
1487.123	1790.9
1491.777	1768.9
1496.426	1738.9
1501.071	1727.9
1505.711	1707.9
1510.347	1715.9
1514.978	1729.9
1519.604	1717.9
1524.226	1719.9
1528.844	1714.9
1533.457	1679.9
1538.065	1688.9
1542.669	1664.9
1547.269	1680.9
1551.864	1699.9
1556.454	1703.9
1561.041	1720.9
1565.622	1727.9
1570.199	1748.9
1574.772	1759.9
1579.34	1759.9
1583.904	1799.9
1588.464	1797.9
1593.019	1802.9
1597.569	1817.9
1602.115	1803.9
1606.657	1796.9
1611.195	1791.9
1615.728	1798.9
1620.256	1801.9
1624.78	1780.9
1629.3	1804.9
1633.816	1794.9
1638.327	1799.9
1642.834	1802.9
1647.336	1829.9
1651.834	1822.9
1656.328	1833.9
1660.817	1786.9
1665.302	1787.9
1669.783	1770.9
1674.259	1716.9
1678.732	1679.9
1683.199	1609.9
1687.663	1570.9
1692.122	1513.9
1696.577	1457.9
1701.028	1400.9
1705.474	1352.9
1709.917	1304.9
1714.355	1276.9
1718.788	1279.9
1723.218	1277.9
1727.643	1254.9
1732.064	1266.9
1736.481	1250.9
1740.893	1222.9
1745.301	1214.9
1749.705	1182.9
1754.105	1153.9
1758.501	1142.9
1762.893	1116.9
1767.28	1105.9
1771.663	1088.9
1776.042	1085.9
1780.417	1071.9
1784.787	1072.9
1789.154	1068.9
1793.516	1051.9
1797.874	1014.9
1802.228	1010.9
1806.578	1015.9
1810.924	983.9
1815.266	982.9
1819.603	977.9
1823.937	988.9
1828.266	978.9
1832.591	982.9
1836.913	964.9
1841.23	973.9
1845.543	982.9
1849.852	980.9
1854.156	983.9
1858.457	971.9
1862.754	985.9
1867.047	985.9
1871.335	973.9
1875.62	975.9
1879.9	967.9
1884.177	949.9
1888.449	941.9
1892.718	951.9
1896.982	918.9
1901.243	909.9
1905.499	900.9
1909.752	899.9
1914	881.9
1918.245	876.9
1922.485	861.9
1926.722	845.9
1930.954	826.9
1935.183	837.9
1939.408	834.9
1943.628	830.9
1947.845	816.9
1952.058	829.9
1956.267	818.9
1960.472	811.9
1964.673	802.9
1968.87	799.9
1973.063	784.9
1977.252	774.9
1981.438	799.9
1985.619	774.9
1989.797	788.9
1993.971	787.9
1998.14	789.9
2002.306	795.9
2006.469	798.9
2010.627	788.9
2014.781	795.9
2018.932	798.9
2023.078	802.9
2027.221	788.9
2031.36	787.9
2035.495	765.9
2039.627	745.9
2043.754	745.9
2047.878	745.9
2051.998	738.9
2056.114	742.9
2060.226	729.9
2064.334	728.9
2068.439	720.9
2072.54	725.9
2076.637	717.9
2080.73	716.9
2084.82	718.9
2088.906	697.9
2092.988	708.9
2097.066	687.9
2101.14	679.9
2105.211	672.9
2109.278	655.9
2113.342	659.9
2117.401	641.9
2121.457	649.9
2125.509	648.9
2129.558	639.9
2133.602	654.9
2137.643	640.9
2141.681	646.9
2145.714	640.9
2149.744	646.9
2153.77	641.9
2157.793	634.9
2161.812	621.9
2165.827	626.9
2169.838	608.9
2173.846	597.9
2177.851	610.9
2181.851	585.9
2185.848	588.9
2189.841	582.9
2193.831	568.9
2197.817	576.9
2201.799	556.9
2205.778	565.9
2209.753	558.9
2213.725	559.9
2217.693	570.9
2221.657	560.9
2225.618	561.9
2229.575	560.9
2233.529	556.9
2237.479	544.9
2241.425	540.9
2245.368	535.9
2249.307	529.9
2253.243	519.9
2257.175	498.9
2261.104	509.9
2265.029	497.9
2268.95	504.9
2272.868	480.9
2276.783	481.9
2280.694	476.9
2284.601	486.9
2288.505	470.9
2292.405	464.9
2296.302	447.9
2300.195	459.9
2304.085	443.9
2307.971	436.9
2311.854	436.9
2315.734	413.9
2319.609	414.9
2323.482	415.9
2327.351	419.9
2331.216	418.9
2335.078	422.9
2338.937	406.9
2342.792	391.9
2346.643	395.9
2350.492	392.9
2354.336	397.9
2358.178	398.9
2362.015	389.9
2365.85	401.9
2369.681	395.9
2373.508	389.9
2377.333	401.9
2381.153	392.9
2384.971	391.9
2388.785	397.9
2392.595	378.9
2396.402	382.9
2400.206	396.9
2404.007	383.9
2407.804	380.9
2411.597	367.9
2415.388	367.9
2419.174	375.9
2422.958	367.9
2426.738	360.9
2430.515	355.9
2434.289	363.9
2438.059	355.9
2441.825	354.9
2445.589	351.9
2449.349	338.9
2453.106	342.9
2456.859	334.9
2460.61	340.9
2464.356	317.9
2468.1	320.9
2471.84	321.9
2475.577	317.9
2479.311	309.9
2483.041	316.9
2486.768	311.9
2490.492	300.9
2494.213	315.9
2497.93	296.9
2501.644	293.9
2505.355	283.9
2509.062	292.9
2512.766	285.9
2516.467	277.9
2520.165	284.9
2523.859	272.9
2527.551	279.9
2531.239	272.9
2534.923	259.9
2538.605	261.9
2542.283	262.9
2545.958	249.9
2549.63	254.9
2553.299	244.9
2556.964	251.9
2560.626	247.9
2564.285	238.9
2567.941	236.9
2571.594	239.9
2575.243	230.9
2578.89	223.9
2582.533	225.9
2586.173	213.9
2589.809	216.9
2593.443	215.9
2597.073	211.9
2600.701	206.9
2604.325	211.9
2607.946	205.9
2611.564	213.9
2615.178	200.9
2618.79	215.9
2622.398	212.9
2626.004	195.9
2629.606	199.9
2633.205	203.9
2636.801	195.9
2640.394	201.9
2643.983	191.9
2647.57	199.9
2651.153	191.9
2654.734	184.9
2658.311	176.9
2661.885	184.9
2665.456	181.9
2669.025	181.9
2672.589	172.9
2676.151	174.9
2679.71	173.9
2683.266	174.9
2686.819	165.9
2690.368	169.9
2693.915	155.9
2697.458	157.9
2700.999	152.9
2704.536	155.9
2708.071	157.9
2711.602	143.9
2715.13	139.9
2718.656	134.9
2722.178	135.9
2725.697	136.9
2729.214	130.9
2732.727	135.9
2736.237	134.9
2739.744	136.9
2743.249	124.9
2746.75	114.9
2750.248	117.9
2753.743	110.9
2757.236	118.9
2760.725	117.9
2764.211	111.9
2767.695	107.9
2771.175	101.9
2774.652	103.9
2778.127	101.9
2781.598	101.9
2785.067	109.9
2788.532	106.9
2791.995	102.9
2795.455	105.9
2798.911	113.9
2802.365	108.9
2805.816	110.9
2809.264	103.9
2812.709	113.9
2816.151	100.9
2819.59	107.9
2823.026	109.9
2826.46	108.9
2829.89	103.9
2833.318	112.9
2836.742	116.9
2840.164	105.9
2843.583	117.9
2846.999	109.9
2850.412	113.9
2853.822	117.9
2857.229	112.9
2860.634	114.9
2864.035	118.9
2867.434	124.9
2870.83	135.9
2874.223	148.9
2877.613	151.9
2881	157.9
2884.385	156.9
2887.766	140.9
2891.145	158.9
2894.521	157.9
2897.894	157.9
2901.264	151.9
2904.631	154.9
2907.996	160.9
2911.358	161.9
2914.717	164.9
2918.073	176.9
2921.426	175.9
2924.777	187.9
2928.124	190.9
2931.469	187.9
2934.811	193.9
2938.15	213.9
2941.487	208.9
2944.821	201.9
2948.152	197.9
2951.48	208.9
2954.805	207.9
2958.128	206.9
2961.447	195.9
2964.765	202.9
2968.079	191.9
2971.39	206.9
2974.699	204.9
2978.005	199.9
2981.308	196.9
2984.609	211.9
2987.907	208.9
2991.202	220.9
2994.494	208.9
2997.784	215.9
3001.07	216.9
3004.355	221.9
3007.636	221.9
3010.915	230.9
3014.191	233.9
3017.464	231.9
3020.734	233.9
3024.002	235.9
3027.267	252.9
3030.53	258.9
3033.789	254.9
3037.046	254.9
3040.301	268.9
3043.552	274.9
3046.801	296.9
3050.048	292.9
3053.291	298.9
3056.532	312.9
3059.771	327.9
3063.006	341.9
3066.239	342.9
3069.469	346.9
3072.697	368.9
3075.922	368.9
3079.144	401.9
3082.364	399.9
3085.581	402.9
3088.795	416.9
3092.007	411.9
3095.216	426.9
3098.423	440.9
3101.627	453.9
3104.828	453.9
3108.026	462.9
3111.222	483.9
3114.416	491.9
3117.607	493.9
3120.795	519.9
3123.98	524.9
3127.163	518.9
3130.344	549.9
3133.521	551.9
3136.696	574.9
3139.869	574.9
3143.039	591.9
3146.206	606.9
3149.371	605.9
3152.533	628.9
3155.693	624.9
3158.85	620.9
3162.005	635.9
3165.157	625.9
3168.306	640.9
3171.453	641.9
3174.597	645.9
3177.739	645.9
3180.878	653.9
3184.014	652.9
3187.149	668.9
3190.28	659.9
3193.409	647.9
3196.536	656.9
3199.659	664.9
3202.781	682.9
3205.9	685.9
3209.016	693.9
3212.13	682.9
3215.241	664.9
3218.35	674.9
3221.456	664.9
3224.56	652.9
3227.661	647.9
3230.76	650.9
3233.856	615.9
3236.95	606.9
3240.041	609.9
3243.13	596.9
3246.216	579.9
3249.3	572.9
3252.382	578.9
3255.46	575.9
3258.537	553.9
3261.611	544.9
3264.682	532.9
3267.751	553.9
3270.818	550.9
3273.882	543.9
3276.943	540.9
3280.002	533.9
3283.059	537.9
3286.113	533.9
3289.165	525.9
3292.214	513.9
3295.261	509.9
3298.306	503.9
3301.348	499.9
3304.387	489.9
3307.425	492.9
3310.459	484.9
3313.492	471.9
3316.521	472.9
3319.549	457.9
3322.574	465.9
3325.597	452.9
3328.617	463.9
3331.635	460.9
3334.65	455.9
3337.663	446.9
3340.674	467.9
3343.682	453.9
3346.688	442.9
3349.691	463.9
3352.692	446.9
3355.691	444.9
3358.687	439.9
3361.681	435.9
3364.673	441.9
3367.662	425.9
3370.649	413.9
3373.633	397.9
3376.615	402.9
3379.595	389.9
3382.572	390.9
3385.547	383.9
3388.52	379.9
3391.49	369.9
3394.458	366.9
3397.424	351.9
3400.387	362.9
3403.348	350.9
3406.307	341.9
3409.263	341.9
3412.217	332.9
3415.168	331.9
3418.118	334.9
3421.065	314.9
3424.009	312.9
3426.951	309.9
3429.891	301.9
3432.829	289.9
3435.764	277.9
3438.697	270.9
3441.628	276.9
3444.557	262.9
3447.483	248.9
3450.407	236.9
3453.328	221.9
3456.247	225.9
3459.164	202.9
3462.079	197.9
3464.991	188.9
3467.902	191.9
3470.809	185.9
3473.715	155.9
3476.618	146.9
3479.519	153.9
3482.418	142.9
3485.315	138.9
3488.209	121.9
3491.101	123.9
3493.99	127.9
3496.878	111.9
3499.763	98.9
3502.646	93.9
3505.527	90.9
3508.405	83.9
3511.281	84.9
3514.155	75.9
3517.027	65.9
3519.897	55.9
3522.764	59.9
3525.629	40.9
3528.492	31.9
3531.352	29.9
3534.211	24.9
3537.067	15.9
3539.921	23.9
3542.773	5.9
3545.622	-1.1
3548.469	-8.1
3551.315	-12.1
3554.157	-12.1
3556.998	-17.1
3559.837	-16.1
3562.673	-16.1
3565.507	-25.1
3568.339	-37.1
3571.169	-45.1
3573.996	-44.1
3576.822	-44.1
3579.645	-40.1
3582.466	-44.1
3585.285	-56.1
3588.101	-51.1
3590.916	-57.1
3593.728	-64.1
3596.538	-61.1
3599.346	-66.1
3602.152	-67.1
3604.956	-72.1
3607.757	-60.1
3610.556	-75.1
3613.354	-71.1
3616.149	-84.1
3618.942	-85.1
3621.732	-87.1
3624.521	-91.1
3627.307	-87.1
3630.092	-87.1
3632.874	-87.1
3635.654	-91.1
3638.432	-93.1
3641.208	-91.1
3643.982	-106.1
3646.753	-105.1
3649.523	-103.1
3652.29	-97.1
3655.055	-97.1
3657.818	-107.1
3660.579	-107.1
3663.338	-110.1
3666.095	-117.1
3668.849	-113.1
3671.602	-117.1
3674.352	-118.1
3677.101	-116.1
3679.847	-115.1
3682.591	-118.1
3685.333	-114.1
3688.073	-121.1
3690.811	-121.1
3693.547	-128.1
3696.281	-130.1
3699.013	-129.1
3701.742	-127.1
3704.47	-123.1
3707.195	-122.1
3709.919	-127.1
3712.64	-127.1
3715.359	-132.1
3718.076	-132.1
3720.792	-136.1
3723.505	-140.1
3726.216	-125.1
3728.925	-130.1
3731.632	-132.1
3734.336	-137.1
3737.039	-135.1
3739.74	-139.1
3742.439	-141.1
3745.136	-134.1
3747.83	-142.1
3750.523	-136.1
3753.213	-134.1
3755.902	-136.1
3758.589	-146.1
3761.273	-132.1
3763.956	-133.1
3766.636	-140.1
3769.315	-138.1
3771.991	-135.1
3774.665	-140.1
3777.338	-134.1
3780.008	-139.1
3782.677	-145.1
3785.343	-144.1
3788.007	-141.1
3790.67	-141.1
3793.33	-138.1
3795.989	-136.1
3798.645	-136.1
3801.299	-135.1
3803.952	-147.1
3806.602	-140.1
3809.251	-146.1
3811.897	-143.1
3814.542	-147.1
3817.184	-139.1
3819.825	-139.1
3822.463	-142.1
3825.1	-141.1
3827.735	-145.1
3830.367	-142.1
3832.998	-148.1
3835.627	-144.1
3838.253	-140.1
3840.878	-140.1
3843.501	-139.1
3846.122	-146.1
3848.741	-147.1
3851.358	-148.1
3853.973	-145.1
3856.586	-143.1
3859.197	-143.1
3861.806	-138.1
3864.414	-148.1
3867.019	-137.1
3869.622	-141.1
3872.224	-135.1
3874.823	-120.1
3877.421	-110.1
3880.016	-87.1
3882.61	-49.1
3885.202	-52.1
3887.792	-66.1
3890.38	-98.1
3892.966	-133.1
3895.55	-134.1
3898.132	-140.1
3900.713	-148.1
3903.291	-146.1
3905.868	-142.1
3908.442	-138.1
3911.015	-145.1
3913.586	-147.1
3916.155	-150.1
3918.722	-147.1
3921.287	-148.1
3923.85	-149.1
3926.411	-143.1
3928.971	-143.1
3931.528	-146.1
3934.084	-145.1
3936.638	-138.1
3939.19	-149.1
3941.74	-148.1
3944.288	-147.1
3946.834	-148.1
3949.378	-147.1
3951.921	-146.1
3954.462	-154.1
3957	-146.1
3959.537	-141.1
3962.072	-144.1
3964.606	-146.1
3967.137	-142.1
3969.667	-147.1
3972.194	-148.1
3974.72	-143.1
3977.244	-139.1
3979.766	-146.1
3982.286	-146.1
3984.805	-148.1
3987.321	-142.1
3989.836	-134.1
3992.349	-144.1
3994.86	-142.1
3997.369	-139.1
3999.877	-142.1
4002.382	-141.1
4004.886	-148.1
4007.388	-143.1
4009.888	-143.1
4012.386	-147.1
4014.883	-143.1
4017.377	-144.1
4019.87	-138.1
4022.361	-151.1
4024.85	-148.1
4027.338	-143.1
4029.823	-140.1
4032.307	-142.1
4034.789	-144.1
4037.269	-146.1
4039.747	-138.1
4042.224	-142.1
4044.699	-149.1
4047.172	-146.1
4049.643	-140.1
4052.112	-143.1
4054.58	-145.1
4057.046	-147.1
4059.51	-143.1
4061.972	-141.1
4064.432	-143.1
4066.891	-147.1
4069.348	-138.1
4071.803	-152.1
4074.256	-142.1
4076.708	-138.1
4079.158	-140.1
4081.606	-139.1
4084.052	-145.1
4086.497	-150.1
4088.939	-141.1
4091.38	-144.1
4093.819	-142.1
4096.257	-150.1
4098.693	-146.1
4101.127	-152.1
4103.559	-146.1
4105.989	9.9
4108.418	3.9
4110.845	-8.1
4113.27	-4.1
4115.694	-5.1
4118.115	4.9
4120.535	-147.1
4122.954	-143.1
4125.37	-144.1
4127.785	-146.1
4130.198	-141.1
4132.609	-145.1
4135.019	-149.1
4137.427	-152.1
4139.833	-154.1
4142.237	-151.1
