Data from 2018-2-8_conc=3_n=7_RamanShift_01.txt Node
Date: Mon Mar 12 14:47:58 IST 2018
User: aro
Spectrometer: QEPB0276
Trigger mode: 0
Integration Time (sec): 3.000000E1
Scans to average: 1
Electric dark correction enabled: true
Nonlinearity correction enabled: false
Boxcar width: 0
XAxis mode: Raman Shifts
Number of Pixels in Spectrum: 1044
>>>>>Begin Spectral Data<<<<<
160.701	13.6
166.742	52.6
172.777	109.6
178.805	341.6
184.826	915.6
190.841	1944.6
196.849	3237.6
202.85	4246.6
208.845	4611.6
214.833	4605.6
220.815	4559.6
226.789	4545.6
232.758	4545.6
238.719	4577.6
244.674	4522.6
250.623	4490.6
256.565	4446.6
262.5	4369.6
268.429	4314.6
274.351	4304.6
280.267	4253.6
286.176	4226.6
292.079	4268.6
297.975	4182.6
303.865	4214.6
309.748	4198.6
315.625	4172.6
321.495	4169.6
327.359	4172.6
333.217	4160.6
339.068	4195.6
344.912	4204.6
350.751	4225.6
356.583	4198.6
362.408	4232.6
368.227	4234.6
374.04	4240.6
379.847	4263.6
385.647	4288.6
391.44	4293.6
397.228	4312.6
403.009	4332.6
408.784	4376.6
414.553	4393.6
420.315	4391.6
426.071	4400.6
431.821	4392.6
437.565	4402.6
443.302	4366.6
449.033	4358.6
454.758	4364.6
460.477	4312.6
466.189	4297.6
471.896	4268.6
477.596	4241.6
483.29	4226.6
488.978	4211.6
494.66	4208.6
500.335	4132.6
506.005	4007.6
511.668	3882.6
517.325	3737.6
522.977	3648.6
528.622	3546.6
534.261	3496.6
539.894	3441.6
545.521	3411.6
551.141	3367.6
556.756	3336.6
562.365	3354.6
567.968	3306.6
573.565	3287.6
579.155	3274.6
584.74	3248.6
590.319	3232.6
595.892	3235.6
601.459	3246.6
607.02	3225.6
612.575	3209.6
618.124	3164.6
623.667	3117.6
629.204	3103.6
634.735	3070.6
640.261	3051.6
645.781	3035.6
651.294	3031.6
656.802	3025.6
662.304	2990.6
667.8	3003.6
673.29	2986.6
678.775	3005.6
684.254	2968.6
689.726	2969.6
695.193	2980.6
700.655	2938.6
706.11	2911.6
711.56	2925.6
717.004	2915.6
722.442	2869.6
727.874	2862.6
733.301	2849.6
738.722	2829.6
744.137	2820.6
749.547	2834.6
754.951	2822.6
760.349	2829.6
765.741	2823.6
771.128	2834.6
776.509	2877.6
781.885	2895.6
787.254	2913.6
792.618	2900.6
797.977	2887.6
803.33	2882.6
808.677	2856.6
814.019	2840.6
819.355	2800.6
824.686	2797.6
830.011	2769.6
835.33	2761.6
840.644	2766.6
845.952	2749.6
851.255	2727.6
856.552	2726.6
861.844	2728.6
867.13	2710.6
872.41	2671.6
877.686	2663.6
882.955	2637.6
888.219	2614.6
893.478	2578.6
898.731	2548.6
903.979	2510.6
909.221	2493.6
914.458	2499.6
919.69	2498.6
924.916	2492.6
930.136	2506.6
935.351	2480.6
940.561	2487.6
945.766	2474.6
950.965	2501.6
956.158	2440.6
961.347	2434.6
966.529	2408.6
971.707	2378.6
976.879	2338.6
982.046	2315.6
987.208	2316.6
992.364	2299.6
997.515	2309.6
1002.66	2333.6
1007.801	2356.6
1012.936	2363.6
1018.066	2383.6
1023.19	2377.6
1028.309	2392.6
1033.423	2390.6
1038.532	2379.6
1043.636	2358.6
1048.734	2332.6
1053.827	2310.6
1058.915	2281.6
1063.998	2267.6
1069.075	2262.6
1074.147	2254.6
1079.214	2275.6
1084.276	2249.6
1089.333	2300.6
1094.385	2286.6
1099.431	2276.6
1104.472	2271.6
1109.509	2245.6
1114.54	2232.6
1119.565	2195.6
1124.586	2156.6
1129.602	2156.6
1134.613	2137.6
1139.618	2116.6
1144.619	2127.6
1149.614	2108.6
1154.604	2128.6
1159.589	2120.6
1164.57	2122.6
1169.545	2119.6
1174.515	2151.6
1179.48	2130.6
1184.44	2116.6
1189.395	2089.6
1194.345	2097.6
1199.29	2075.6
1204.23	2065.6
1209.165	2066.6
1214.095	2061.6
1219.021	2068.6
1223.941	2092.6
1228.856	2110.6
1233.766	2111.6
1238.672	2103.6
1243.572	2127.6
1248.467	2098.6
1253.358	2059.6
1258.244	2036.6
1263.124	2018.6
1268	1990.6
1272.871	1962.6
1277.737	1936.6
1282.599	1933.6
1287.455	1928.6
1292.306	1934.6
1297.153	1931.6
1301.995	1939.6
1306.832	1962.6
1311.664	1977.6
1316.491	1971.6
1321.314	1972.6
1326.132	1981.6
1330.945	1929.6
1335.753	1904.6
1340.556	1885.6
1345.354	1852.6
1350.148	1827.6
1354.937	1798.6
1359.722	1768.6
1364.501	1754.6
1369.276	1716.6
1374.046	1667.6
1378.811	1670.6
1383.572	1642.6
1388.327	1658.6
1393.079	1669.6
1397.825	1659.6
1402.567	1641.6
1407.304	1660.6
1412.036	1650.6
1416.764	1654.6
1421.487	1668.6
1426.205	1659.6
1430.919	1643.6
1435.628	1682.6
1440.333	1682.6
1445.032	1708.6
1449.727	1724.6
1454.418	1731.6
1459.104	1733.6
1463.785	1693.6
1468.462	1682.6
1473.134	1645.6
1477.802	1606.6
1482.465	1569.6
1487.123	1542.6
1491.777	1532.6
1496.426	1516.6
1501.071	1505.6
1505.711	1503.6
1510.347	1492.6
1514.978	1507.6
1519.604	1494.6
1524.226	1503.6
1528.844	1469.6
1533.457	1464.6
1538.065	1462.6
1542.669	1472.6
1547.269	1451.6
1551.864	1465.6
1556.454	1467.6
1561.041	1489.6
1565.622	1498.6
1570.199	1479.6
1574.772	1497.6
1579.34	1534.6
1583.904	1550.6
1588.464	1552.6
1593.019	1557.6
1597.569	1556.6
1602.115	1551.6
1606.657	1567.6
1611.195	1547.6
1615.728	1549.6
1620.256	1539.6
1624.78	1539.6
1629.3	1546.6
1633.816	1551.6
1638.327	1561.6
1642.834	1560.6
1647.336	1582.6
1651.834	1576.6
1656.328	1571.6
1660.817	1562.6
1665.302	1557.6
1669.783	1533.6
1674.259	1480.6
1678.732	1466.6
1683.199	1422.6
1687.663	1399.6
1692.122	1339.6
1696.577	1283.6
1701.028	1247.6
1705.474	1193.6
1709.917	1156.6
1714.355	1139.6
1718.788	1139.6
1723.218	1122.6
1727.643	1117.6
1732.064	1118.6
1736.481	1099.6
1740.893	1069.6
1745.301	1051.6
1749.705	1052.6
1754.105	1028.6
1758.501	1002.6
1762.893	993.6
1767.28	985.6
1771.663	973.6
1776.042	963.6
1780.417	965.6
1784.787	944.6
1789.154	947.6
1793.516	942.6
1797.874	915.6
1802.228	909.6
1806.578	911.6
1810.924	892.6
1815.266	863.6
1819.603	885.6
1823.937	867.6
1828.266	868.6
1832.591	861.6
1836.913	858.6
1841.23	870.6
1845.543	874.6
1849.852	879.6
1854.156	868.6
1858.457	873.6
1862.754	873.6
1867.047	875.6
1871.335	879.6
1875.62	877.6
1879.9	871.6
1884.177	862.6
1888.449	851.6
1892.718	849.6
1896.982	836.6
1901.243	825.6
1905.499	811.6
1909.752	803.6
1914	791.6
1918.245	793.6
1922.485	777.6
1926.722	771.6
1930.954	775.6
1935.183	786.6
1939.408	762.6
1943.628	754.6
1947.845	763.6
1952.058	747.6
1956.267	748.6
1960.472	734.6
1964.673	722.6
1968.87	720.6
1973.063	707.6
1977.252	699.6
1981.438	712.6
1985.619	701.6
1989.797	706.6
1993.971	697.6
1998.14	714.6
2002.306	718.6
2006.469	719.6
2010.627	716.6
2014.781	732.6
2018.932	707.6
2023.078	706.6
2027.221	707.6
2031.36	687.6
2035.495	695.6
2039.627	689.6
2043.754	677.6
2047.878	664.6
2051.998	659.6
2056.114	662.6
2060.226	648.6
2064.334	659.6
2068.439	651.6
2072.54	661.6
2076.637	641.6
2080.73	649.6
2084.82	649.6
2088.906	643.6
2092.988	629.6
2097.066	632.6
2101.14	627.6
2105.211	620.6
2109.278	605.6
2113.342	594.6
2117.401	593.6
2121.457	589.6
2125.509	583.6
2129.558	592.6
2133.602	584.6
2137.643	581.6
2141.681	580.6
2145.714	582.6
2149.744	580.6
2153.77	582.6
2157.793	564.6
2161.812	559.6
2165.827	571.6
2169.838	552.6
2173.846	545.6
2177.851	528.6
2181.851	518.6
2185.848	520.6
2189.841	534.6
2193.831	527.6
2197.817	514.6
2201.799	505.6
2205.778	506.6
2209.753	506.6
2213.725	500.6
2217.693	507.6
2221.657	504.6
2225.618	510.6
2229.575	498.6
2233.529	492.6
2237.479	493.6
2241.425	490.6
2245.368	467.6
2249.307	463.6
2253.243	465.6
2257.175	461.6
2261.104	446.6
2265.029	442.6
2268.95	438.6
2272.868	425.6
2276.783	431.6
2280.694	422.6
2284.601	419.6
2288.505	419.6
2292.405	402.6
2296.302	415.6
2300.195	398.6
2304.085	389.6
2307.971	391.6
2311.854	378.6
2315.734	371.6
2319.609	370.6
2323.482	366.6
2327.351	371.6
2331.216	388.6
2335.078	390.6
2338.937	367.6
2342.792	355.6
2346.643	349.6
2350.492	360.6
2354.336	354.6
2358.178	347.6
2362.015	352.6
2365.85	359.6
2369.681	354.6
2373.508	354.6
2377.333	351.6
2381.153	350.6
2384.971	360.6
2388.785	341.6
2392.595	345.6
2396.402	343.6
2400.206	344.6
2404.007	338.6
2407.804	347.6
2411.597	334.6
2415.388	335.6
2419.174	329.6
2422.958	327.6
2426.738	323.6
2430.515	321.6
2434.289	313.6
2438.059	312.6
2441.825	315.6
2445.589	318.6
2449.349	298.6
2453.106	305.6
2456.859	309.6
2460.61	301.6
2464.356	293.6
2468.1	292.6
2471.84	278.6
2475.577	287.6
2479.311	270.6
2483.041	268.6
2486.768	273.6
2490.492	270.6
2494.213	276.6
2497.93	282.6
2501.644	272.6
2505.355	273.6
2509.062	265.6
2512.766	265.6
2516.467	249.6
2520.165	260.6
2523.859	263.6
2527.551	252.6
2531.239	237.6
2534.923	232.6
2538.605	240.6
2542.283	240.6
2545.958	232.6
2549.63	232.6
2553.299	222.6
2556.964	237.6
2560.626	227.6
2564.285	222.6
2567.941	220.6
2571.594	215.6
2575.243	222.6
2578.89	207.6
2582.533	210.6
2586.173	208.6
2589.809	197.6
2593.443	194.6
2597.073	202.6
2600.701	187.6
2604.325	189.6
2607.946	202.6
2611.564	182.6
2615.178	199.6
2618.79	194.6
2622.398	188.6
2626.004	185.6
2629.606	181.6
2633.205	180.6
2636.801	180.6
2640.394	184.6
2643.983	176.6
2647.57	183.6
2651.153	171.6
2654.734	174.6
2658.311	164.6
2661.885	162.6
2665.456	172.6
2669.025	166.6
2672.589	156.6
2676.151	162.6
2679.71	158.6
2683.266	154.6
2686.819	161.6
2690.368	159.6
2693.915	147.6
2697.458	149.6
2700.999	148.6
2704.536	142.6
2708.071	134.6
2711.602	133.6
2715.13	140.6
2718.656	128.6
2722.178	126.6
2725.697	126.6
2729.214	117.6
2732.727	128.6
2736.237	126.6
2739.744	123.6
2743.249	125.6
2746.75	122.6
2750.248	116.6
2753.743	119.6
2757.236	109.6
2760.725	111.6
2764.211	101.6
2767.695	101.6
2771.175	107.6
2774.652	97.6
2778.127	94.6
2781.598	94.6
2785.067	101.6
2788.532	102.6
2791.995	100.6
2795.455	99.6
2798.911	98.6
2802.365	103.6
2805.816	107.6
2809.264	99.6
2812.709	107.6
2816.151	110.6
2819.59	106.6
2823.026	108.6
2826.46	99.6
2829.89	103.6
2833.318	98.6
2836.742	103.6
2840.164	95.6
2843.583	103.6
2846.999	105.6
2850.412	111.6
2853.822	111.6
2857.229	103.6
2860.634	113.6
2864.035	111.6
2867.434	114.6
2870.83	119.6
2874.223	134.6
2877.613	130.6
2881	141.6
2884.385	141.6
2887.766	136.6
2891.145	134.6
2894.521	132.6
2897.894	142.6
2901.264	130.6
2904.631	141.6
2907.996	143.6
2911.358	140.6
2914.717	139.6
2918.073	150.6
2921.426	153.6
2924.777	153.6
2928.124	156.6
2931.469	166.6
2934.811	170.6
2938.15	168.6
2941.487	173.6
2944.821	182.6
2948.152	167.6
2951.48	176.6
2954.805	181.6
2958.128	174.6
2961.447	175.6
2964.765	164.6
2968.079	177.6
2971.39	173.6
2974.699	177.6
2978.005	170.6
2981.308	175.6
2984.609	177.6
2987.907	173.6
2991.202	175.6
2994.494	180.6
2997.784	186.6
3001.07	186.6
3004.355	195.6
3007.636	207.6
3010.915	198.6
3014.191	190.6
3017.464	196.6
3020.734	200.6
3024.002	195.6
3027.267	213.6
3030.53	209.6
3033.789	216.6
3037.046	221.6
3040.301	226.6
3043.552	241.6
3046.801	240.6
3050.048	245.6
3053.291	259.6
3056.532	262.6
3059.771	273.6
3063.006	292.6
3066.239	291.6
3069.469	299.6
3072.697	303.6
3075.922	316.6
3079.144	323.6
3082.364	340.6
3085.581	345.6
3088.795	351.6
3092.007	356.6
3095.216	354.6
3098.423	360.6
3101.627	378.6
3104.828	398.6
3108.026	396.6
3111.222	415.6
3114.416	416.6
3117.607	426.6
3120.795	426.6
3123.98	441.6
3127.163	444.6
3130.344	465.6
3133.521	472.6
3136.696	485.6
3139.869	488.6
3143.039	501.6
3146.206	500.6
3149.371	511.6
3152.533	524.6
3155.693	518.6
3158.85	538.6
3162.005	539.6
3165.157	540.6
3168.306	535.6
3171.453	541.6
3174.597	542.6
3177.739	547.6
3180.878	557.6
3184.014	564.6
3187.149	549.6
3190.28	552.6
3193.409	554.6
3196.536	548.6
3199.659	567.6
3202.781	567.6
3205.9	572.6
3209.016	578.6
3212.13	570.6
3215.241	560.6
3218.35	555.6
3221.456	545.6
3224.56	552.6
3227.661	538.6
3230.76	539.6
3233.856	526.6
3236.95	519.6
3240.041	510.6
3243.13	493.6
3246.216	498.6
3249.3	502.6
3252.382	489.6
3255.46	485.6
3258.537	479.6
3261.611	474.6
3264.682	463.6
3267.751	468.6
3270.818	468.6
3273.882	467.6
3276.943	456.6
3280.002	456.6
3283.059	439.6
3286.113	453.6
3289.165	447.6
3292.214	434.6
3295.261	423.6
3298.306	427.6
3301.348	418.6
3304.387	424.6
3307.425	410.6
3310.459	416.6
3313.492	405.6
3316.521	402.6
3319.549	395.6
3322.574	397.6
3325.597	387.6
3328.617	387.6
3331.635	382.6
3334.65	384.6
3337.663	375.6
3340.674	386.6
3343.682	385.6
3346.688	373.6
3349.691	376.6
3352.692	365.6
3355.691	376.6
3358.687	367.6
3361.681	373.6
3364.673	369.6
3367.662	355.6
3370.649	358.6
3373.633	344.6
3376.615	336.6
3379.595	325.6
3382.572	331.6
3385.547	331.6
3388.52	313.6
3391.49	310.6
3394.458	314.6
3397.424	298.6
3400.387	292.6
3403.348	295.6
3406.307	295.6
3409.263	284.6
3412.217	285.6
3415.168	280.6
3418.118	274.6
3421.065	264.6
3424.009	265.6
3426.951	268.6
3429.891	261.6
3432.829	245.6
3435.764	244.6
3438.697	235.6
3441.628	224.6
3444.557	218.6
3447.483	215.6
3450.407	198.6
3453.328	191.6
3456.247	186.6
3459.164	185.6
3462.079	175.6
3464.991	166.6
3467.902	150.6
3470.809	155.6
3473.715	135.6
3476.618	130.6
3479.519	132.6
3482.418	128.6
3485.315	120.6
3488.209	112.6
3491.101	111.6
3493.99	112.6
3496.878	100.6
3499.763	98.6
3502.646	84.6
3505.527	83.6
3508.405	80.6
3511.281	62.6
3514.155	66.6
3517.027	59.6
3519.897	47.6
3522.764	49.6
3525.629	36.6
3528.492	35.6
3531.352	28.6
3534.211	26.6
3537.067	18.6
3539.921	17.6
3542.773	10.6
3545.622	-6.4
3548.469	-2.4
3551.315	3.6
3554.157	-7.4
3556.998	-16.4
3559.837	-16.4
3562.673	-21.4
3565.507	-22.4
3568.339	-31.4
3571.169	-41.4
3573.996	-33.4
3576.822	-32.4
3579.645	-32.4
3582.466	-33.4
3585.285	-46.4
3588.101	-35.4
3590.916	-47.4
3593.728	-59.4
3596.538	-52.4
3599.346	-59.4
3602.152	-53.4
3604.956	-57.4
3607.757	-58.4
3610.556	-70.4
3613.354	-61.4
3616.149	-77.4
3618.942	-78.4
3621.732	-72.4
3624.521	-71.4
3627.307	-70.4
3630.092	-70.4
3632.874	-71.4
3635.654	-83.4
3638.432	-79.4
3641.208	-78.4
3643.982	-87.4
3646.753	-84.4
3649.523	-84.4
3652.29	-86.4
3655.055	-86.4
3657.818	-92.4
3660.579	-93.4
3663.338	-91.4
3666.095	-96.4
3668.849	-96.4
3671.602	-100.4
3674.352	-94.4
3677.101	-100.4
3679.847	-104.4
3682.591	-109.4
3685.333	-103.4
3688.073	-102.4
3690.811	-104.4
3693.547	-114.4
3696.281	-105.4
3699.013	-105.4
3701.742	-109.4
3704.47	-108.4
3707.195	-109.4
3709.919	-109.4
3712.64	-103.4
3715.359	-116.4
3718.076	-110.4
3720.792	-112.4
3723.505	-109.4
3726.216	-111.4
3728.925	-113.4
3731.632	-113.4
3734.336	-121.4
3737.039	-113.4
3739.74	-114.4
3742.439	-122.4
3745.136	-111.4
3747.83	-126.4
3750.523	-119.4
3753.213	-131.4
3755.902	-110.4
3758.589	-121.4
3761.273	-112.4
3763.956	-113.4
3766.636	-120.4
3769.315	-112.4
3771.991	-113.4
3774.665	-123.4
3777.338	-109.4
3780.008	-115.4
3782.677	-112.4
3785.343	-119.4
3788.007	-122.4
3790.67	-122.4
3793.33	-120.4
3795.989	-123.4
3798.645	-113.4
3801.299	-116.4
3803.952	-126.4
3806.602	-114.4
3809.251	-126.4
3811.897	-128.4
3814.542	-124.4
3817.184	-116.4
3819.825	-119.4
3822.463	-119.4
3825.1	-117.4
3827.735	-120.4
3830.367	-124.4
3832.998	-124.4
3835.627	-125.4
3838.253	-116.4
3840.878	-120.4
3843.501	-118.4
3846.122	-118.4
3848.741	-122.4
3851.358	-120.4
3853.973	-123.4
3856.586	-121.4
3859.197	-126.4
3861.806	-119.4
3864.414	-119.4
3867.019	-119.4
3869.622	-120.4
3872.224	-106.4
3874.823	-101.4
3877.421	-88.4
3880.016	-65.4
3882.61	-43.4
3885.202	-38.4
3887.792	-53.4
3890.38	-89.4
3892.966	-106.4
3895.55	-116.4
3898.132	-118.4
3900.713	-121.4
3903.291	-128.4
3905.868	-127.4
3908.442	-115.4
3911.015	-127.4
3913.586	-121.4
3916.155	-123.4
3918.722	-123.4
3921.287	-119.4
3923.85	-126.4
3926.411	-128.4
3928.971	-125.4
3931.528	-124.4
3934.084	-119.4
3936.638	-119.4
3939.19	-128.4
3941.74	-122.4
3944.288	-127.4
3946.834	-122.4
3949.378	-123.4
3951.921	-121.4
3954.462	-130.4
3957	-119.4
3959.537	-122.4
3962.072	-130.4
3964.606	-122.4
3967.137	-120.4
3969.667	-128.4
3972.194	-125.4
3974.72	-123.4
3977.244	-124.4
3979.766	-123.4
3982.286	-119.4
3984.805	-126.4
3987.321	-124.4
3989.836	-114.4
3992.349	-119.4
3994.86	-120.4
3997.369	-119.4
3999.877	-123.4
4002.382	-117.4
4004.886	-127.4
4007.388	-124.4
4009.888	-120.4
4012.386	-124.4
4014.883	-120.4
4017.377	-123.4
4019.87	-120.4
4022.361	-125.4
4024.85	-125.4
4027.338	-120.4
4029.823	-117.4
4032.307	-114.4
4034.789	-118.4
4037.269	-123.4
4039.747	-118.4
4042.224	-123.4
4044.699	-126.4
4047.172	-125.4
4049.643	-117.4
4052.112	-117.4
4054.58	-121.4
4057.046	-119.4
4059.51	-124.4
4061.972	-123.4
4064.432	-118.4
4066.891	-121.4
4069.348	-119.4
4071.803	-125.4
4074.256	-118.4
4076.708	-123.4
4079.158	-121.4
4081.606	-118.4
4084.052	-127.4
4086.497	-122.4
4088.939	-110.4
4091.38	-120.4
4093.819	-122.4
4096.257	-126.4
4098.693	-125.4
4101.127	-129.4
4103.559	-124.4
4105.989	12.6
4108.418	9.6
4110.845	12.6
4113.27	12.6
4115.694	-1.4
4118.115	-2.4
4120.535	-123.4
4122.954	-127.4
4125.37	-121.4
4127.785	-121.4
4130.198	-120.4
4132.609	-122.4
4135.019	-126.4
4137.427	-129.4
4139.833	-129.4
4142.237	-132.4
