Data from 2018-2-8_conc=3_n=7_RamanShift_03.txt Node
Date: Mon Mar 12 14:48:58 IST 2018
User: aro
Spectrometer: QEPB0276
Trigger mode: 0
Integration Time (sec): 3.000000E1
Scans to average: 1
Electric dark correction enabled: true
Nonlinearity correction enabled: false
Boxcar width: 0
XAxis mode: Raman Shifts
Number of Pixels in Spectrum: 1044
>>>>>Begin Spectral Data<<<<<
160.701	24.4
166.742	50.4
172.777	124.4
178.805	379.4
184.826	1044.4
190.841	2245.4
196.849	3787.4
202.85	4980.4
208.845	5383.4
214.833	5417.4
220.815	5360.4
226.789	5354.4
232.758	5368.4
238.719	5338.4
244.674	5357.4
250.623	5276.4
256.565	5215.4
262.5	5158.4
268.429	5054.4
274.351	5024.4
280.267	5002.4
286.176	4983.4
292.079	4942.4
297.975	4927.4
303.865	4896.4
309.748	4883.4
315.625	4893.4
321.495	4880.4
327.359	4875.4
333.217	4875.4
339.068	4899.4
344.912	4895.4
350.751	4897.4
356.583	4907.4
362.408	4895.4
368.227	4915.4
374.04	4928.4
379.847	4950.4
385.647	5000.4
391.44	4999.4
397.228	5023.4
403.009	5066.4
408.784	5034.4
414.553	5060.4
420.315	5093.4
426.071	5081.4
431.821	5088.4
437.565	5085.4
443.302	5067.4
449.033	5060.4
454.758	5027.4
460.477	5032.4
466.189	4979.4
471.896	4950.4
477.596	4939.4
483.29	4895.4
488.978	4896.4
494.66	4889.4
500.335	4818.4
506.005	4703.4
511.668	4553.4
517.325	4430.4
522.977	4292.4
528.622	4208.4
534.261	4149.4
539.894	4113.4
545.521	4096.4
551.141	4049.4
556.756	4029.4
562.365	4005.4
567.968	3962.4
573.565	3942.4
579.155	3923.4
584.74	3900.4
590.319	3932.4
595.892	3901.4
601.459	3897.4
607.02	3872.4
612.575	3841.4
618.124	3817.4
623.667	3750.4
629.204	3752.4
634.735	3697.4
640.261	3685.4
645.781	3657.4
651.294	3666.4
656.802	3652.4
662.304	3657.4
667.8	3625.4
673.29	3620.4
678.775	3622.4
684.254	3605.4
689.726	3575.4
695.193	3579.4
700.655	3560.4
706.11	3535.4
711.56	3532.4
717.004	3494.4
722.442	3479.4
727.874	3478.4
733.301	3419.4
738.722	3453.4
744.137	3416.4
749.547	3414.4
754.951	3418.4
760.349	3402.4
765.741	3432.4
771.128	3457.4
776.509	3453.4
781.885	3494.4
787.254	3490.4
792.618	3479.4
797.977	3475.4
803.33	3438.4
808.677	3420.4
814.019	3386.4
819.355	3362.4
824.686	3306.4
830.011	3329.4
835.33	3320.4
840.644	3312.4
845.952	3291.4
851.255	3310.4
856.552	3302.4
861.844	3274.4
867.13	3269.4
872.41	3224.4
877.686	3201.4
882.955	3174.4
888.219	3162.4
893.478	3120.4
898.731	3085.4
903.979	3039.4
909.221	3022.4
914.458	3012.4
919.69	3005.4
924.916	2997.4
930.136	3009.4
935.351	3023.4
940.561	3025.4
945.766	3006.4
950.965	3009.4
956.158	2980.4
961.347	2935.4
966.529	2908.4
971.707	2878.4
976.879	2829.4
982.046	2800.4
987.208	2817.4
992.364	2796.4
997.515	2794.4
1002.66	2842.4
1007.801	2851.4
1012.936	2867.4
1018.066	2867.4
1023.19	2882.4
1028.309	2882.4
1033.423	2859.4
1038.532	2873.4
1043.636	2846.4
1048.734	2807.4
1053.827	2787.4
1058.915	2729.4
1063.998	2714.4
1069.075	2712.4
1074.147	2726.4
1079.214	2697.4
1084.276	2753.4
1089.333	2742.4
1094.385	2743.4
1099.431	2760.4
1104.472	2765.4
1109.509	2750.4
1114.54	2698.4
1119.565	2656.4
1124.586	2625.4
1129.602	2584.4
1134.613	2579.4
1139.618	2544.4
1144.619	2562.4
1149.614	2526.4
1154.604	2576.4
1159.589	2572.4
1164.57	2569.4
1169.545	2580.4
1174.515	2574.4
1179.48	2562.4
1184.44	2548.4
1189.395	2522.4
1194.345	2504.4
1199.29	2470.4
1204.23	2489.4
1209.165	2489.4
1214.095	2493.4
1219.021	2512.4
1223.941	2513.4
1228.856	2539.4
1233.766	2542.4
1238.672	2559.4
1243.572	2559.4
1248.467	2539.4
1253.358	2508.4
1258.244	2460.4
1263.124	2413.4
1268	2357.4
1272.871	2347.4
1277.737	2342.4
1282.599	2314.4
1287.455	2320.4
1292.306	2336.4
1297.153	2330.4
1301.995	2332.4
1306.832	2343.4
1311.664	2365.4
1316.491	2372.4
1321.314	2376.4
1326.132	2365.4
1330.945	2311.4
1335.753	2301.4
1340.556	2263.4
1345.354	2214.4
1350.148	2190.4
1354.937	2160.4
1359.722	2127.4
1364.501	2078.4
1369.276	2062.4
1374.046	2020.4
1378.811	1974.4
1383.572	1990.4
1388.327	1982.4
1393.079	1970.4
1397.825	1996.4
1402.567	1969.4
1407.304	1985.4
1412.036	1974.4
1416.764	1985.4
1421.487	1994.4
1426.205	2011.4
1430.919	2001.4
1435.628	2013.4
1440.333	2021.4
1445.032	2031.4
1449.727	2051.4
1454.418	2089.4
1459.104	2061.4
1463.785	2027.4
1468.462	2004.4
1473.134	1962.4
1477.802	1920.4
1482.465	1883.4
1487.123	1848.4
1491.777	1810.4
1496.426	1809.4
1501.071	1798.4
1505.711	1778.4
1510.347	1770.4
1514.978	1776.4
1519.604	1756.4
1524.226	1764.4
1528.844	1756.4
1533.457	1745.4
1538.065	1714.4
1542.669	1719.4
1547.269	1727.4
1551.864	1713.4
1556.454	1734.4
1561.041	1740.4
1565.622	1779.4
1570.199	1770.4
1574.772	1781.4
1579.34	1810.4
1583.904	1838.4
1588.464	1841.4
1593.019	1845.4
1597.569	1843.4
1602.115	1842.4
1606.657	1841.4
1611.195	1830.4
1615.728	1825.4
1620.256	1813.4
1624.78	1821.4
1629.3	1833.4
1633.816	1822.4
1638.327	1867.4
1642.834	1849.4
1647.336	1857.4
1651.834	1858.4
1656.328	1868.4
1660.817	1844.4
1665.302	1848.4
1669.783	1797.4
1674.259	1776.4
1678.732	1730.4
1683.199	1671.4
1687.663	1631.4
1692.122	1567.4
1696.577	1503.4
1701.028	1442.4
1705.474	1392.4
1709.917	1349.4
1714.355	1319.4
1718.788	1330.4
1723.218	1321.4
1727.643	1294.4
1732.064	1324.4
1736.481	1294.4
1740.893	1280.4
1745.301	1242.4
1749.705	1221.4
1754.105	1227.4
1758.501	1192.4
1762.893	1176.4
1767.28	1148.4
1771.663	1133.4
1776.042	1129.4
1780.417	1116.4
1784.787	1096.4
1789.154	1086.4
1793.516	1100.4
1797.874	1074.4
1802.228	1061.4
1806.578	1051.4
1810.924	1025.4
1815.266	1024.4
1819.603	1014.4
1823.937	1022.4
1828.266	1022.4
1832.591	1024.4
1836.913	1026.4
1841.23	1022.4
1845.543	1018.4
1849.852	1012.4
1854.156	1003.4
1858.457	1013.4
1862.754	1023.4
1867.047	1016.4
1871.335	1024.4
1875.62	1027.4
1879.9	1020.4
1884.177	1001.4
1888.449	1007.4
1892.718	988.4
1896.982	984.4
1901.243	952.4
1905.499	952.4
1909.752	951.4
1914	911.4
1918.245	932.4
1922.485	903.4
1926.722	900.4
1930.954	901.4
1935.183	893.4
1939.408	872.4
1943.628	903.4
1947.845	870.4
1952.058	868.4
1956.267	854.4
1960.472	851.4
1964.673	843.4
1968.87	834.4
1973.063	839.4
1977.252	824.4
1981.438	829.4
1985.619	824.4
1989.797	823.4
1993.971	825.4
1998.14	817.4
2002.306	816.4
2006.469	838.4
2010.627	826.4
2014.781	834.4
2018.932	825.4
2023.078	831.4
2027.221	813.4
2031.36	822.4
2035.495	810.4
2039.627	789.4
2043.754	785.4
2047.878	774.4
2051.998	767.4
2056.114	763.4
2060.226	763.4
2064.334	760.4
2068.439	752.4
2072.54	759.4
2076.637	769.4
2080.73	756.4
2084.82	742.4
2088.906	742.4
2092.988	738.4
2097.066	714.4
2101.14	715.4
2105.211	709.4
2109.278	697.4
2113.342	689.4
2117.401	680.4
2121.457	673.4
2125.509	666.4
2129.558	668.4
2133.602	675.4
2137.643	670.4
2141.681	672.4
2145.714	677.4
2149.744	679.4
2153.77	669.4
2157.793	663.4
2161.812	666.4
2165.827	649.4
2169.838	635.4
2173.846	647.4
2177.851	615.4
2181.851	602.4
2185.848	606.4
2189.841	611.4
2193.831	605.4
2197.817	592.4
2201.799	594.4
2205.778	592.4
2209.753	590.4
2213.725	588.4
2217.693	577.4
2221.657	581.4
2225.618	585.4
2229.575	581.4
2233.529	584.4
2237.479	581.4
2241.425	559.4
2245.368	543.4
2249.307	553.4
2253.243	535.4
2257.175	536.4
2261.104	533.4
2265.029	520.4
2268.95	508.4
2272.868	501.4
2276.783	489.4
2280.694	499.4
2284.601	490.4
2288.505	490.4
2292.405	481.4
2296.302	474.4
2300.195	465.4
2304.085	455.4
2307.971	449.4
2311.854	442.4
2315.734	434.4
2319.609	436.4
2323.482	442.4
2327.351	434.4
2331.216	437.4
2335.078	443.4
2338.937	428.4
2342.792	416.4
2346.643	408.4
2350.492	412.4
2354.336	415.4
2358.178	417.4
2362.015	427.4
2365.85	418.4
2369.681	425.4
2373.508	418.4
2377.333	415.4
2381.153	404.4
2384.971	425.4
2388.785	431.4
2392.595	404.4
2396.402	400.4
2400.206	396.4
2404.007	397.4
2407.804	403.4
2411.597	392.4
2415.388	398.4
2419.174	393.4
2422.958	386.4
2426.738	386.4
2430.515	391.4
2434.289	392.4
2438.059	391.4
2441.825	367.4
2445.589	370.4
2449.349	359.4
2453.106	354.4
2456.859	360.4
2460.61	353.4
2464.356	343.4
2468.1	345.4
2471.84	339.4
2475.577	354.4
2479.311	321.4
2483.041	325.4
2486.768	327.4
2490.492	324.4
2494.213	333.4
2497.93	325.4
2501.644	320.4
2505.355	319.4
2509.062	319.4
2512.766	319.4
2516.467	309.4
2520.165	300.4
2523.859	305.4
2527.551	299.4
2531.239	304.4
2534.923	285.4
2538.605	280.4
2542.283	289.4
2545.958	288.4
2549.63	280.4
2553.299	279.4
2556.964	287.4
2560.626	266.4
2564.285	261.4
2567.941	261.4
2571.594	261.4
2575.243	254.4
2578.89	260.4
2582.533	247.4
2586.173	248.4
2589.809	238.4
2593.443	239.4
2597.073	231.4
2600.701	227.4
2604.325	232.4
2607.946	235.4
2611.564	235.4
2615.178	231.4
2618.79	222.4
2622.398	236.4
2626.004	225.4
2629.606	218.4
2633.205	220.4
2636.801	218.4
2640.394	219.4
2643.983	211.4
2647.57	217.4
2651.153	215.4
2654.734	208.4
2658.311	200.4
2661.885	205.4
2665.456	206.4
2669.025	204.4
2672.589	192.4
2676.151	200.4
2679.71	195.4
2683.266	189.4
2686.819	186.4
2690.368	178.4
2693.915	184.4
2697.458	165.4
2700.999	173.4
2704.536	165.4
2708.071	158.4
2711.602	163.4
2715.13	172.4
2718.656	163.4
2722.178	155.4
2725.697	157.4
2729.214	156.4
2732.727	157.4
2736.237	146.4
2739.744	143.4
2743.249	145.4
2746.75	142.4
2750.248	140.4
2753.743	140.4
2757.236	134.4
2760.725	134.4
2764.211	124.4
2767.695	122.4
2771.175	125.4
2774.652	119.4
2778.127	127.4
2781.598	114.4
2785.067	120.4
2788.532	126.4
2791.995	127.4
2795.455	125.4
2798.911	118.4
2802.365	129.4
2805.816	131.4
2809.264	116.4
2812.709	126.4
2816.151	125.4
2819.59	123.4
2823.026	128.4
2826.46	123.4
2829.89	123.4
2833.318	117.4
2836.742	128.4
2840.164	125.4
2843.583	118.4
2846.999	137.4
2850.412	126.4
2853.822	129.4
2857.229	131.4
2860.634	127.4
2864.035	136.4
2867.434	136.4
2870.83	145.4
2874.223	151.4
2877.613	155.4
2881	174.4
2884.385	160.4
2887.766	150.4
2891.145	148.4
2894.521	161.4
2897.894	169.4
2901.264	172.4
2904.631	172.4
2907.996	159.4
2911.358	159.4
2914.717	170.4
2918.073	172.4
2921.426	181.4
2924.777	185.4
2928.124	189.4
2931.469	188.4
2934.811	204.4
2938.15	204.4
2941.487	203.4
2944.821	204.4
2948.152	209.4
2951.48	209.4
2954.805	204.4
2958.128	211.4
2961.447	198.4
2964.765	201.4
2968.079	192.4
2971.39	204.4
2974.699	206.4
2978.005	206.4
2981.308	206.4
2984.609	208.4
2987.907	202.4
2991.202	214.4
2994.494	208.4
2997.784	213.4
3001.07	223.4
3004.355	225.4
3007.636	234.4
3010.915	222.4
3014.191	220.4
3017.464	234.4
3020.734	231.4
3024.002	232.4
3027.267	244.4
3030.53	256.4
3033.789	257.4
3037.046	260.4
3040.301	249.4
3043.552	268.4
3046.801	286.4
3050.048	292.4
3053.291	286.4
3056.532	305.4
3059.771	314.4
3063.006	321.4
3066.239	337.4
3069.469	347.4
3072.697	351.4
3075.922	373.4
3079.144	384.4
3082.364	382.4
3085.581	406.4
3088.795	399.4
3092.007	401.4
3095.216	418.4
3098.423	439.4
3101.627	438.4
3104.828	449.4
3108.026	459.4
3111.222	464.4
3114.416	472.4
3117.607	499.4
3120.795	488.4
3123.98	506.4
3127.163	512.4
3130.344	544.4
3133.521	549.4
3136.696	558.4
3139.869	558.4
3143.039	571.4
3146.206	582.4
3149.371	588.4
3152.533	592.4
3155.693	611.4
3158.85	610.4
3162.005	615.4
3165.157	603.4
3168.306	611.4
3171.453	616.4
3174.597	617.4
3177.739	611.4
3180.878	634.4
3184.014	636.4
3187.149	637.4
3190.28	636.4
3193.409	631.4
3196.536	638.4
3199.659	644.4
3202.781	650.4
3205.9	643.4
3209.016	648.4
3212.13	664.4
3215.241	639.4
3218.35	619.4
3221.456	634.4
3224.56	627.4
3227.661	619.4
3230.76	609.4
3233.856	600.4
3236.95	583.4
3240.041	573.4
3243.13	576.4
3246.216	557.4
3249.3	545.4
3252.382	558.4
3255.46	551.4
3258.537	542.4
3261.611	538.4
3264.682	537.4
3267.751	541.4
3270.818	520.4
3273.882	520.4
3276.943	527.4
3280.002	531.4
3283.059	528.4
3286.113	513.4
3289.165	491.4
3292.214	494.4
3295.261	498.4
3298.306	486.4
3301.348	486.4
3304.387	477.4
3307.425	473.4
3310.459	470.4
3313.492	456.4
3316.521	457.4
3319.549	449.4
3322.574	454.4
3325.597	448.4
3328.617	455.4
3331.635	445.4
3334.65	452.4
3337.663	418.4
3340.674	432.4
3343.682	433.4
3346.688	423.4
3349.691	433.4
3352.692	429.4
3355.691	424.4
3358.687	415.4
3361.681	420.4
3364.673	414.4
3367.662	411.4
3370.649	392.4
3373.633	397.4
3376.615	389.4
3379.595	375.4
3382.572	380.4
3385.547	372.4
3388.52	364.4
3391.49	358.4
3394.458	358.4
3397.424	342.4
3400.387	353.4
3403.348	329.4
3406.307	334.4
3409.263	330.4
3412.217	326.4
3415.168	323.4
3418.118	310.4
3421.065	310.4
3424.009	314.4
3426.951	304.4
3429.891	291.4
3432.829	290.4
3435.764	275.4
3438.697	261.4
3441.628	260.4
3444.557	251.4
3447.483	245.4
3450.407	242.4
3453.328	224.4
3456.247	223.4
3459.164	204.4
3462.079	196.4
3464.991	191.4
3467.902	190.4
3470.809	181.4
3473.715	162.4
3476.618	154.4
3479.519	151.4
3482.418	149.4
3485.315	134.4
3488.209	131.4
3491.101	133.4
3493.99	127.4
3496.878	127.4
3499.763	101.4
3502.646	91.4
3505.527	92.4
3508.405	86.4
3511.281	76.4
3514.155	77.4
3517.027	69.4
3519.897	60.4
3522.764	52.4
3525.629	40.4
3528.492	37.4
3531.352	33.4
3534.211	27.4
3537.067	25.4
3539.921	20.4
3542.773	12.4
3545.622	-0.6
3548.469	-3.6
3551.315	0.4
3554.157	-21.6
3556.998	-15.6
3559.837	-21.6
3562.673	-23.6
3565.507	-23.6
3568.339	-33.6
3571.169	-43.6
3573.996	-31.6
3576.822	-42.6
3579.645	-36.6
3582.466	-37.6
3585.285	-52.6
3588.101	-43.6
3590.916	-52.6
3593.728	-65.6
3596.538	-53.6
3599.346	-69.6
3602.152	-61.6
3604.956	-65.6
3607.757	-65.6
3610.556	-67.6
3613.354	-70.6
3616.149	-79.6
3618.942	-78.6
3621.732	-86.6
3624.521	-80.6
3627.307	-80.6
3630.092	-78.6
3632.874	-84.6
3635.654	-92.6
3638.432	-88.6
3641.208	-95.6
3643.982	-97.6
3646.753	-97.6
3649.523	-101.6
3652.29	-89.6
3655.055	-98.6
3657.818	-94.6
3660.579	-100.6
3663.338	-102.6
3666.095	-106.6
3668.849	-111.6
3671.602	-102.6
3674.352	-106.6
3677.101	-111.6
3679.847	-110.6
3682.591	-116.6
3685.333	-114.6
3688.073	-115.6
3690.811	-114.6
3693.547	-120.6
3696.281	-119.6
3699.013	-117.6
3701.742	-123.6
3704.47	-120.6
3707.195	-120.6
3709.919	-120.6
3712.64	-125.6
3715.359	-124.6
3718.076	-120.6
3720.792	-120.6
3723.505	-130.6
3726.216	-125.6
3728.925	-127.6
3731.632	-123.6
3734.336	-135.6
3737.039	-125.6
3739.74	-132.6
3742.439	-140.6
3745.136	-125.6
3747.83	-138.6
3750.523	-135.6
3753.213	-138.6
3755.902	-127.6
3758.589	-137.6
3761.273	-127.6
3763.956	-129.6
3766.636	-133.6
3769.315	-127.6
3771.991	-132.6
3774.665	-135.6
3777.338	-125.6
3780.008	-136.6
3782.677	-130.6
3785.343	-130.6
3788.007	-134.6
3790.67	-135.6
3793.33	-132.6
3795.989	-133.6
3798.645	-128.6
3801.299	-133.6
3803.952	-136.6
3806.602	-134.6
3809.251	-140.6
3811.897	-142.6
3814.542	-139.6
3817.184	-128.6
3819.825	-134.6
3822.463	-134.6
3825.1	-136.6
3827.735	-135.6
3830.367	-138.6
3832.998	-138.6
3835.627	-134.6
3838.253	-134.6
3840.878	-130.6
3843.501	-130.6
3846.122	-140.6
3848.741	-149.6
3851.358	-133.6
3853.973	-138.6
3856.586	-135.6
3859.197	-137.6
3861.806	-135.6
3864.414	-139.6
3867.019	-131.6
3869.622	-140.6
3872.224	-123.6
3874.823	-117.6
3877.421	-101.6
3880.016	-72.6
3882.61	-54.6
3885.202	-57.6
3887.792	-69.6
3890.38	-103.6
3892.966	-123.6
3895.55	-130.6
3898.132	-126.6
3900.713	-136.6
3903.291	-138.6
3905.868	-139.6
3908.442	-134.6
3911.015	-140.6
3913.586	-136.6
3916.155	-134.6
3918.722	-137.6
3921.287	-134.6
3923.85	-143.6
3926.411	-142.6
3928.971	-140.6
3931.528	-140.6
3934.084	-141.6
3936.638	-129.6
3939.19	-140.6
3941.74	-138.6
3944.288	-144.6
3946.834	-137.6
3949.378	-132.6
3951.921	-141.6
3954.462	-142.6
3957	-141.6
3959.537	-130.6
3962.072	-140.6
3964.606	-132.6
3967.137	-136.6
3969.667	-143.6
3972.194	-144.6
3974.72	-137.6
3977.244	-141.6
3979.766	-139.6
3982.286	-138.6
3984.805	-140.6
3987.321	-137.6
3989.836	-130.6
3992.349	-140.6
3994.86	-143.6
3997.369	-137.6
3999.877	-140.6
4002.382	-132.6
4004.886	-135.6
4007.388	-132.6
4009.888	-134.6
4012.386	-144.6
4014.883	-139.6
4017.377	-141.6
4019.87	-140.6
4022.361	-137.6
4024.85	-135.6
4027.338	-134.6
4029.823	-135.6
4032.307	-134.6
4034.789	-140.6
4037.269	-136.6
4039.747	-130.6
4042.224	-134.6
4044.699	-140.6
4047.172	-134.6
4049.643	-130.6
4052.112	-135.6
4054.58	-142.6
4057.046	-140.6
4059.51	-137.6
4061.972	-137.6
4064.432	-133.6
4066.891	-129.6
4069.348	-131.6
4071.803	-139.6
4074.256	-138.6
4076.708	-135.6
4079.158	-140.6
4081.606	-128.6
4084.052	-133.6
4086.497	-136.6
4088.939	-126.6
4091.38	-132.6
4093.819	-136.6
4096.257	-143.6
4098.693	-142.6
4101.127	-141.6
4103.559	-142.6
4105.989	9.4
4108.418	6.4
4110.845	3.4
4113.27	6.4
4115.694	-0.6
4118.115	-6.6
4120.535	-136.6
4122.954	-145.6
4125.37	-138.6
4127.785	-140.6
4130.198	-133.6
4132.609	-135.6
4135.019	-142.6
4137.427	-145.6
4139.833	-145.6
4142.237	-144.6
