Data from 2018-2-8_conc=3_n=9_RamanShift_02.txt Node
Date: Mon Mar 12 14:56:28 IST 2018
User: aro
Spectrometer: QEPB0276
Trigger mode: 0
Integration Time (sec): 3.000000E1
Scans to average: 1
Electric dark correction enabled: true
Nonlinearity correction enabled: false
Boxcar width: 0
XAxis mode: Raman Shifts
Number of Pixels in Spectrum: 1044
>>>>>Begin Spectral Data<<<<<
160.701	18.5
166.742	42.5
172.777	114.5
178.805	357.5
184.826	991.5
190.841	2149.5
196.849	3582.5
202.85	4684.5
208.845	5106.5
214.833	5153.5
220.815	5074.5
226.789	5057.5
232.758	5054.5
238.719	5073.5
244.674	5030.5
250.623	5001.5
256.565	4922.5
262.5	4857.5
268.429	4799.5
274.351	4778.5
280.267	4725.5
286.176	4687.5
292.079	4687.5
297.975	4678.5
303.865	4639.5
309.748	4640.5
315.625	4633.5
321.495	4617.5
327.359	4612.5
333.217	4603.5
339.068	4610.5
344.912	4650.5
350.751	4631.5
356.583	4665.5
362.408	4677.5
368.227	4676.5
374.04	4660.5
379.847	4662.5
385.647	4706.5
391.44	4692.5
397.228	4740.5
403.009	4775.5
408.784	4799.5
414.553	4832.5
420.315	4800.5
426.071	4799.5
431.821	4812.5
437.565	4821.5
443.302	4803.5
449.033	4780.5
454.758	4757.5
460.477	4731.5
466.189	4754.5
471.896	4679.5
477.596	4630.5
483.29	4633.5
488.978	4650.5
494.66	4637.5
500.335	4570.5
506.005	4456.5
511.668	4318.5
517.325	4209.5
522.977	4088.5
528.622	4007.5
534.261	3963.5
539.894	3922.5
545.521	3869.5
551.141	3866.5
556.756	3824.5
562.365	3797.5
567.968	3797.5
573.565	3757.5
579.155	3748.5
584.74	3735.5
590.319	3692.5
595.892	3717.5
601.459	3706.5
607.02	3682.5
612.575	3655.5
618.124	3648.5
623.667	3598.5
629.204	3566.5
634.735	3552.5
640.261	3513.5
645.781	3500.5
651.294	3488.5
656.802	3477.5
662.304	3490.5
667.8	3459.5
673.29	3465.5
678.775	3436.5
684.254	3415.5
689.726	3439.5
695.193	3371.5
700.655	3373.5
706.11	3347.5
711.56	3356.5
717.004	3335.5
722.442	3285.5
727.874	3298.5
733.301	3284.5
738.722	3251.5
744.137	3231.5
749.547	3242.5
754.951	3258.5
760.349	3257.5
765.741	3273.5
771.128	3276.5
776.509	3295.5
781.885	3314.5
787.254	3301.5
792.618	3322.5
797.977	3312.5
803.33	3271.5
808.677	3237.5
814.019	3239.5
819.355	3217.5
824.686	3174.5
830.011	3165.5
835.33	3151.5
840.644	3158.5
845.952	3157.5
851.255	3130.5
856.552	3137.5
861.844	3120.5
867.13	3092.5
872.41	3078.5
877.686	3077.5
882.955	3041.5
888.219	3017.5
893.478	2966.5
898.731	2919.5
903.979	2896.5
909.221	2872.5
914.458	2890.5
919.69	2869.5
924.916	2866.5
930.136	2865.5
935.351	2875.5
940.561	2874.5
945.766	2891.5
950.965	2868.5
956.158	2844.5
961.347	2818.5
966.529	2778.5
971.707	2735.5
976.879	2696.5
982.046	2668.5
987.208	2636.5
992.364	2669.5
997.515	2676.5
1002.66	2689.5
1007.801	2711.5
1012.936	2760.5
1018.066	2717.5
1023.19	2736.5
1028.309	2728.5
1033.423	2743.5
1038.532	2734.5
1043.636	2687.5
1048.734	2690.5
1053.827	2649.5
1058.915	2610.5
1063.998	2601.5
1069.075	2581.5
1074.147	2601.5
1079.214	2590.5
1084.276	2607.5
1089.333	2622.5
1094.385	2617.5
1099.431	2626.5
1104.472	2621.5
1109.509	2623.5
1114.54	2589.5
1119.565	2522.5
1124.586	2498.5
1129.602	2475.5
1134.613	2461.5
1139.618	2433.5
1144.619	2424.5
1149.614	2437.5
1154.604	2432.5
1159.589	2448.5
1164.57	2450.5
1169.545	2463.5
1174.515	2469.5
1179.48	2439.5
1184.44	2407.5
1189.395	2404.5
1194.345	2382.5
1199.29	2363.5
1204.23	2353.5
1209.165	2372.5
1214.095	2387.5
1219.021	2385.5
1223.941	2397.5
1228.856	2409.5
1233.766	2424.5
1238.672	2437.5
1243.572	2392.5
1248.467	2376.5
1253.358	2385.5
1258.244	2340.5
1263.124	2326.5
1268	2268.5
1272.871	2243.5
1277.737	2225.5
1282.599	2219.5
1287.455	2215.5
1292.306	2210.5
1297.153	2217.5
1301.995	2242.5
1306.832	2252.5
1311.664	2270.5
1316.491	2271.5
1321.314	2252.5
1326.132	2235.5
1330.945	2224.5
1335.753	2183.5
1340.556	2149.5
1345.354	2118.5
1350.148	2089.5
1354.937	2044.5
1359.722	2019.5
1364.501	2005.5
1369.276	1955.5
1374.046	1926.5
1378.811	1902.5
1383.572	1880.5
1388.327	1885.5
1393.079	1881.5
1397.825	1886.5
1402.567	1876.5
1407.304	1880.5
1412.036	1874.5
1416.764	1905.5
1421.487	1918.5
1426.205	1902.5
1430.919	1903.5
1435.628	1905.5
1440.333	1933.5
1445.032	1957.5
1449.727	1960.5
1454.418	1973.5
1459.104	1968.5
1463.785	1934.5
1468.462	1908.5
1473.134	1872.5
1477.802	1836.5
1482.465	1803.5
1487.123	1762.5
1491.777	1737.5
1496.426	1730.5
1501.071	1703.5
1505.711	1697.5
1510.347	1700.5
1514.978	1682.5
1519.604	1683.5
1524.226	1667.5
1528.844	1649.5
1533.457	1661.5
1538.065	1659.5
1542.669	1648.5
1547.269	1632.5
1551.864	1647.5
1556.454	1661.5
1561.041	1683.5
1565.622	1693.5
1570.199	1680.5
1574.772	1698.5
1579.34	1726.5
1583.904	1739.5
1588.464	1770.5
1593.019	1762.5
1597.569	1766.5
1602.115	1759.5
1606.657	1752.5
1611.195	1741.5
1615.728	1741.5
1620.256	1726.5
1624.78	1739.5
1629.3	1735.5
1633.816	1757.5
1638.327	1750.5
1642.834	1747.5
1647.336	1772.5
1651.834	1765.5
1656.328	1771.5
1660.817	1753.5
1665.302	1747.5
1669.783	1713.5
1674.259	1672.5
1678.732	1647.5
1683.199	1609.5
1687.663	1550.5
1692.122	1506.5
1696.577	1453.5
1701.028	1391.5
1705.474	1337.5
1709.917	1300.5
1714.355	1277.5
1718.788	1246.5
1723.218	1273.5
1727.643	1235.5
1732.064	1249.5
1736.481	1236.5
1740.893	1216.5
1745.301	1199.5
1749.705	1173.5
1754.105	1144.5
1758.501	1150.5
1762.893	1103.5
1767.28	1104.5
1771.663	1088.5
1776.042	1082.5
1780.417	1073.5
1784.787	1059.5
1789.154	1038.5
1793.516	1034.5
1797.874	1028.5
1802.228	1015.5
1806.578	997.5
1810.924	986.5
1815.266	969.5
1819.603	991.5
1823.937	983.5
1828.266	977.5
1832.591	976.5
1836.913	978.5
1841.23	976.5
1845.543	981.5
1849.852	973.5
1854.156	955.5
1858.457	966.5
1862.754	979.5
1867.047	982.5
1871.335	990.5
1875.62	991.5
1879.9	991.5
1884.177	956.5
1888.449	964.5
1892.718	946.5
1896.982	929.5
1901.243	931.5
1905.499	923.5
1909.752	900.5
1914	888.5
1918.245	876.5
1922.485	869.5
1926.722	866.5
1930.954	845.5
1935.183	856.5
1939.408	835.5
1943.628	852.5
1947.845	842.5
1952.058	829.5
1956.267	821.5
1960.472	804.5
1964.673	804.5
1968.87	803.5
1973.063	791.5
1977.252	783.5
1981.438	797.5
1985.619	789.5
1989.797	781.5
1993.971	784.5
1998.14	800.5
2002.306	790.5
2006.469	791.5
2010.627	804.5
2014.781	802.5
2018.932	784.5
2023.078	784.5
2027.221	781.5
2031.36	781.5
2035.495	759.5
2039.627	762.5
2043.754	745.5
2047.878	739.5
2051.998	743.5
2056.114	731.5
2060.226	728.5
2064.334	719.5
2068.439	720.5
2072.54	722.5
2076.637	732.5
2080.73	723.5
2084.82	711.5
2088.906	704.5
2092.988	708.5
2097.066	682.5
2101.14	674.5
2105.211	683.5
2109.278	676.5
2113.342	667.5
2117.401	647.5
2121.457	641.5
2125.509	625.5
2129.558	646.5
2133.602	635.5
2137.643	655.5
2141.681	636.5
2145.714	634.5
2149.744	638.5
2153.77	631.5
2157.793	625.5
2161.812	635.5
2165.827	621.5
2169.838	610.5
2173.846	598.5
2177.851	608.5
2181.851	580.5
2185.848	569.5
2189.841	575.5
2193.831	577.5
2197.817	572.5
2201.799	566.5
2205.778	565.5
2209.753	561.5
2213.725	552.5
2217.693	562.5
2221.657	551.5
2225.618	551.5
2229.575	561.5
2233.529	550.5
2237.479	550.5
2241.425	539.5
2245.368	526.5
2249.307	520.5
2253.243	508.5
2257.175	503.5
2261.104	499.5
2265.029	490.5
2268.95	497.5
2272.868	493.5
2276.783	472.5
2280.694	473.5
2284.601	460.5
2288.505	471.5
2292.405	456.5
2296.302	444.5
2300.195	452.5
2304.085	434.5
2307.971	418.5
2311.854	429.5
2315.734	416.5
2319.609	401.5
2323.482	409.5
2327.351	416.5
2331.216	417.5
2335.078	437.5
2338.937	412.5
2342.792	395.5
2346.643	392.5
2350.492	384.5
2354.336	401.5
2358.178	400.5
2362.015	401.5
2365.85	390.5
2369.681	391.5
2373.508	404.5
2377.333	399.5
2381.153	395.5
2384.971	411.5
2388.785	393.5
2392.595	386.5
2396.402	384.5
2400.206	389.5
2404.007	384.5
2407.804	377.5
2411.597	377.5
2415.388	379.5
2419.174	374.5
2422.958	361.5
2426.738	367.5
2430.515	363.5
2434.289	362.5
2438.059	358.5
2441.825	354.5
2445.589	354.5
2449.349	340.5
2453.106	347.5
2456.859	346.5
2460.61	337.5
2464.356	333.5
2468.1	334.5
2471.84	319.5
2475.577	325.5
2479.311	312.5
2483.041	310.5
2486.768	309.5
2490.492	313.5
2494.213	312.5
2497.93	304.5
2501.644	310.5
2505.355	303.5
2509.062	302.5
2512.766	296.5
2516.467	281.5
2520.165	290.5
2523.859	287.5
2527.551	280.5
2531.239	278.5
2534.923	265.5
2538.605	269.5
2542.283	265.5
2545.958	263.5
2549.63	259.5
2553.299	266.5
2556.964	271.5
2560.626	258.5
2564.285	246.5
2567.941	250.5
2571.594	248.5
2575.243	248.5
2578.89	234.5
2582.533	240.5
2586.173	235.5
2589.809	231.5
2593.443	229.5
2597.073	226.5
2600.701	221.5
2604.325	220.5
2607.946	213.5
2611.564	215.5
2615.178	224.5
2618.79	223.5
2622.398	212.5
2626.004	226.5
2629.606	207.5
2633.205	204.5
2636.801	206.5
2640.394	202.5
2643.983	204.5
2647.57	197.5
2651.153	198.5
2654.734	195.5
2658.311	187.5
2661.885	182.5
2665.456	194.5
2669.025	192.5
2672.589	188.5
2676.151	190.5
2679.71	188.5
2683.266	178.5
2686.819	179.5
2690.368	175.5
2693.915	168.5
2697.458	170.5
2700.999	172.5
2704.536	162.5
2708.071	165.5
2711.602	155.5
2715.13	151.5
2718.656	144.5
2722.178	150.5
2725.697	139.5
2729.214	146.5
2732.727	145.5
2736.237	146.5
2739.744	135.5
2743.249	145.5
2746.75	130.5
2750.248	127.5
2753.743	139.5
2757.236	126.5
2760.725	121.5
2764.211	121.5
2767.695	123.5
2771.175	108.5
2774.652	111.5
2778.127	116.5
2781.598	109.5
2785.067	118.5
2788.532	113.5
2791.995	115.5
2795.455	118.5
2798.911	113.5
2802.365	120.5
2805.816	129.5
2809.264	122.5
2812.709	118.5
2816.151	120.5
2819.59	114.5
2823.026	119.5
2826.46	116.5
2829.89	113.5
2833.318	114.5
2836.742	123.5
2840.164	111.5
2843.583	118.5
2846.999	123.5
2850.412	132.5
2853.822	127.5
2857.229	124.5
2860.634	132.5
2864.035	128.5
2867.434	137.5
2870.83	143.5
2874.223	150.5
2877.613	141.5
2881	164.5
2884.385	153.5
2887.766	156.5
2891.145	141.5
2894.521	149.5
2897.894	159.5
2901.264	166.5
2904.631	153.5
2907.996	160.5
2911.358	158.5
2914.717	167.5
2918.073	164.5
2921.426	180.5
2924.777	177.5
2928.124	185.5
2931.469	186.5
2934.811	186.5
2938.15	196.5
2941.487	195.5
2944.821	203.5
2948.152	189.5
2951.48	196.5
2954.805	199.5
2958.128	200.5
2961.447	190.5
2964.765	195.5
2968.079	181.5
2971.39	190.5
2974.699	194.5
2978.005	196.5
2981.308	198.5
2984.609	195.5
2987.907	187.5
2991.202	213.5
2994.494	203.5
2997.784	193.5
3001.07	206.5
3004.355	213.5
3007.636	216.5
3010.915	215.5
3014.191	219.5
3017.464	220.5
3020.734	223.5
3024.002	222.5
3027.267	241.5
3030.53	230.5
3033.789	245.5
3037.046	246.5
3040.301	253.5
3043.552	263.5
3046.801	270.5
3050.048	279.5
3053.291	280.5
3056.532	298.5
3059.771	309.5
3063.006	307.5
3066.239	322.5
3069.469	334.5
3072.697	338.5
3075.922	344.5
3079.144	353.5
3082.364	386.5
3085.581	381.5
3088.795	383.5
3092.007	389.5
3095.216	401.5
3098.423	399.5
3101.627	416.5
3104.828	432.5
3108.026	427.5
3111.222	445.5
3114.416	444.5
3117.607	467.5
3120.795	470.5
3123.98	469.5
3127.163	495.5
3130.344	515.5
3133.521	533.5
3136.696	539.5
3139.869	543.5
3143.039	553.5
3146.206	557.5
3149.371	564.5
3152.533	582.5
3155.693	582.5
3158.85	581.5
3162.005	587.5
3165.157	590.5
3168.306	595.5
3171.453	586.5
3174.597	587.5
3177.739	601.5
3180.878	594.5
3184.014	621.5
3187.149	613.5
3190.28	614.5
3193.409	617.5
3196.536	622.5
3199.659	612.5
3202.781	623.5
3205.9	628.5
3209.016	619.5
3212.13	617.5
3215.241	617.5
3218.35	607.5
3221.456	596.5
3224.56	590.5
3227.661	580.5
3230.76	580.5
3233.856	566.5
3236.95	557.5
3240.041	560.5
3243.13	553.5
3246.216	543.5
3249.3	530.5
3252.382	539.5
3255.46	527.5
3258.537	523.5
3261.611	520.5
3264.682	507.5
3267.751	509.5
3270.818	499.5
3273.882	501.5
3276.943	495.5
3280.002	486.5
3283.059	494.5
3286.113	489.5
3289.165	495.5
3292.214	478.5
3295.261	458.5
3298.306	465.5
3301.348	458.5
3304.387	459.5
3307.425	457.5
3310.459	442.5
3313.492	432.5
3316.521	435.5
3319.549	420.5
3322.574	424.5
3325.597	416.5
3328.617	423.5
3331.635	412.5
3334.65	428.5
3337.663	413.5
3340.674	418.5
3343.682	419.5
3346.688	412.5
3349.691	413.5
3352.692	411.5
3355.691	411.5
3358.687	416.5
3361.681	401.5
3364.673	396.5
3367.662	386.5
3370.649	383.5
3373.633	374.5
3376.615	370.5
3379.595	368.5
3382.572	361.5
3385.547	352.5
3388.52	351.5
3391.49	352.5
3394.458	341.5
3397.424	336.5
3400.387	330.5
3403.348	324.5
3406.307	310.5
3409.263	311.5
3412.217	310.5
3415.168	306.5
3418.118	306.5
3421.065	306.5
3424.009	294.5
3426.951	291.5
3429.891	280.5
3432.829	268.5
3435.764	260.5
3438.697	246.5
3441.628	254.5
3444.557	248.5
3447.483	233.5
3450.407	225.5
3453.328	213.5
3456.247	209.5
3459.164	187.5
3462.079	183.5
3464.991	184.5
3467.902	172.5
3470.809	175.5
3473.715	158.5
3476.618	151.5
3479.519	154.5
3482.418	144.5
3485.315	132.5
3488.209	125.5
3491.101	122.5
3493.99	123.5
3496.878	115.5
3499.763	93.5
3502.646	100.5
3505.527	88.5
3508.405	83.5
3511.281	79.5
3514.155	74.5
3517.027	70.5
3519.897	53.5
3522.764	50.5
3525.629	37.5
3528.492	32.5
3531.352	32.5
3534.211	29.5
3537.067	26.5
3539.921	25.5
3542.773	9.5
3545.622	2.5
3548.469	4.5
3551.315	-1.5
3554.157	-4.5
3556.998	-12.5
3559.837	-12.5
3562.673	-23.5
3565.507	-19.5
3568.339	-27.5
3571.169	-36.5
3573.996	-33.5
3576.822	-30.5
3579.645	-36.5
3582.466	-31.5
3585.285	-49.5
3588.101	-38.5
3590.916	-55.5
3593.728	-55.5
3596.538	-58.5
3599.346	-57.5
3602.152	-55.5
3604.956	-60.5
3607.757	-56.5
3610.556	-69.5
3613.354	-67.5
3616.149	-71.5
3618.942	-76.5
3621.732	-72.5
3624.521	-80.5
3627.307	-77.5
3630.092	-77.5
3632.874	-76.5
3635.654	-86.5
3638.432	-82.5
3641.208	-82.5
3643.982	-88.5
3646.753	-83.5
3649.523	-87.5
3652.29	-88.5
3655.055	-87.5
3657.818	-95.5
3660.579	-94.5
3663.338	-91.5
3666.095	-93.5
3668.849	-98.5
3671.602	-92.5
3674.352	-101.5
3677.101	-105.5
3679.847	-107.5
3682.591	-108.5
3685.333	-97.5
3688.073	-105.5
3690.811	-107.5
3693.547	-113.5
3696.281	-112.5
3699.013	-110.5
3701.742	-113.5
3704.47	-109.5
3707.195	-106.5
3709.919	-114.5
3712.64	-111.5
3715.359	-117.5
3718.076	-115.5
3720.792	-116.5
3723.505	-123.5
3726.216	-113.5
3728.925	-121.5
3731.632	-114.5
3734.336	-121.5
3737.039	-120.5
3739.74	-120.5
3742.439	-127.5
3745.136	-118.5
3747.83	-126.5
3750.523	-119.5
3753.213	-124.5
3755.902	-118.5
3758.589	-121.5
3761.273	-118.5
3763.956	-118.5
3766.636	-123.5
3769.315	-111.5
3771.991	-115.5
3774.665	-128.5
3777.338	-114.5
3780.008	-123.5
3782.677	-123.5
3785.343	-124.5
3788.007	-127.5
3790.67	-126.5
3793.33	-119.5
3795.989	-125.5
3798.645	-120.5
3801.299	-122.5
3803.952	-130.5
3806.602	-123.5
3809.251	-125.5
3811.897	-128.5
3814.542	-124.5
3817.184	-119.5
3819.825	-130.5
3822.463	-126.5
3825.1	-125.5
3827.735	-128.5
3830.367	-129.5
3832.998	-130.5
3835.627	-125.5
3838.253	-126.5
3840.878	-125.5
3843.501	-122.5
3846.122	-127.5
3848.741	-123.5
3851.358	-123.5
3853.973	-130.5
3856.586	-121.5
3859.197	-128.5
3861.806	-126.5
3864.414	-124.5
3867.019	-125.5
3869.622	-131.5
3872.224	-115.5
3874.823	-111.5
3877.421	-106.5
3880.016	-84.5
3882.61	-66.5
3885.202	-61.5
3887.792	-80.5
3890.38	-95.5
3892.966	-118.5
3895.55	-115.5
3898.132	-122.5
3900.713	-129.5
3903.291	-126.5
3905.868	-129.5
3908.442	-120.5
3911.015	-127.5
3913.586	-125.5
3916.155	-134.5
3918.722	-133.5
3921.287	-129.5
3923.85	-133.5
3926.411	-129.5
3928.971	-127.5
3931.528	-127.5
3934.084	-124.5
3936.638	-126.5
3939.19	-130.5
3941.74	-134.5
3944.288	-129.5
3946.834	-127.5
3949.378	-125.5
3951.921	-124.5
3954.462	-134.5
3957	-129.5
3959.537	-125.5
3962.072	-135.5
3964.606	-123.5
3967.137	-127.5
3969.667	-130.5
3972.194	-131.5
3974.72	-132.5
3977.244	-131.5
3979.766	-134.5
3982.286	-125.5
3984.805	-124.5
3987.321	-123.5
3989.836	-116.5
3992.349	-131.5
3994.86	-125.5
3997.369	-125.5
3999.877	-130.5
4002.382	-117.5
4004.886	-126.5
4007.388	-121.5
4009.888	-122.5
4012.386	-130.5
4014.883	-129.5
4017.377	-127.5
4019.87	-126.5
4022.361	-129.5
4024.85	-129.5
4027.338	-127.5
4029.823	-125.5
4032.307	-125.5
4034.789	-130.5
4037.269	-131.5
4039.747	-119.5
4042.224	-125.5
4044.699	-127.5
4047.172	-120.5
4049.643	-125.5
4052.112	-128.5
4054.58	-128.5
4057.046	-126.5
4059.51	-128.5
4061.972	-121.5
4064.432	-122.5
4066.891	-126.5
4069.348	-122.5
4071.803	-133.5
4074.256	-128.5
4076.708	-119.5
4079.158	-125.5
4081.606	-121.5
4084.052	-127.5
4086.497	-123.5
4088.939	-120.5
4091.38	-128.5
4093.819	-123.5
4096.257	-136.5
4098.693	-131.5
4101.127	-130.5
4103.559	-127.5
4105.989	1.5
4108.418	-7.5
4110.845	-15.5
4113.27	-11.5
4115.694	-8.5
4118.115	-3.5
4120.535	-128.5
4122.954	-129.5
4125.37	-124.5
4127.785	-128.5
4130.198	-121.5
4132.609	-123.5
4135.019	-133.5
4137.427	-137.5
4139.833	-130.5
4142.237	-131.5
