Data from 2018-2-8_conc=6_n=5_RamanShift_05.txt Node
Date: Mon Mar 12 16:37:58 IST 2018
User: aro
Spectrometer: QEPB0276
Trigger mode: 0
Integration Time (sec): 3.000000E1
Scans to average: 1
Electric dark correction enabled: true
Nonlinearity correction enabled: false
Boxcar width: 0
XAxis mode: Raman Shifts
Number of Pixels in Spectrum: 1044
>>>>>Begin Spectral Data<<<<<
160.701	13.5
166.742	43.5
172.777	124.5
178.805	424.5
184.826	1165.5
190.841	2531.5
196.849	4220.5
202.85	5553.5
208.845	6062.5
214.833	6020.5
220.815	5958.5
226.789	5938.5
232.758	5954.5
238.719	5943.5
244.674	5905.5
250.623	5820.5
256.565	5741.5
262.5	5668.5
268.429	5590.5
274.351	5548.5
280.267	5436.5
286.176	5430.5
292.079	5447.5
297.975	5399.5
303.865	5377.5
309.748	5332.5
315.625	5340.5
321.495	5347.5
327.359	5303.5
333.217	5312.5
339.068	5312.5
344.912	5289.5
350.751	5338.5
356.583	5336.5
362.408	5346.5
368.227	5353.5
374.04	5361.5
379.847	5389.5
385.647	5407.5
391.44	5385.5
397.228	5443.5
403.009	5482.5
408.784	5479.5
414.553	5513.5
420.315	5532.5
426.071	5541.5
431.821	5548.5
437.565	5541.5
443.302	5510.5
449.033	5494.5
454.758	5457.5
460.477	5461.5
466.189	5422.5
471.896	5384.5
477.596	5360.5
483.29	5339.5
488.978	5352.5
494.66	5304.5
500.335	5264.5
506.005	5122.5
511.668	4995.5
517.325	4886.5
522.977	4799.5
528.622	4681.5
534.261	4620.5
539.894	4547.5
545.521	4518.5
551.141	4506.5
556.756	4467.5
562.365	4465.5
567.968	4424.5
573.565	4383.5
579.155	4371.5
584.74	4394.5
590.319	4330.5
595.892	4336.5
601.459	4331.5
607.02	4302.5
612.575	4284.5
618.124	4216.5
623.667	4198.5
629.204	4153.5
634.735	4127.5
640.261	4089.5
645.781	4077.5
651.294	4099.5
656.802	4090.5
662.304	4067.5
667.8	4069.5
673.29	4037.5
678.775	4039.5
684.254	4027.5
689.726	4024.5
695.193	4018.5
700.655	3976.5
706.11	3948.5
711.56	3912.5
717.004	3914.5
722.442	3885.5
727.874	3862.5
733.301	3834.5
738.722	3805.5
744.137	3832.5
749.547	3823.5
754.951	3826.5
760.349	3813.5
765.741	3818.5
771.128	3826.5
776.509	3850.5
781.885	3886.5
787.254	3860.5
792.618	3860.5
797.977	3891.5
803.33	3815.5
808.677	3801.5
814.019	3788.5
819.355	3766.5
824.686	3712.5
830.011	3685.5
835.33	3701.5
840.644	3680.5
845.952	3693.5
851.255	3674.5
856.552	3651.5
861.844	3645.5
867.13	3640.5
872.41	3614.5
877.686	3595.5
882.955	3583.5
888.219	3529.5
893.478	3494.5
898.731	3455.5
903.979	3394.5
909.221	3384.5
914.458	3357.5
919.69	3332.5
924.916	3356.5
930.136	3344.5
935.351	3355.5
940.561	3361.5
945.766	3362.5
950.965	3358.5
956.158	3351.5
961.347	3300.5
966.529	3239.5
971.707	3196.5
976.879	3151.5
982.046	3111.5
987.208	3125.5
992.364	3118.5
997.515	3101.5
1002.66	3140.5
1007.801	3168.5
1012.936	3218.5
1018.066	3243.5
1023.19	3214.5
1028.309	3230.5
1033.423	3218.5
1038.532	3200.5
1043.636	3147.5
1048.734	3133.5
1053.827	3103.5
1058.915	3062.5
1063.998	3035.5
1069.075	3033.5
1074.147	3024.5
1079.214	3019.5
1084.276	3052.5
1089.333	3063.5
1094.385	3066.5
1099.431	3074.5
1104.472	3087.5
1109.509	3062.5
1114.54	3001.5
1119.565	2988.5
1124.586	2930.5
1129.602	2904.5
1134.613	2877.5
1139.618	2847.5
1144.619	2837.5
1149.614	2843.5
1154.604	2866.5
1159.589	2879.5
1164.57	2890.5
1169.545	2885.5
1174.515	2882.5
1179.48	2882.5
1184.44	2849.5
1189.395	2820.5
1194.345	2793.5
1199.29	2797.5
1204.23	2765.5
1209.165	2788.5
1214.095	2808.5
1219.021	2811.5
1223.941	2841.5
1228.856	2834.5
1233.766	2841.5
1238.672	2846.5
1243.572	2861.5
1248.467	2820.5
1253.358	2782.5
1258.244	2753.5
1263.124	2695.5
1268	2645.5
1272.871	2638.5
1277.737	2617.5
1282.599	2608.5
1287.455	2584.5
1292.306	2583.5
1297.153	2608.5
1301.995	2625.5
1306.832	2636.5
1311.664	2650.5
1316.491	2666.5
1321.314	2643.5
1326.132	2626.5
1330.945	2631.5
1335.753	2580.5
1340.556	2535.5
1345.354	2503.5
1350.148	2473.5
1354.937	2417.5
1359.722	2390.5
1364.501	2349.5
1369.276	2320.5
1374.046	2289.5
1378.811	2260.5
1383.572	2230.5
1388.327	2235.5
1393.079	2237.5
1397.825	2240.5
1402.567	2230.5
1407.304	2243.5
1412.036	2236.5
1416.764	2244.5
1421.487	2239.5
1426.205	2239.5
1430.919	2247.5
1435.628	2261.5
1440.333	2268.5
1445.032	2289.5
1449.727	2316.5
1454.418	2339.5
1459.104	2310.5
1463.785	2269.5
1468.462	2256.5
1473.134	2199.5
1477.802	2165.5
1482.465	2125.5
1487.123	2076.5
1491.777	2067.5
1496.426	2048.5
1501.071	2038.5
1505.711	1993.5
1510.347	2005.5
1514.978	2019.5
1519.604	1992.5
1524.226	2005.5
1528.844	1998.5
1533.457	1962.5
1538.065	1974.5
1542.669	1953.5
1547.269	1967.5
1551.864	1954.5
1556.454	1980.5
1561.041	1975.5
1565.622	2005.5
1570.199	2000.5
1574.772	2008.5
1579.34	2058.5
1583.904	2069.5
1588.464	2096.5
1593.019	2094.5
1597.569	2098.5
1602.115	2089.5
1606.657	2078.5
1611.195	2096.5
1615.728	2056.5
1620.256	2061.5
1624.78	2077.5
1629.3	2059.5
1633.816	2075.5
1638.327	2108.5
1642.834	2095.5
1647.336	2102.5
1651.834	2107.5
1656.328	2146.5
1660.817	2102.5
1665.302	2107.5
1669.783	2054.5
1674.259	2004.5
1678.732	1945.5
1683.199	1904.5
1687.663	1850.5
1692.122	1794.5
1696.577	1715.5
1701.028	1654.5
1705.474	1594.5
1709.917	1530.5
1714.355	1500.5
1718.788	1495.5
1723.218	1501.5
1727.643	1506.5
1732.064	1481.5
1736.481	1470.5
1740.893	1455.5
1745.301	1429.5
1749.705	1399.5
1754.105	1371.5
1758.501	1344.5
1762.893	1321.5
1767.28	1308.5
1771.663	1294.5
1776.042	1279.5
1780.417	1267.5
1784.787	1249.5
1789.154	1249.5
1793.516	1235.5
1797.874	1208.5
1802.228	1195.5
1806.578	1186.5
1810.924	1166.5
1815.266	1173.5
1819.603	1160.5
1823.937	1169.5
1828.266	1160.5
1832.591	1165.5
1836.913	1175.5
1841.23	1175.5
1845.543	1162.5
1849.852	1157.5
1854.156	1156.5
1858.457	1165.5
1862.754	1165.5
1867.047	1164.5
1871.335	1164.5
1875.62	1149.5
1879.9	1150.5
1884.177	1136.5
1888.449	1138.5
1892.718	1128.5
1896.982	1098.5
1901.243	1087.5
1905.499	1085.5
1909.752	1065.5
1914	1053.5
1918.245	1045.5
1922.485	1029.5
1926.722	1034.5
1930.954	1025.5
1935.183	1008.5
1939.408	999.5
1943.628	992.5
1947.845	1003.5
1952.058	991.5
1956.267	977.5
1960.472	970.5
1964.673	956.5
1968.87	947.5
1973.063	939.5
1977.252	931.5
1981.438	941.5
1985.619	932.5
1989.797	941.5
1993.971	949.5
1998.14	951.5
2002.306	929.5
2006.469	945.5
2010.627	955.5
2014.781	948.5
2018.932	943.5
2023.078	955.5
2027.221	935.5
2031.36	939.5
2035.495	917.5
2039.627	909.5
2043.754	887.5
2047.878	890.5
2051.998	869.5
2056.114	881.5
2060.226	869.5
2064.334	875.5
2068.439	881.5
2072.54	865.5
2076.637	863.5
2080.73	860.5
2084.82	840.5
2088.906	857.5
2092.988	852.5
2097.066	831.5
2101.14	816.5
2105.211	802.5
2109.278	798.5
2113.342	794.5
2117.401	775.5
2121.457	775.5
2125.509	778.5
2129.558	769.5
2133.602	772.5
2137.643	763.5
2141.681	770.5
2145.714	773.5
2149.744	772.5
2153.77	764.5
2157.793	766.5
2161.812	749.5
2165.827	747.5
2169.838	747.5
2173.846	720.5
2177.851	717.5
2181.851	700.5
2185.848	702.5
2189.841	700.5
2193.831	680.5
2197.817	683.5
2201.799	683.5
2205.778	671.5
2209.753	679.5
2213.725	675.5
2217.693	673.5
2221.657	677.5
2225.618	679.5
2229.575	665.5
2233.529	658.5
2237.479	656.5
2241.425	645.5
2245.368	633.5
2249.307	628.5
2253.243	607.5
2257.175	610.5
2261.104	608.5
2265.029	595.5
2268.95	594.5
2272.868	578.5
2276.783	564.5
2280.694	577.5
2284.601	549.5
2288.505	555.5
2292.405	546.5
2296.302	538.5
2300.195	537.5
2304.085	533.5
2307.971	518.5
2311.854	524.5
2315.734	503.5
2319.609	489.5
2323.482	490.5
2327.351	492.5
2331.216	506.5
2335.078	511.5
2338.937	496.5
2342.792	471.5
2346.643	469.5
2350.492	470.5
2354.336	470.5
2358.178	480.5
2362.015	462.5
2365.85	483.5
2369.681	469.5
2373.508	488.5
2377.333	469.5
2381.153	466.5
2384.971	475.5
2388.785	478.5
2392.595	463.5
2396.402	453.5
2400.206	460.5
2404.007	462.5
2407.804	458.5
2411.597	441.5
2415.388	442.5
2419.174	451.5
2422.958	435.5
2426.738	436.5
2430.515	436.5
2434.289	442.5
2438.059	429.5
2441.825	412.5
2445.589	429.5
2449.349	414.5
2453.106	424.5
2456.859	410.5
2460.61	405.5
2464.356	401.5
2468.1	394.5
2471.84	388.5
2475.577	386.5
2479.311	367.5
2483.041	372.5
2486.768	382.5
2490.492	376.5
2494.213	373.5
2497.93	370.5
2501.644	365.5
2505.355	368.5
2509.062	356.5
2512.766	361.5
2516.467	360.5
2520.165	343.5
2523.859	345.5
2527.551	340.5
2531.239	328.5
2534.923	318.5
2538.605	330.5
2542.283	322.5
2545.958	316.5
2549.63	312.5
2553.299	307.5
2556.964	312.5
2560.626	305.5
2564.285	293.5
2567.941	299.5
2571.594	301.5
2575.243	298.5
2578.89	292.5
2582.533	286.5
2586.173	275.5
2589.809	268.5
2593.443	271.5
2597.073	275.5
2600.701	269.5
2604.325	261.5
2607.946	269.5
2611.564	262.5
2615.178	267.5
2618.79	257.5
2622.398	261.5
2626.004	258.5
2629.606	253.5
2633.205	251.5
2636.801	245.5
2640.394	239.5
2643.983	250.5
2647.57	240.5
2651.153	246.5
2654.734	231.5
2658.311	230.5
2661.885	223.5
2665.456	232.5
2669.025	221.5
2672.589	225.5
2676.151	224.5
2679.71	224.5
2683.266	216.5
2686.819	212.5
2690.368	212.5
2693.915	205.5
2697.458	206.5
2700.999	199.5
2704.536	188.5
2708.071	193.5
2711.602	184.5
2715.13	190.5
2718.656	171.5
2722.178	174.5
2725.697	169.5
2729.214	178.5
2732.727	181.5
2736.237	178.5
2739.744	175.5
2743.249	166.5
2746.75	160.5
2750.248	159.5
2753.743	159.5
2757.236	148.5
2760.725	159.5
2764.211	153.5
2767.695	150.5
2771.175	138.5
2774.652	139.5
2778.127	139.5
2781.598	140.5
2785.067	145.5
2788.532	144.5
2791.995	143.5
2795.455	143.5
2798.911	146.5
2802.365	144.5
2805.816	150.5
2809.264	145.5
2812.709	153.5
2816.151	150.5
2819.59	150.5
2823.026	151.5
2826.46	143.5
2829.89	149.5
2833.318	143.5
2836.742	153.5
2840.164	144.5
2843.583	147.5
2846.999	153.5
2850.412	146.5
2853.822	147.5
2857.229	152.5
2860.634	159.5
2864.035	163.5
2867.434	155.5
2870.83	169.5
2874.223	184.5
2877.613	186.5
2881	196.5
2884.385	196.5
2887.766	187.5
2891.145	185.5
2894.521	187.5
2897.894	192.5
2901.264	198.5
2904.631	200.5
2907.996	199.5
2911.358	202.5
2914.717	203.5
2918.073	207.5
2921.426	221.5
2924.777	221.5
2928.124	230.5
2931.469	225.5
2934.811	229.5
2938.15	235.5
2941.487	255.5
2944.821	250.5
2948.152	240.5
2951.48	248.5
2954.805	249.5
2958.128	241.5
2961.447	232.5
2964.765	246.5
2968.079	239.5
2971.39	247.5
2974.699	249.5
2978.005	241.5
2981.308	248.5
2984.609	248.5
2987.907	242.5
2991.202	255.5
2994.494	243.5
2997.784	260.5
3001.07	270.5
3004.355	266.5
3007.636	277.5
3010.915	267.5
3014.191	271.5
3017.464	289.5
3020.734	285.5
3024.002	281.5
3027.267	294.5
3030.53	303.5
3033.789	312.5
3037.046	314.5
3040.301	308.5
3043.552	331.5
3046.801	351.5
3050.048	355.5
3053.291	360.5
3056.532	382.5
3059.771	384.5
3063.006	400.5
3066.239	407.5
3069.469	422.5
3072.697	436.5
3075.922	450.5
3079.144	449.5
3082.364	480.5
3085.581	477.5
3088.795	490.5
3092.007	487.5
3095.216	509.5
3098.423	517.5
3101.627	537.5
3104.828	543.5
3108.026	551.5
3111.222	559.5
3114.416	557.5
3117.607	585.5
3120.795	591.5
3123.98	607.5
3127.163	620.5
3130.344	651.5
3133.521	657.5
3136.696	667.5
3139.869	670.5
3143.039	700.5
3146.206	704.5
3149.371	714.5
3152.533	732.5
3155.693	733.5
3158.85	729.5
3162.005	745.5
3165.157	746.5
3168.306	748.5
3171.453	740.5
3174.597	760.5
3177.739	753.5
3180.878	764.5
3184.014	779.5
3187.149	760.5
3190.28	761.5
3193.409	765.5
3196.536	765.5
3199.659	783.5
3202.781	779.5
3205.9	793.5
3209.016	791.5
3212.13	788.5
3215.241	769.5
3218.35	760.5
3221.456	768.5
3224.56	754.5
3227.661	740.5
3230.76	742.5
3233.856	721.5
3236.95	722.5
3240.041	706.5
3243.13	682.5
3246.216	673.5
3249.3	677.5
3252.382	670.5
3255.46	662.5
3258.537	653.5
3261.611	653.5
3264.682	644.5
3267.751	643.5
3270.818	636.5
3273.882	645.5
3276.943	635.5
3280.002	636.5
3283.059	638.5
3286.113	618.5
3289.165	619.5
3292.214	613.5
3295.261	597.5
3298.306	594.5
3301.348	581.5
3304.387	581.5
3307.425	565.5
3310.459	563.5
3313.492	564.5
3316.521	556.5
3319.549	549.5
3322.574	539.5
3325.597	539.5
3328.617	541.5
3331.635	546.5
3334.65	525.5
3337.663	529.5
3340.674	540.5
3343.682	528.5
3346.688	531.5
3349.691	534.5
3352.692	520.5
3355.691	506.5
3358.687	515.5
3361.681	527.5
3364.673	507.5
3367.662	504.5
3370.649	495.5
3373.633	478.5
3376.615	469.5
3379.595	466.5
3382.572	468.5
3385.547	451.5
3388.52	445.5
3391.49	441.5
3394.458	445.5
3397.424	433.5
3400.387	425.5
3403.348	422.5
3406.307	412.5
3409.263	402.5
3412.217	396.5
3415.168	387.5
3418.118	388.5
3421.065	387.5
3424.009	384.5
3426.951	379.5
3429.891	359.5
3432.829	348.5
3435.764	345.5
3438.697	332.5
3441.628	325.5
3444.557	324.5
3447.483	310.5
3450.407	286.5
3453.328	284.5
3456.247	279.5
3459.164	259.5
3462.079	248.5
3464.991	244.5
3467.902	226.5
3470.809	233.5
3473.715	224.5
3476.618	205.5
3479.519	199.5
3482.418	183.5
3485.315	171.5
3488.209	165.5
3491.101	167.5
3493.99	165.5
3496.878	152.5
3499.763	143.5
3502.646	130.5
3505.527	125.5
3508.405	125.5
3511.281	115.5
3514.155	113.5
3517.027	97.5
3519.897	103.5
3522.764	79.5
3525.629	59.5
3528.492	54.5
3531.352	54.5
3534.211	45.5
3537.067	34.5
3539.921	46.5
3542.773	23.5
3545.622	17.5
3548.469	16.5
3551.315	17.5
3554.157	5.5
3556.998	-6.5
3559.837	-1.5
3562.673	-7.5
3565.507	-8.5
3568.339	-17.5
3571.169	-30.5
3573.996	-25.5
3576.822	-28.5
3579.645	-21.5
3582.466	-34.5
3585.285	-40.5
3588.101	-32.5
3590.916	-44.5
3593.728	-56.5
3596.538	-51.5
3599.346	-59.5
3602.152	-51.5
3604.956	-63.5
3607.757	-54.5
3610.556	-70.5
3613.354	-65.5
3616.149	-80.5
3618.942	-81.5
3621.732	-82.5
3624.521	-86.5
3627.307	-78.5
3630.092	-77.5
3632.874	-82.5
3635.654	-90.5
3638.432	-85.5
3641.208	-91.5
3643.982	-93.5
3646.753	-98.5
3649.523	-96.5
3652.29	-93.5
3655.055	-97.5
3657.818	-98.5
3660.579	-101.5
3663.338	-102.5
3666.095	-107.5
3668.849	-109.5
3671.602	-111.5
3674.352	-114.5
3677.101	-111.5
3679.847	-111.5
3682.591	-121.5
3685.333	-117.5
3688.073	-119.5
3690.811	-120.5
3693.547	-125.5
3696.281	-125.5
3699.013	-121.5
3701.742	-128.5
3704.47	-125.5
3707.195	-124.5
3709.919	-124.5
3712.64	-127.5
3715.359	-133.5
3718.076	-129.5
3720.792	-135.5
3723.505	-142.5
3726.216	-128.5
3728.925	-131.5
3731.632	-132.5
3734.336	-135.5
3737.039	-126.5
3739.74	-135.5
3742.439	-134.5
3745.136	-134.5
3747.83	-140.5
3750.523	-140.5
3753.213	-133.5
3755.902	-133.5
3758.589	-138.5
3761.273	-131.5
3763.956	-137.5
3766.636	-138.5
3769.315	-133.5
3771.991	-134.5
3774.665	-139.5
3777.338	-129.5
3780.008	-133.5
3782.677	-141.5
3785.343	-137.5
3788.007	-141.5
3790.67	-145.5
3793.33	-142.5
3795.989	-138.5
3798.645	-134.5
3801.299	-138.5
3803.952	-144.5
3806.602	-141.5
3809.251	-145.5
3811.897	-142.5
3814.542	-145.5
3817.184	-134.5
3819.825	-139.5
3822.463	-141.5
3825.1	-141.5
3827.735	-147.5
3830.367	-146.5
3832.998	-148.5
3835.627	-145.5
3838.253	-143.5
3840.878	-147.5
3843.501	-140.5
3846.122	-144.5
3848.741	-149.5
3851.358	-144.5
3853.973	-145.5
3856.586	-139.5
3859.197	-148.5
3861.806	-136.5
3864.414	-140.5
3867.019	-142.5
3869.622	-143.5
3872.224	-133.5
3874.823	-119.5
3877.421	-110.5
3880.016	-91.5
3882.61	-76.5
3885.202	-82.5
3887.792	-95.5
3890.38	-116.5
3892.966	-128.5
3895.55	-140.5
3898.132	-137.5
3900.713	-145.5
3903.291	-146.5
3905.868	-154.5
3908.442	-142.5
3911.015	-147.5
3913.586	-144.5
3916.155	-149.5
3918.722	-145.5
3921.287	-144.5
3923.85	-147.5
3926.411	-152.5
3928.971	-147.5
3931.528	-152.5
3934.084	-141.5
3936.638	-145.5
3939.19	-150.5
3941.74	-152.5
3944.288	-149.5
3946.834	-141.5
3949.378	-144.5
3951.921	-144.5
3954.462	-152.5
3957	-148.5
3959.537	-141.5
3962.072	-151.5
3964.606	-142.5
3967.137	-141.5
3969.667	-143.5
3972.194	-147.5
3974.72	-146.5
3977.244	-147.5
3979.766	-148.5
3982.286	-148.5
3984.805	-144.5
3987.321	-137.5
3989.836	-134.5
3992.349	-144.5
3994.86	-140.5
3997.369	-150.5
3999.877	-143.5
4002.382	-142.5
4004.886	-145.5
4007.388	-144.5
4009.888	-144.5
4012.386	-146.5
4014.883	-144.5
4017.377	-142.5
4019.87	-144.5
4022.361	-144.5
4024.85	-140.5
4027.338	-137.5
4029.823	-137.5
4032.307	-136.5
4034.789	-145.5
4037.269	-145.5
4039.747	-140.5
4042.224	-139.5
4044.699	-141.5
4047.172	-141.5
4049.643	-142.5
4052.112	-146.5
4054.58	-145.5
4057.046	-146.5
4059.51	-148.5
4061.972	-139.5
4064.432	-140.5
4066.891	-142.5
4069.348	-141.5
4071.803	-144.5
4074.256	-146.5
4076.708	-139.5
4079.158	-147.5
4081.606	-139.5
4084.052	-146.5
4086.497	-140.5
4088.939	-137.5
4091.38	-142.5
4093.819	-145.5
4096.257	-153.5
4098.693	-148.5
4101.127	-151.5
4103.559	-146.5
4105.989	-4.5
4108.418	-13.5
4110.845	-9.5
4113.27	-12.5
4115.694	-7.5
4118.115	-5.5
4120.535	-149.5
4122.954	-148.5
4125.37	-140.5
4127.785	-144.5
4130.198	-139.5
4132.609	-138.5
4135.019	-149.5
4137.427	-154.5
4139.833	-151.5
4142.237	-150.5
