Data from 2018-2-8_conc=4_n=6_RamanShift_03.txt Node
Date: Mon Mar 12 15:26:28 IST 2018
User: aro
Spectrometer: QEPB0276
Trigger mode: 0
Integration Time (sec): 3.000000E1
Scans to average: 1
Electric dark correction enabled: true
Nonlinearity correction enabled: false
Boxcar width: 0
XAxis mode: Raman Shifts
Number of Pixels in Spectrum: 1044
>>>>>Begin Spectral Data<<<<<
160.701	5.9
166.742	44.9
172.777	117.9
178.805	360.9
184.826	990.9
190.841	2141.9
196.849	3536.9
202.85	4648.9
208.845	5097.9
214.833	5073.9
220.815	5029.9
226.789	5023.9
232.758	5030.9
238.719	5030.9
244.674	5000.9
250.623	4964.9
256.565	4875.9
262.5	4796.9
268.429	4746.9
274.351	4693.9
280.267	4647.9
286.176	4654.9
292.079	4627.9
297.975	4590.9
303.865	4593.9
309.748	4605.9
315.625	4574.9
321.495	4569.9
327.359	4520.9
333.217	4543.9
339.068	4556.9
344.912	4540.9
350.751	4537.9
356.583	4578.9
362.408	4553.9
368.227	4615.9
374.04	4591.9
379.847	4617.9
385.647	4637.9
391.44	4654.9
397.228	4671.9
403.009	4687.9
408.784	4721.9
414.553	4752.9
420.315	4736.9
426.071	4751.9
431.821	4724.9
437.565	4736.9
443.302	4735.9
449.033	4730.9
454.758	4685.9
460.477	4684.9
466.189	4650.9
471.896	4616.9
477.596	4575.9
483.29	4571.9
488.978	4549.9
494.66	4573.9
500.335	4501.9
506.005	4387.9
511.668	4263.9
517.325	4124.9
522.977	4023.9
528.622	3979.9
534.261	3904.9
539.894	3847.9
545.521	3822.9
551.141	3810.9
556.756	3794.9
562.365	3760.9
567.968	3725.9
573.565	3715.9
579.155	3682.9
584.74	3685.9
590.319	3643.9
595.892	3652.9
601.459	3638.9
607.02	3619.9
612.575	3610.9
618.124	3570.9
623.667	3548.9
629.204	3515.9
634.735	3469.9
640.261	3470.9
645.781	3450.9
651.294	3436.9
656.802	3432.9
662.304	3409.9
667.8	3391.9
673.29	3370.9
678.775	3417.9
684.254	3388.9
689.726	3378.9
695.193	3372.9
700.655	3334.9
706.11	3319.9
711.56	3269.9
717.004	3301.9
722.442	3265.9
727.874	3276.9
733.301	3242.9
738.722	3227.9
744.137	3204.9
749.547	3219.9
754.951	3176.9
760.349	3204.9
765.741	3209.9
771.128	3218.9
776.509	3258.9
781.885	3294.9
787.254	3272.9
792.618	3278.9
797.977	3264.9
803.33	3229.9
808.677	3215.9
814.019	3201.9
819.355	3171.9
824.686	3142.9
830.011	3128.9
835.33	3133.9
840.644	3145.9
845.952	3127.9
851.255	3086.9
856.552	3097.9
861.844	3095.9
867.13	3061.9
872.41	3052.9
877.686	3019.9
882.955	2988.9
888.219	2983.9
893.478	2945.9
898.731	2893.9
903.979	2869.9
909.221	2821.9
914.458	2825.9
919.69	2825.9
924.916	2808.9
930.136	2830.9
935.351	2837.9
940.561	2865.9
945.766	2835.9
950.965	2830.9
956.158	2823.9
961.347	2767.9
966.529	2731.9
971.707	2715.9
976.879	2671.9
982.046	2640.9
987.208	2645.9
992.364	2635.9
997.515	2644.9
1002.66	2650.9
1007.801	2699.9
1012.936	2706.9
1018.066	2716.9
1023.19	2697.9
1028.309	2720.9
1033.423	2714.9
1038.532	2702.9
1043.636	2666.9
1048.734	2626.9
1053.827	2611.9
1058.915	2596.9
1063.998	2592.9
1069.075	2555.9
1074.147	2564.9
1079.214	2566.9
1084.276	2560.9
1089.333	2594.9
1094.385	2606.9
1099.431	2595.9
1104.472	2595.9
1109.509	2582.9
1114.54	2545.9
1119.565	2516.9
1124.586	2480.9
1129.602	2460.9
1134.613	2433.9
1139.618	2409.9
1144.619	2406.9
1149.614	2397.9
1154.604	2420.9
1159.589	2457.9
1164.57	2443.9
1169.545	2401.9
1174.515	2444.9
1179.48	2406.9
1184.44	2399.9
1189.395	2366.9
1194.345	2349.9
1199.29	2342.9
1204.23	2352.9
1209.165	2348.9
1214.095	2379.9
1219.021	2362.9
1223.941	2376.9
1228.856	2373.9
1233.766	2410.9
1238.672	2413.9
1243.572	2380.9
1248.467	2395.9
1253.358	2373.9
1258.244	2328.9
1263.124	2300.9
1268	2237.9
1272.871	2227.9
1277.737	2209.9
1282.599	2207.9
1287.455	2208.9
1292.306	2216.9
1297.153	2231.9
1301.995	2231.9
1306.832	2236.9
1311.664	2265.9
1316.491	2233.9
1321.314	2230.9
1326.132	2235.9
1330.945	2192.9
1335.753	2185.9
1340.556	2129.9
1345.354	2117.9
1350.148	2082.9
1354.937	2055.9
1359.722	2006.9
1364.501	2001.9
1369.276	1967.9
1374.046	1929.9
1378.811	1899.9
1383.572	1900.9
1388.327	1886.9
1393.079	1861.9
1397.825	1878.9
1402.567	1890.9
1407.304	1872.9
1412.036	1899.9
1416.764	1896.9
1421.487	1883.9
1426.205	1908.9
1430.919	1901.9
1435.628	1909.9
1440.333	1935.9
1445.032	1956.9
1449.727	1966.9
1454.418	1985.9
1459.104	1962.9
1463.785	1933.9
1468.462	1924.9
1473.134	1865.9
1477.802	1839.9
1482.465	1807.9
1487.123	1770.9
1491.777	1744.9
1496.426	1757.9
1501.071	1703.9
1505.711	1708.9
1510.347	1690.9
1514.978	1680.9
1519.604	1677.9
1524.226	1689.9
1528.844	1681.9
1533.457	1644.9
1538.065	1671.9
1542.669	1647.9
1547.269	1650.9
1551.864	1655.9
1556.454	1675.9
1561.041	1697.9
1565.622	1680.9
1570.199	1673.9
1574.772	1728.9
1579.34	1755.9
1583.904	1769.9
1588.464	1769.9
1593.019	1773.9
1597.569	1770.9
1602.115	1772.9
1606.657	1771.9
1611.195	1739.9
1615.728	1756.9
1620.256	1752.9
1624.78	1748.9
1629.3	1751.9
1633.816	1765.9
1638.327	1746.9
1642.834	1762.9
1647.336	1778.9
1651.834	1764.9
1656.328	1788.9
1660.817	1794.9
1665.302	1783.9
1669.783	1719.9
1674.259	1669.9
1678.732	1652.9
1683.199	1611.9
1687.663	1546.9
1692.122	1504.9
1696.577	1445.9
1701.028	1394.9
1705.474	1339.9
1709.917	1305.9
1714.355	1266.9
1718.788	1272.9
1723.218	1263.9
1727.643	1269.9
1732.064	1261.9
1736.481	1268.9
1740.893	1223.9
1745.301	1200.9
1749.705	1188.9
1754.105	1168.9
1758.501	1146.9
1762.893	1117.9
1767.28	1106.9
1771.663	1105.9
1776.042	1099.9
1780.417	1073.9
1784.787	1061.9
1789.154	1054.9
1793.516	1051.9
1797.874	1043.9
1802.228	1023.9
1806.578	1016.9
1810.924	994.9
1815.266	995.9
1819.603	987.9
1823.937	978.9
1828.266	978.9
1832.591	980.9
1836.913	993.9
1841.23	984.9
1845.543	981.9
1849.852	978.9
1854.156	969.9
1858.457	978.9
1862.754	982.9
1867.047	993.9
1871.335	985.9
1875.62	975.9
1879.9	983.9
1884.177	975.9
1888.449	961.9
1892.718	954.9
1896.982	947.9
1901.243	931.9
1905.499	916.9
1909.752	913.9
1914	893.9
1918.245	884.9
1922.485	875.9
1926.722	869.9
1930.954	859.9
1935.183	868.9
1939.408	840.9
1943.628	861.9
1947.845	831.9
1952.058	853.9
1956.267	828.9
1960.472	828.9
1964.673	823.9
1968.87	805.9
1973.063	794.9
1977.252	788.9
1981.438	807.9
1985.619	783.9
1989.797	784.9
1993.971	804.9
1998.14	809.9
2002.306	805.9
2006.469	797.9
2010.627	793.9
2014.781	815.9
2018.932	791.9
2023.078	808.9
2027.221	804.9
2031.36	788.9
2035.495	778.9
2039.627	764.9
2043.754	758.9
2047.878	747.9
2051.998	759.9
2056.114	733.9
2060.226	748.9
2064.334	738.9
2068.439	735.9
2072.54	730.9
2076.637	733.9
2080.73	723.9
2084.82	717.9
2088.906	715.9
2092.988	727.9
2097.066	691.9
2101.14	695.9
2105.211	693.9
2109.278	675.9
2113.342	657.9
2117.401	670.9
2121.457	663.9
2125.509	646.9
2129.558	655.9
2133.602	661.9
2137.643	656.9
2141.681	644.9
2145.714	656.9
2149.744	648.9
2153.77	644.9
2157.793	637.9
2161.812	641.9
2165.827	629.9
2169.838	631.9
2173.846	615.9
2177.851	597.9
2181.851	601.9
2185.848	592.9
2189.841	590.9
2193.831	585.9
2197.817	577.9
2201.799	582.9
2205.778	575.9
2209.753	575.9
2213.725	578.9
2217.693	575.9
2221.657	566.9
2225.618	559.9
2229.575	572.9
2233.529	563.9
2237.479	551.9
2241.425	556.9
2245.368	531.9
2249.307	525.9
2253.243	529.9
2257.175	516.9
2261.104	520.9
2265.029	487.9
2268.95	507.9
2272.868	497.9
2276.783	479.9
2280.694	473.9
2284.601	476.9
2288.505	477.9
2292.405	472.9
2296.302	468.9
2300.195	458.9
2304.085	442.9
2307.971	434.9
2311.854	438.9
2315.734	416.9
2319.609	415.9
2323.482	424.9
2327.351	425.9
2331.216	435.9
2335.078	439.9
2338.937	421.9
2342.792	404.9
2346.643	396.9
2350.492	399.9
2354.336	406.9
2358.178	397.9
2362.015	402.9
2365.85	410.9
2369.681	390.9
2373.508	414.9
2377.333	405.9
2381.153	405.9
2384.971	412.9
2388.785	410.9
2392.595	398.9
2396.402	395.9
2400.206	391.9
2404.007	392.9
2407.804	384.9
2411.597	381.9
2415.388	373.9
2419.174	388.9
2422.958	372.9
2426.738	376.9
2430.515	375.9
2434.289	375.9
2438.059	371.9
2441.825	364.9
2445.589	370.9
2449.349	360.9
2453.106	357.9
2456.859	346.9
2460.61	342.9
2464.356	327.9
2468.1	334.9
2471.84	327.9
2475.577	342.9
2479.311	319.9
2483.041	312.9
2486.768	321.9
2490.492	321.9
2494.213	329.9
2497.93	317.9
2501.644	313.9
2505.355	305.9
2509.062	307.9
2512.766	306.9
2516.467	300.9
2520.165	298.9
2523.859	305.9
2527.551	291.9
2531.239	280.9
2534.923	276.9
2538.605	278.9
2542.283	274.9
2545.958	276.9
2549.63	275.9
2553.299	268.9
2556.964	268.9
2560.626	258.9
2564.285	255.9
2567.941	259.9
2571.594	263.9
2575.243	247.9
2578.89	258.9
2582.533	242.9
2586.173	230.9
2589.809	233.9
2593.443	239.9
2597.073	228.9
2600.701	231.9
2604.325	223.9
2607.946	227.9
2611.564	223.9
2615.178	233.9
2618.79	221.9
2622.398	210.9
2626.004	215.9
2629.606	218.9
2633.205	211.9
2636.801	211.9
2640.394	218.9
2643.983	205.9
2647.57	212.9
2651.153	207.9
2654.734	203.9
2658.311	190.9
2661.885	193.9
2665.456	202.9
2669.025	197.9
2672.589	194.9
2676.151	198.9
2679.71	197.9
2683.266	190.9
2686.819	186.9
2690.368	184.9
2693.915	177.9
2697.458	174.9
2700.999	182.9
2704.536	171.9
2708.071	164.9
2711.602	169.9
2715.13	167.9
2718.656	157.9
2722.178	162.9
2725.697	153.9
2729.214	149.9
2732.727	153.9
2736.237	151.9
2739.744	150.9
2743.249	142.9
2746.75	138.9
2750.248	142.9
2753.743	135.9
2757.236	128.9
2760.725	138.9
2764.211	123.9
2767.695	118.9
2771.175	119.9
2774.652	122.9
2778.127	126.9
2781.598	112.9
2785.067	128.9
2788.532	124.9
2791.995	115.9
2795.455	126.9
2798.911	119.9
2802.365	123.9
2805.816	129.9
2809.264	126.9
2812.709	131.9
2816.151	129.9
2819.59	137.9
2823.026	123.9
2826.46	115.9
2829.89	121.9
2833.318	120.9
2836.742	129.9
2840.164	130.9
2843.583	125.9
2846.999	124.9
2850.412	126.9
2853.822	127.9
2857.229	128.9
2860.634	136.9
2864.035	141.9
2867.434	149.9
2870.83	149.9
2874.223	155.9
2877.613	156.9
2881	162.9
2884.385	164.9
2887.766	162.9
2891.145	156.9
2894.521	159.9
2897.894	165.9
2901.264	159.9
2904.631	170.9
2907.996	167.9
2911.358	169.9
2914.717	174.9
2918.073	184.9
2921.426	185.9
2924.777	186.9
2928.124	195.9
2931.469	186.9
2934.811	189.9
2938.15	194.9
2941.487	201.9
2944.821	206.9
2948.152	206.9
2951.48	202.9
2954.805	218.9
2958.128	207.9
2961.447	193.9
2964.765	204.9
2968.079	192.9
2971.39	204.9
2974.699	210.9
2978.005	202.9
2981.308	200.9
2984.609	209.9
2987.907	197.9
2991.202	220.9
2994.494	204.9
2997.784	209.9
3001.07	217.9
3004.355	224.9
3007.636	227.9
3010.915	221.9
3014.191	223.9
3017.464	234.9
3020.734	228.9
3024.002	223.9
3027.267	247.9
3030.53	243.9
3033.789	246.9
3037.046	260.9
3040.301	253.9
3043.552	272.9
3046.801	283.9
3050.048	288.9
3053.291	291.9
3056.532	297.9
3059.771	313.9
3063.006	328.9
3066.239	334.9
3069.469	350.9
3072.697	356.9
3075.922	368.9
3079.144	377.9
3082.364	389.9
3085.581	386.9
3088.795	392.9
3092.007	402.9
3095.216	411.9
3098.423	425.9
3101.627	434.9
3104.828	457.9
3108.026	451.9
3111.222	466.9
3114.416	470.9
3117.607	487.9
3120.795	493.9
3123.98	500.9
3127.163	516.9
3130.344	531.9
3133.521	530.9
3136.696	562.9
3139.869	570.9
3143.039	565.9
3146.206	560.9
3149.371	587.9
3152.533	589.9
3155.693	605.9
3158.85	608.9
3162.005	623.9
3165.157	615.9
3168.306	601.9
3171.453	615.9
3174.597	605.9
3177.739	619.9
3180.878	633.9
3184.014	636.9
3187.149	621.9
3190.28	625.9
3193.409	620.9
3196.536	617.9
3199.659	641.9
3202.781	642.9
3205.9	645.9
3209.016	645.9
3212.13	641.9
3215.241	638.9
3218.35	630.9
3221.456	630.9
3224.56	615.9
3227.661	611.9
3230.76	613.9
3233.856	595.9
3236.95	590.9
3240.041	575.9
3243.13	571.9
3246.216	563.9
3249.3	555.9
3252.382	542.9
3255.46	548.9
3258.537	531.9
3261.611	532.9
3264.682	520.9
3267.751	517.9
3270.818	514.9
3273.882	504.9
3276.943	521.9
3280.002	517.9
3283.059	512.9
3286.113	501.9
3289.165	503.9
3292.214	492.9
3295.261	477.9
3298.306	481.9
3301.348	469.9
3304.387	471.9
3307.425	461.9
3310.459	458.9
3313.492	450.9
3316.521	446.9
3319.549	449.9
3322.574	445.9
3325.597	446.9
3328.617	443.9
3331.635	427.9
3334.65	437.9
3337.663	424.9
3340.674	427.9
3343.682	432.9
3346.688	426.9
3349.691	421.9
3352.692	416.9
3355.691	426.9
3358.687	417.9
3361.681	414.9
3364.673	414.9
3367.662	403.9
3370.649	401.9
3373.633	389.9
3376.615	382.9
3379.595	373.9
3382.572	377.9
3385.547	378.9
3388.52	366.9
3391.49	361.9
3394.458	354.9
3397.424	343.9
3400.387	335.9
3403.348	334.9
3406.307	324.9
3409.263	335.9
3412.217	323.9
3415.168	321.9
3418.118	325.9
3421.065	315.9
3424.009	310.9
3426.951	310.9
3429.891	297.9
3432.829	282.9
3435.764	285.9
3438.697	274.9
3441.628	265.9
3444.557	256.9
3447.483	242.9
3450.407	236.9
3453.328	222.9
3456.247	220.9
3459.164	204.9
3462.079	196.9
3464.991	188.9
3467.902	185.9
3470.809	182.9
3473.715	171.9
3476.618	167.9
3479.519	156.9
3482.418	154.9
3485.315	145.9
3488.209	132.9
3491.101	133.9
3493.99	132.9
3496.878	117.9
3499.763	116.9
3502.646	107.9
3505.527	106.9
3508.405	100.9
3511.281	86.9
3514.155	76.9
3517.027	76.9
3519.897	69.9
3522.764	51.9
3525.629	49.9
3528.492	43.9
3531.352	47.9
3534.211	34.9
3537.067	30.9
3539.921	24.9
3542.773	15.9
3545.622	14.9
3548.469	9.9
3551.315	7.9
3554.157	2.9
3556.998	-12.1
3559.837	-6.1
3562.673	-16.1
3565.507	-9.1
3568.339	-12.1
3571.169	-32.1
3573.996	-30.1
3576.822	-31.1
3579.645	-32.1
3582.466	-31.1
3585.285	-41.1
3588.101	-30.1
3590.916	-46.1
3593.728	-51.1
3596.538	-51.1
3599.346	-48.1
3602.152	-53.1
3604.956	-58.1
3607.757	-54.1
3610.556	-62.1
3613.354	-54.1
3616.149	-69.1
3618.942	-72.1
3621.732	-68.1
3624.521	-73.1
3627.307	-71.1
3630.092	-70.1
3632.874	-64.1
3635.654	-76.1
3638.432	-72.1
3641.208	-78.1
3643.982	-86.1
3646.753	-89.1
3649.523	-89.1
3652.29	-81.1
3655.055	-84.1
3657.818	-88.1
3660.579	-86.1
3663.338	-89.1
3666.095	-97.1
3668.849	-97.1
3671.602	-92.1
3674.352	-96.1
3677.101	-95.1
3679.847	-92.1
3682.591	-103.1
3685.333	-104.1
3688.073	-98.1
3690.811	-108.1
3693.547	-109.1
3696.281	-107.1
3699.013	-106.1
3701.742	-109.1
3704.47	-109.1
3707.195	-106.1
3709.919	-113.1
3712.64	-112.1
3715.359	-115.1
3718.076	-112.1
3720.792	-110.1
3723.505	-117.1
3726.216	-112.1
3728.925	-118.1
3731.632	-113.1
3734.336	-124.1
3737.039	-116.1
3739.74	-119.1
3742.439	-121.1
3745.136	-113.1
3747.83	-120.1
3750.523	-119.1
3753.213	-130.1
3755.902	-118.1
3758.589	-122.1
3761.273	-113.1
3763.956	-116.1
3766.636	-118.1
3769.315	-115.1
3771.991	-113.1
3774.665	-122.1
3777.338	-118.1
3780.008	-123.1
3782.677	-121.1
3785.343	-122.1
3788.007	-120.1
3790.67	-121.1
3793.33	-118.1
3795.989	-128.1
3798.645	-118.1
3801.299	-124.1
3803.952	-130.1
3806.602	-116.1
3809.251	-126.1
3811.897	-127.1
3814.542	-126.1
3817.184	-120.1
3819.825	-128.1
3822.463	-120.1
3825.1	-120.1
3827.735	-118.1
3830.367	-120.1
3832.998	-123.1
3835.627	-124.1
3838.253	-122.1
3840.878	-123.1
3843.501	-117.1
3846.122	-129.1
3848.741	-126.1
3851.358	-122.1
3853.973	-123.1
3856.586	-120.1
3859.197	-131.1
3861.806	-122.1
3864.414	-129.1
3867.019	-123.1
3869.622	-122.1
3872.224	-111.1
3874.823	-100.1
3877.421	-95.1
3880.016	-72.1
3882.61	-53.1
3885.202	-61.1
3887.792	-68.1
3890.38	-98.1
3892.966	-116.1
3895.55	-122.1
3898.132	-117.1
3900.713	-120.1
3903.291	-128.1
3905.868	-123.1
3908.442	-126.1
3911.015	-131.1
3913.586	-125.1
3916.155	-126.1
3918.722	-126.1
3921.287	-119.1
3923.85	-128.1
3926.411	-128.1
3928.971	-129.1
3931.528	-130.1
3934.084	-124.1
3936.638	-117.1
3939.19	-129.1
3941.74	-129.1
3944.288	-125.1
3946.834	-127.1
3949.378	-126.1
3951.921	-127.1
3954.462	-135.1
3957	-128.1
3959.537	-118.1
3962.072	-129.1
3964.606	-118.1
3967.137	-126.1
3969.667	-125.1
3972.194	-132.1
3974.72	-125.1
3977.244	-125.1
3979.766	-128.1
3982.286	-123.1
3984.805	-127.1
3987.321	-124.1
3989.836	-121.1
3992.349	-130.1
3994.86	-126.1
3997.369	-132.1
3999.877	-127.1
4002.382	-119.1
4004.886	-127.1
4007.388	-123.1
4009.888	-122.1
4012.386	-126.1
4014.883	-126.1
4017.377	-129.1
4019.87	-121.1
4022.361	-123.1
4024.85	-122.1
4027.338	-120.1
4029.823	-120.1
4032.307	-128.1
4034.789	-132.1
4037.269	-127.1
4039.747	-122.1
4042.224	-123.1
4044.699	-125.1
4047.172	-122.1
4049.643	-123.1
4052.112	-125.1
4054.58	-125.1
4057.046	-127.1
4059.51	-124.1
4061.972	-119.1
4064.432	-119.1
4066.891	-125.1
4069.348	-121.1
4071.803	-127.1
4074.256	-129.1
4076.708	-123.1
4079.158	-120.1
4081.606	-117.1
4084.052	-123.1
4086.497	-122.1
4088.939	-113.1
4091.38	-121.1
4093.819	-127.1
4096.257	-129.1
4098.693	-131.1
4101.127	-134.1
4103.559	-131.1
4105.989	-1.1
4108.418	-1.1
4110.845	-7.1
4113.27	-7.1
4115.694	-10.1
4118.115	-8.1
4120.535	-128.1
4122.954	-128.1
4125.37	-119.1
4127.785	-121.1
4130.198	-120.1
4132.609	-124.1
4135.019	-130.1
4137.427	-134.1
4139.833	-133.1
4142.237	-132.1
