Data from 2018-2-8_conc=6_n=2_RamanShift_03.txt Node
Date: Mon Mar 12 16:27:28 IST 2018
User: aro
Spectrometer: QEPB0276
Trigger mode: 0
Integration Time (sec): 3.000000E1
Scans to average: 1
Electric dark correction enabled: true
Nonlinearity correction enabled: false
Boxcar width: 0
XAxis mode: Raman Shifts
Number of Pixels in Spectrum: 1044
>>>>>Begin Spectral Data<<<<<
160.701	6.9
166.742	37.9
172.777	104.9
178.805	341.9
184.826	937.9
190.841	2000.9
196.849	3317.9
202.85	4350.9
208.845	4724.9
214.833	4763.9
220.815	4671.9
226.789	4673.9
232.758	4673.9
238.719	4687.9
244.674	4649.9
250.623	4646.9
256.565	4530.9
262.5	4475.9
268.429	4438.9
274.351	4377.9
280.267	4370.9
286.176	4343.9
292.079	4297.9
297.975	4286.9
303.865	4281.9
309.748	4273.9
315.625	4256.9
321.495	4261.9
327.359	4259.9
333.217	4250.9
339.068	4234.9
344.912	4279.9
350.751	4266.9
356.583	4301.9
362.408	4264.9
368.227	4292.9
374.04	4304.9
379.847	4330.9
385.647	4322.9
391.44	4354.9
397.228	4380.9
403.009	4415.9
408.784	4395.9
414.553	4444.9
420.315	4443.9
426.071	4432.9
431.821	4429.9
437.565	4428.9
443.302	4424.9
449.033	4388.9
454.758	4400.9
460.477	4355.9
466.189	4337.9
471.896	4300.9
477.596	4300.9
483.29	4276.9
488.978	4260.9
494.66	4251.9
500.335	4202.9
506.005	4111.9
511.668	3978.9
517.325	3867.9
522.977	3763.9
528.622	3715.9
534.261	3644.9
539.894	3616.9
545.521	3539.9
551.141	3559.9
556.756	3531.9
562.365	3505.9
567.968	3489.9
573.565	3466.9
579.155	3456.9
584.74	3416.9
590.319	3414.9
595.892	3412.9
601.459	3407.9
607.02	3399.9
612.575	3364.9
618.124	3336.9
623.667	3293.9
629.204	3271.9
634.735	3243.9
640.261	3221.9
645.781	3205.9
651.294	3214.9
656.802	3184.9
662.304	3183.9
667.8	3176.9
673.29	3171.9
678.775	3148.9
684.254	3139.9
689.726	3142.9
695.193	3131.9
700.655	3124.9
706.11	3096.9
711.56	3056.9
717.004	3056.9
722.442	3046.9
727.874	3043.9
733.301	3016.9
738.722	2993.9
744.137	3001.9
749.547	2989.9
754.951	3007.9
760.349	2997.9
765.741	3026.9
771.128	3002.9
776.509	3029.9
781.885	3040.9
787.254	3051.9
792.618	3043.9
797.977	3024.9
803.33	3006.9
808.677	2988.9
814.019	2968.9
819.355	2973.9
824.686	2925.9
830.011	2931.9
835.33	2885.9
840.644	2885.9
845.952	2896.9
851.255	2894.9
856.552	2881.9
861.844	2867.9
867.13	2846.9
872.41	2815.9
877.686	2822.9
882.955	2779.9
888.219	2760.9
893.478	2774.9
898.731	2706.9
903.979	2684.9
909.221	2646.9
914.458	2638.9
919.69	2644.9
924.916	2629.9
930.136	2651.9
935.351	2619.9
940.561	2655.9
945.766	2648.9
950.965	2638.9
956.158	2613.9
961.347	2567.9
966.529	2539.9
971.707	2526.9
976.879	2494.9
982.046	2452.9
987.208	2447.9
992.364	2440.9
997.515	2451.9
1002.66	2474.9
1007.801	2499.9
1012.936	2504.9
1018.066	2527.9
1023.19	2513.9
1028.309	2533.9
1033.423	2525.9
1038.532	2518.9
1043.636	2472.9
1048.734	2463.9
1053.827	2428.9
1058.915	2401.9
1063.998	2416.9
1069.075	2401.9
1074.147	2394.9
1079.214	2388.9
1084.276	2425.9
1089.333	2401.9
1094.385	2425.9
1099.431	2424.9
1104.472	2401.9
1109.509	2423.9
1114.54	2365.9
1119.565	2329.9
1124.586	2300.9
1129.602	2262.9
1134.613	2270.9
1139.618	2239.9
1144.619	2234.9
1149.614	2239.9
1154.604	2257.9
1159.589	2255.9
1164.57	2257.9
1169.545	2280.9
1174.515	2268.9
1179.48	2236.9
1184.44	2216.9
1189.395	2210.9
1194.345	2225.9
1199.29	2191.9
1204.23	2183.9
1209.165	2192.9
1214.095	2199.9
1219.021	2217.9
1223.941	2213.9
1228.856	2234.9
1233.766	2265.9
1238.672	2245.9
1243.572	2238.9
1248.467	2214.9
1253.358	2208.9
1258.244	2179.9
1263.124	2135.9
1268	2088.9
1272.871	2086.9
1277.737	2051.9
1282.599	2031.9
1287.455	2037.9
1292.306	2056.9
1297.153	2052.9
1301.995	2077.9
1306.832	2090.9
1311.664	2114.9
1316.491	2107.9
1321.314	2102.9
1326.132	2084.9
1330.945	2062.9
1335.753	2015.9
1340.556	1979.9
1345.354	1980.9
1350.148	1935.9
1354.937	1931.9
1359.722	1874.9
1364.501	1854.9
1369.276	1826.9
1374.046	1806.9
1378.811	1775.9
1383.572	1762.9
1388.327	1758.9
1393.079	1756.9
1397.825	1775.9
1402.567	1759.9
1407.304	1744.9
1412.036	1763.9
1416.764	1789.9
1421.487	1773.9
1426.205	1786.9
1430.919	1777.9
1435.628	1782.9
1440.333	1792.9
1445.032	1812.9
1449.727	1843.9
1454.418	1850.9
1459.104	1836.9
1463.785	1809.9
1468.462	1763.9
1473.134	1754.9
1477.802	1725.9
1482.465	1671.9
1487.123	1640.9
1491.777	1627.9
1496.426	1626.9
1501.071	1591.9
1505.711	1583.9
1510.347	1587.9
1514.978	1596.9
1519.604	1595.9
1524.226	1594.9
1528.844	1570.9
1533.457	1577.9
1538.065	1571.9
1542.669	1560.9
1547.269	1544.9
1551.864	1540.9
1556.454	1564.9
1561.041	1592.9
1565.622	1577.9
1570.199	1584.9
1574.772	1603.9
1579.34	1632.9
1583.904	1633.9
1588.464	1660.9
1593.019	1656.9
1597.569	1670.9
1602.115	1665.9
1606.657	1637.9
1611.195	1644.9
1615.728	1634.9
1620.256	1619.9
1624.78	1656.9
1629.3	1628.9
1633.816	1645.9
1638.327	1665.9
1642.834	1667.9
1647.336	1678.9
1651.834	1662.9
1656.328	1678.9
1660.817	1669.9
1665.302	1647.9
1669.783	1607.9
1674.259	1593.9
1678.732	1569.9
1683.199	1522.9
1687.663	1467.9
1692.122	1419.9
1696.577	1367.9
1701.028	1318.9
1705.474	1267.9
1709.917	1236.9
1714.355	1216.9
1718.788	1214.9
1723.218	1190.9
1727.643	1208.9
1732.064	1192.9
1736.481	1190.9
1740.893	1163.9
1745.301	1135.9
1749.705	1111.9
1754.105	1091.9
1758.501	1068.9
1762.893	1056.9
1767.28	1049.9
1771.663	1033.9
1776.042	1038.9
1780.417	1026.9
1784.787	1013.9
1789.154	998.9
1793.516	1003.9
1797.874	994.9
1802.228	953.9
1806.578	960.9
1810.924	940.9
1815.266	939.9
1819.603	945.9
1823.937	930.9
1828.266	928.9
1832.591	927.9
1836.913	932.9
1841.23	941.9
1845.543	930.9
1849.852	936.9
1854.156	928.9
1858.457	926.9
1862.754	932.9
1867.047	927.9
1871.335	928.9
1875.62	946.9
1879.9	923.9
1884.177	925.9
1888.449	924.9
1892.718	906.9
1896.982	902.9
1901.243	869.9
1905.499	869.9
1909.752	857.9
1914	839.9
1918.245	848.9
1922.485	833.9
1926.722	824.9
1930.954	822.9
1935.183	820.9
1939.408	812.9
1943.628	826.9
1947.845	791.9
1952.058	805.9
1956.267	788.9
1960.472	790.9
1964.673	771.9
1968.87	777.9
1973.063	760.9
1977.252	758.9
1981.438	763.9
1985.619	754.9
1989.797	759.9
1993.971	768.9
1998.14	764.9
2002.306	766.9
2006.469	761.9
2010.627	761.9
2014.781	769.9
2018.932	756.9
2023.078	754.9
2027.221	763.9
2031.36	745.9
2035.495	755.9
2039.627	721.9
2043.754	698.9
2047.878	722.9
2051.998	705.9
2056.114	694.9
2060.226	704.9
2064.334	712.9
2068.439	686.9
2072.54	700.9
2076.637	697.9
2080.73	675.9
2084.82	690.9
2088.906	681.9
2092.988	681.9
2097.066	676.9
2101.14	644.9
2105.211	661.9
2109.278	641.9
2113.342	651.9
2117.401	634.9
2121.457	622.9
2125.509	607.9
2129.558	605.9
2133.602	628.9
2137.643	616.9
2141.681	612.9
2145.714	615.9
2149.744	613.9
2153.77	620.9
2157.793	618.9
2161.812	603.9
2165.827	588.9
2169.838	604.9
2173.846	582.9
2177.851	570.9
2181.851	555.9
2185.848	561.9
2189.841	565.9
2193.831	553.9
2197.817	546.9
2201.799	552.9
2205.778	548.9
2209.753	543.9
2213.725	543.9
2217.693	539.9
2221.657	539.9
2225.618	534.9
2229.575	528.9
2233.529	528.9
2237.479	526.9
2241.425	522.9
2245.368	497.9
2249.307	507.9
2253.243	484.9
2257.175	482.9
2261.104	489.9
2265.029	468.9
2268.95	474.9
2272.868	459.9
2276.783	459.9
2280.694	444.9
2284.601	448.9
2288.505	449.9
2292.405	431.9
2296.302	439.9
2300.195	426.9
2304.085	427.9
2307.971	407.9
2311.854	411.9
2315.734	389.9
2319.609	396.9
2323.482	399.9
2327.351	405.9
2331.216	402.9
2335.078	422.9
2338.937	393.9
2342.792	390.9
2346.643	371.9
2350.492	376.9
2354.336	368.9
2358.178	384.9
2362.015	378.9
2365.85	385.9
2369.681	374.9
2373.508	382.9
2377.333	379.9
2381.153	367.9
2384.971	389.9
2388.785	375.9
2392.595	369.9
2396.402	373.9
2400.206	357.9
2404.007	366.9
2407.804	362.9
2411.597	364.9
2415.388	356.9
2419.174	349.9
2422.958	338.9
2426.738	350.9
2430.515	355.9
2434.289	355.9
2438.059	343.9
2441.825	338.9
2445.589	342.9
2449.349	319.9
2453.106	320.9
2456.859	339.9
2460.61	325.9
2464.356	323.9
2468.1	304.9
2471.84	298.9
2475.577	312.9
2479.311	298.9
2483.041	301.9
2486.768	303.9
2490.492	293.9
2494.213	298.9
2497.93	302.9
2501.644	297.9
2505.355	293.9
2509.062	283.9
2512.766	294.9
2516.467	284.9
2520.165	284.9
2523.859	282.9
2527.551	276.9
2531.239	269.9
2534.923	258.9
2538.605	262.9
2542.283	254.9
2545.958	260.9
2549.63	269.9
2553.299	260.9
2556.964	252.9
2560.626	247.9
2564.285	242.9
2567.941	241.9
2571.594	249.9
2575.243	243.9
2578.89	237.9
2582.533	227.9
2586.173	223.9
2589.809	217.9
2593.443	221.9
2597.073	221.9
2600.701	214.9
2604.325	209.9
2607.946	215.9
2611.564	207.9
2615.178	219.9
2618.79	209.9
2622.398	200.9
2626.004	205.9
2629.606	206.9
2633.205	207.9
2636.801	203.9
2640.394	202.9
2643.983	196.9
2647.57	195.9
2651.153	187.9
2654.734	196.9
2658.311	185.9
2661.885	183.9
2665.456	182.9
2669.025	185.9
2672.589	182.9
2676.151	183.9
2679.71	182.9
2683.266	168.9
2686.819	168.9
2690.368	166.9
2693.915	161.9
2697.458	158.9
2700.999	172.9
2704.536	165.9
2708.071	149.9
2711.602	149.9
2715.13	146.9
2718.656	146.9
2722.178	148.9
2725.697	140.9
2729.214	132.9
2732.727	145.9
2736.237	143.9
2739.744	143.9
2743.249	137.9
2746.75	142.9
2750.248	131.9
2753.743	132.9
2757.236	128.9
2760.725	130.9
2764.211	120.9
2767.695	118.9
2771.175	111.9
2774.652	115.9
2778.127	110.9
2781.598	119.9
2785.067	120.9
2788.532	119.9
2791.995	116.9
2795.455	122.9
2798.911	108.9
2802.365	123.9
2805.816	123.9
2809.264	122.9
2812.709	125.9
2816.151	120.9
2819.59	114.9
2823.026	118.9
2826.46	112.9
2829.89	115.9
2833.318	119.9
2836.742	128.9
2840.164	110.9
2843.583	129.9
2846.999	121.9
2850.412	109.9
2853.822	117.9
2857.229	120.9
2860.634	126.9
2864.035	125.9
2867.434	135.9
2870.83	142.9
2874.223	139.9
2877.613	149.9
2881	159.9
2884.385	146.9
2887.766	138.9
2891.145	146.9
2894.521	154.9
2897.894	160.9
2901.264	154.9
2904.631	160.9
2907.996	157.9
2911.358	151.9
2914.717	163.9
2918.073	161.9
2921.426	169.9
2924.777	173.9
2928.124	182.9
2931.469	177.9
2934.811	178.9
2938.15	191.9
2941.487	199.9
2944.821	193.9
2948.152	186.9
2951.48	197.9
2954.805	202.9
2958.128	194.9
2961.447	179.9
2964.765	185.9
2968.079	187.9
2971.39	185.9
2974.699	196.9
2978.005	192.9
2981.308	193.9
2984.609	197.9
2987.907	188.9
2991.202	194.9
2994.494	197.9
2997.784	202.9
3001.07	208.9
3004.355	208.9
3007.636	221.9
3010.915	212.9
3014.191	211.9
3017.464	222.9
3020.734	214.9
3024.002	222.9
3027.267	225.9
3030.53	236.9
3033.789	238.9
3037.046	239.9
3040.301	235.9
3043.552	257.9
3046.801	257.9
3050.048	265.9
3053.291	275.9
3056.532	289.9
3059.771	306.9
3063.006	308.9
3066.239	321.9
3069.469	331.9
3072.697	332.9
3075.922	347.9
3079.144	350.9
3082.364	364.9
3085.581	372.9
3088.795	378.9
3092.007	387.9
3095.216	383.9
3098.423	393.9
3101.627	400.9
3104.828	418.9
3108.026	424.9
3111.222	440.9
3114.416	434.9
3117.607	462.9
3120.795	459.9
3123.98	459.9
3127.163	485.9
3130.344	493.9
3133.521	511.9
3136.696	514.9
3139.869	520.9
3143.039	527.9
3146.206	529.9
3149.371	545.9
3152.533	547.9
3155.693	551.9
3158.85	566.9
3162.005	578.9
3165.157	574.9
3168.306	579.9
3171.453	570.9
3174.597	580.9
3177.739	589.9
3180.878	584.9
3184.014	589.9
3187.149	593.9
3190.28	593.9
3193.409	597.9
3196.536	581.9
3199.659	601.9
3202.781	603.9
3205.9	602.9
3209.016	613.9
3212.13	610.9
3215.241	600.9
3218.35	585.9
3221.456	589.9
3224.56	569.9
3227.661	576.9
3230.76	577.9
3233.856	550.9
3236.95	538.9
3240.041	551.9
3243.13	523.9
3246.216	519.9
3249.3	516.9
3252.382	513.9
3255.46	510.9
3258.537	519.9
3261.611	509.9
3264.682	488.9
3267.751	497.9
3270.818	486.9
3273.882	485.9
3276.943	488.9
3280.002	484.9
3283.059	483.9
3286.113	479.9
3289.165	470.9
3292.214	465.9
3295.261	454.9
3298.306	453.9
3301.348	465.9
3304.387	449.9
3307.425	436.9
3310.459	436.9
3313.492	426.9
3316.521	411.9
3319.549	417.9
3322.574	420.9
3325.597	413.9
3328.617	417.9
3331.635	404.9
3334.65	401.9
3337.663	398.9
3340.674	409.9
3343.682	403.9
3346.688	395.9
3349.691	403.9
3352.692	399.9
3355.691	395.9
3358.687	386.9
3361.681	387.9
3364.673	381.9
3367.662	369.9
3370.649	361.9
3373.633	362.9
3376.615	358.9
3379.595	356.9
3382.572	350.9
3385.547	343.9
3388.52	346.9
3391.49	336.9
3394.458	330.9
3397.424	315.9
3400.387	320.9
3403.348	319.9
3406.307	305.9
3409.263	304.9
3412.217	305.9
3415.168	294.9
3418.118	297.9
3421.065	293.9
3424.009	293.9
3426.951	272.9
3429.891	270.9
3432.829	263.9
3435.764	256.9
3438.697	252.9
3441.628	245.9
3444.557	233.9
3447.483	235.9
3450.407	228.9
3453.328	213.9
3456.247	202.9
3459.164	192.9
3462.079	190.9
3464.991	179.9
3467.902	174.9
3470.809	176.9
3473.715	156.9
3476.618	145.9
3479.519	150.9
3482.418	138.9
3485.315	128.9
3488.209	123.9
3491.101	118.9
3493.99	127.9
3496.878	115.9
3499.763	100.9
3502.646	101.9
3505.527	91.9
3508.405	84.9
3511.281	85.9
3514.155	75.9
3517.027	72.9
3519.897	55.9
3522.764	50.9
3525.629	46.9
3528.492	42.9
3531.352	42.9
3534.211	36.9
3537.067	23.9
3539.921	27.9
3542.773	19.9
3545.622	10.9
3548.469	6.9
3551.315	6.9
3554.157	0.9
3556.998	-11.1
3559.837	-9.1
3562.673	-8.1
3565.507	-5.1
3568.339	-16.1
3571.169	-29.1
3573.996	-19.1
3576.822	-18.1
3579.645	-30.1
3582.466	-27.1
3585.285	-37.1
3588.101	-28.1
3590.916	-40.1
3593.728	-49.1
3596.538	-49.1
3599.346	-47.1
3602.152	-48.1
3604.956	-46.1
3607.757	-50.1
3610.556	-60.1
3613.354	-51.1
3616.149	-67.1
3618.942	-66.1
3621.732	-63.1
3624.521	-66.1
3627.307	-60.1
3630.092	-69.1
3632.874	-61.1
3635.654	-70.1
3638.432	-67.1
3641.208	-73.1
3643.982	-80.1
3646.753	-82.1
3649.523	-87.1
3652.29	-81.1
3655.055	-78.1
3657.818	-82.1
3660.579	-86.1
3663.338	-83.1
3666.095	-90.1
3668.849	-89.1
3671.602	-94.1
3674.352	-91.1
3677.101	-92.1
3679.847	-92.1
3682.591	-99.1
3685.333	-95.1
3688.073	-95.1
3690.811	-98.1
3693.547	-107.1
3696.281	-100.1
3699.013	-98.1
3701.742	-102.1
3704.47	-100.1
3707.195	-100.1
3709.919	-105.1
3712.64	-112.1
3715.359	-108.1
3718.076	-102.1
3720.792	-101.1
3723.505	-110.1
3726.216	-97.1
3728.925	-110.1
3731.632	-106.1
3734.336	-119.1
3737.039	-108.1
3739.74	-114.1
3742.439	-118.1
3745.136	-101.1
3747.83	-116.1
3750.523	-114.1
3753.213	-104.1
3755.902	-113.1
3758.589	-115.1
3761.273	-111.1
3763.956	-108.1
3766.636	-112.1
3769.315	-108.1
3771.991	-111.1
3774.665	-117.1
3777.338	-109.1
3780.008	-115.1
3782.677	-118.1
3785.343	-111.1
3788.007	-107.1
3790.67	-112.1
3793.33	-106.1
3795.989	-114.1
3798.645	-113.1
3801.299	-112.1
3803.952	-123.1
3806.602	-110.1
3809.251	-120.1
3811.897	-114.1
3814.542	-119.1
3817.184	-111.1
3819.825	-114.1
3822.463	-116.1
3825.1	-116.1
3827.735	-112.1
3830.367	-119.1
3832.998	-115.1
3835.627	-114.1
3838.253	-111.1
3840.878	-116.1
3843.501	-110.1
3846.122	-119.1
3848.741	-115.1
3851.358	-109.1
3853.973	-117.1
3856.586	-114.1
3859.197	-122.1
3861.806	-116.1
3864.414	-122.1
3867.019	-111.1
3869.622	-112.1
3872.224	-104.1
3874.823	-100.1
3877.421	-97.1
3880.016	-77.1
3882.61	-65.1
3885.202	-69.1
3887.792	-79.1
3890.38	-90.1
3892.966	-114.1
3895.55	-118.1
3898.132	-114.1
3900.713	-117.1
3903.291	-124.1
3905.868	-123.1
3908.442	-113.1
3911.015	-123.1
3913.586	-117.1
3916.155	-118.1
3918.722	-119.1
3921.287	-113.1
3923.85	-120.1
3926.411	-121.1
3928.971	-117.1
3931.528	-119.1
3934.084	-113.1
3936.638	-113.1
3939.19	-121.1
3941.74	-119.1
3944.288	-122.1
3946.834	-116.1
3949.378	-119.1
3951.921	-117.1
3954.462	-121.1
3957	-118.1
3959.537	-114.1
3962.072	-119.1
3964.606	-110.1
3967.137	-121.1
3969.667	-120.1
3972.194	-122.1
3974.72	-119.1
3977.244	-119.1
3979.766	-124.1
3982.286	-114.1
3984.805	-121.1
3987.321	-118.1
3989.836	-114.1
3992.349	-118.1
3994.86	-114.1
3997.369	-121.1
3999.877	-118.1
4002.382	-113.1
4004.886	-121.1
4007.388	-115.1
4009.888	-117.1
4012.386	-118.1
4014.883	-119.1
4017.377	-117.1
4019.87	-116.1
4022.361	-119.1
4024.85	-117.1
4027.338	-120.1
4029.823	-116.1
4032.307	-112.1
4034.789	-119.1
4037.269	-116.1
4039.747	-111.1
4042.224	-114.1
4044.699	-118.1
4047.172	-115.1
4049.643	-113.1
4052.112	-116.1
4054.58	-115.1
4057.046	-118.1
4059.51	-119.1
4061.972	-114.1
4064.432	-118.1
4066.891	-113.1
4069.348	-117.1
4071.803	-119.1
4074.256	-118.1
4076.708	-114.1
4079.158	-114.1
4081.606	-113.1
4084.052	-118.1
4086.497	-116.1
4088.939	-110.1
4091.38	-116.1
4093.819	-114.1
4096.257	-124.1
4098.693	-115.1
4101.127	-120.1
4103.559	-118.1
4105.989	-12.1
4108.418	-10.1
4110.845	-14.1
4113.27	-14.1
4115.694	-16.1
4118.115	-13.1
4120.535	-123.1
4122.954	-122.1
4125.37	-113.1
4127.785	-119.1
4130.198	-115.1
4132.609	-116.1
4135.019	-122.1
4137.427	-127.1
4139.833	-122.1
4142.237	-120.1
