Data from 2018-2-8_conc=4_n=7_RamanShift_05.txt Node
Date: Mon Mar 12 15:30:28 IST 2018
User: aro
Spectrometer: QEPB0276
Trigger mode: 0
Integration Time (sec): 3.000000E1
Scans to average: 1
Electric dark correction enabled: true
Nonlinearity correction enabled: false
Boxcar width: 0
XAxis mode: Raman Shifts
Number of Pixels in Spectrum: 1044
>>>>>Begin Spectral Data<<<<<
160.701	19.5
166.742	48.5
172.777	144.5
178.805	475.5
184.826	1262.5
190.841	2719.5
196.849	4589.5
202.85	6008.5
208.845	6564.5
214.833	6529.5
220.815	6490.5
226.789	6446.5
232.758	6458.5
238.719	6453.5
244.674	6375.5
250.623	6323.5
256.565	6222.5
262.5	6119.5
268.429	6050.5
274.351	5989.5
280.267	5928.5
286.176	5876.5
292.079	5838.5
297.975	5803.5
303.865	5804.5
309.748	5776.5
315.625	5778.5
321.495	5765.5
327.359	5778.5
333.217	5760.5
339.068	5717.5
344.912	5763.5
350.751	5748.5
356.583	5785.5
362.408	5769.5
368.227	5801.5
374.04	5801.5
379.847	5795.5
385.647	5814.5
391.44	5874.5
397.228	5906.5
403.009	5944.5
408.784	5966.5
414.553	5956.5
420.315	5962.5
426.071	6039.5
431.821	5993.5
437.565	5961.5
443.302	5937.5
449.033	5974.5
454.758	5945.5
460.477	5911.5
466.189	5901.5
471.896	5840.5
477.596	5790.5
483.29	5800.5
488.978	5785.5
494.66	5763.5
500.335	5676.5
506.005	5561.5
511.668	5393.5
517.325	5268.5
522.977	5136.5
528.622	5042.5
534.261	4997.5
539.894	4935.5
545.521	4934.5
551.141	4870.5
556.756	4862.5
562.365	4806.5
567.968	4775.5
573.565	4766.5
579.155	4741.5
584.74	4710.5
590.319	4706.5
595.892	4694.5
601.459	4669.5
607.02	4641.5
612.575	4643.5
618.124	4612.5
623.667	4522.5
629.204	4505.5
634.735	4484.5
640.261	4432.5
645.781	4432.5
651.294	4395.5
656.802	4400.5
662.304	4382.5
667.8	4351.5
673.29	4358.5
678.775	4340.5
684.254	4356.5
689.726	4311.5
695.193	4316.5
700.655	4289.5
706.11	4261.5
711.56	4242.5
717.004	4205.5
722.442	4201.5
727.874	4192.5
733.301	4163.5
738.722	4131.5
744.137	4127.5
749.547	4143.5
754.951	4102.5
760.349	4137.5
765.741	4144.5
771.128	4144.5
776.509	4154.5
781.885	4159.5
787.254	4182.5
792.618	4185.5
797.977	4173.5
803.33	4125.5
808.677	4123.5
814.019	4071.5
819.355	4027.5
824.686	4015.5
830.011	3992.5
835.33	3980.5
840.644	3994.5
845.952	3981.5
851.255	3978.5
856.552	3967.5
861.844	3939.5
867.13	3920.5
872.41	3892.5
877.686	3873.5
882.955	3840.5
888.219	3820.5
893.478	3769.5
898.731	3711.5
903.979	3661.5
909.221	3633.5
914.458	3620.5
919.69	3603.5
924.916	3626.5
930.136	3666.5
935.351	3648.5
940.561	3646.5
945.766	3619.5
950.965	3622.5
956.158	3568.5
961.347	3569.5
966.529	3519.5
971.707	3460.5
976.879	3404.5
982.046	3368.5
987.208	3350.5
992.364	3360.5
997.515	3382.5
1002.66	3410.5
1007.801	3448.5
1012.936	3459.5
1018.066	3470.5
1023.19	3487.5
1028.309	3485.5
1033.423	3493.5
1038.532	3483.5
1043.636	3420.5
1048.734	3392.5
1053.827	3353.5
1058.915	3315.5
1063.998	3271.5
1069.075	3257.5
1074.147	3272.5
1079.214	3284.5
1084.276	3295.5
1089.333	3315.5
1094.385	3319.5
1099.431	3334.5
1104.472	3311.5
1109.509	3308.5
1114.54	3262.5
1119.565	3183.5
1124.586	3189.5
1129.602	3134.5
1134.613	3111.5
1139.618	3103.5
1144.619	3071.5
1149.614	3078.5
1154.604	3109.5
1159.589	3100.5
1164.57	3093.5
1169.545	3091.5
1174.515	3129.5
1179.48	3116.5
1184.44	3048.5
1189.395	3061.5
1194.345	3023.5
1199.29	2999.5
1204.23	3008.5
1209.165	3014.5
1214.095	3040.5
1219.021	3043.5
1223.941	3054.5
1228.856	3056.5
1233.766	3056.5
1238.672	3076.5
1243.572	3071.5
1248.467	3066.5
1253.358	3030.5
1258.244	2956.5
1263.124	2937.5
1268	2877.5
1272.871	2832.5
1277.737	2838.5
1282.599	2788.5
1287.455	2793.5
1292.306	2793.5
1297.153	2824.5
1301.995	2815.5
1306.832	2864.5
1311.664	2870.5
1316.491	2860.5
1321.314	2858.5
1326.132	2843.5
1330.945	2821.5
1335.753	2782.5
1340.556	2767.5
1345.354	2689.5
1350.148	2647.5
1354.937	2598.5
1359.722	2571.5
1364.501	2523.5
1369.276	2478.5
1374.046	2460.5
1378.811	2412.5
1383.572	2402.5
1388.327	2395.5
1393.079	2382.5
1397.825	2389.5
1402.567	2405.5
1407.304	2417.5
1412.036	2416.5
1416.764	2408.5
1421.487	2430.5
1426.205	2429.5
1430.919	2411.5
1435.628	2412.5
1440.333	2474.5
1445.032	2470.5
1449.727	2486.5
1454.418	2508.5
1459.104	2518.5
1463.785	2465.5
1468.462	2425.5
1473.134	2392.5
1477.802	2328.5
1482.465	2280.5
1487.123	2264.5
1491.777	2199.5
1496.426	2182.5
1501.071	2164.5
1505.711	2159.5
1510.347	2141.5
1514.978	2160.5
1519.604	2150.5
1524.226	2142.5
1528.844	2123.5
1533.457	2109.5
1538.065	2109.5
1542.669	2104.5
1547.269	2106.5
1551.864	2113.5
1556.454	2139.5
1561.041	2147.5
1565.622	2152.5
1570.199	2163.5
1574.772	2151.5
1579.34	2207.5
1583.904	2221.5
1588.464	2253.5
1593.019	2271.5
1597.569	2267.5
1602.115	2255.5
1606.657	2249.5
1611.195	2234.5
1615.728	2225.5
1620.256	2214.5
1624.78	2233.5
1629.3	2228.5
1633.816	2230.5
1638.327	2263.5
1642.834	2273.5
1647.336	2297.5
1651.834	2292.5
1656.328	2280.5
1660.817	2245.5
1665.302	2269.5
1669.783	2213.5
1674.259	2162.5
1678.732	2107.5
1683.199	2039.5
1687.663	1983.5
1692.122	1914.5
1696.577	1851.5
1701.028	1754.5
1705.474	1697.5
1709.917	1639.5
1714.355	1609.5
1718.788	1598.5
1723.218	1592.5
1727.643	1615.5
1732.064	1589.5
1736.481	1568.5
1740.893	1543.5
1745.301	1522.5
1749.705	1486.5
1754.105	1450.5
1758.501	1413.5
1762.893	1405.5
1767.28	1385.5
1771.663	1382.5
1776.042	1365.5
1780.417	1352.5
1784.787	1312.5
1789.154	1321.5
1793.516	1313.5
1797.874	1292.5
1802.228	1275.5
1806.578	1268.5
1810.924	1240.5
1815.266	1234.5
1819.603	1230.5
1823.937	1224.5
1828.266	1223.5
1832.591	1227.5
1836.913	1228.5
1841.23	1242.5
1845.543	1230.5
1849.852	1224.5
1854.156	1210.5
1858.457	1226.5
1862.754	1220.5
1867.047	1235.5
1871.335	1235.5
1875.62	1253.5
1879.9	1232.5
1884.177	1210.5
1888.449	1219.5
1892.718	1198.5
1896.982	1168.5
1901.243	1172.5
1905.499	1145.5
1909.752	1134.5
1914	1110.5
1918.245	1118.5
1922.485	1083.5
1926.722	1083.5
1930.954	1069.5
1935.183	1064.5
1939.408	1052.5
1943.628	1062.5
1947.845	1044.5
1952.058	1034.5
1956.267	1028.5
1960.472	1020.5
1964.673	1007.5
1968.87	999.5
1973.063	996.5
1977.252	992.5
1981.438	988.5
1985.619	983.5
1989.797	985.5
1993.971	989.5
1998.14	1009.5
2002.306	986.5
2006.469	1020.5
2010.627	1000.5
2014.781	1007.5
2018.932	1005.5
2023.078	1019.5
2027.221	987.5
2031.36	973.5
2035.495	960.5
2039.627	956.5
2043.754	932.5
2047.878	934.5
2051.998	941.5
2056.114	933.5
2060.226	914.5
2064.334	898.5
2068.439	914.5
2072.54	925.5
2076.637	927.5
2080.73	917.5
2084.82	896.5
2088.906	876.5
2092.988	874.5
2097.066	876.5
2101.14	857.5
2105.211	832.5
2109.278	846.5
2113.342	835.5
2117.401	833.5
2121.457	832.5
2125.509	798.5
2129.558	823.5
2133.602	806.5
2137.643	811.5
2141.681	801.5
2145.714	800.5
2149.744	808.5
2153.77	804.5
2157.793	806.5
2161.812	790.5
2165.827	784.5
2169.838	778.5
2173.846	765.5
2177.851	750.5
2181.851	734.5
2185.848	731.5
2189.841	728.5
2193.831	728.5
2197.817	720.5
2201.799	715.5
2205.778	714.5
2209.753	705.5
2213.725	719.5
2217.693	702.5
2221.657	703.5
2225.618	704.5
2229.575	703.5
2233.529	687.5
2237.479	691.5
2241.425	678.5
2245.368	662.5
2249.307	650.5
2253.243	667.5
2257.175	645.5
2261.104	627.5
2265.029	627.5
2268.95	630.5
2272.868	619.5
2276.783	607.5
2280.694	589.5
2284.601	588.5
2288.505	576.5
2292.405	575.5
2296.302	583.5
2300.195	561.5
2304.085	556.5
2307.971	539.5
2311.854	555.5
2315.734	524.5
2319.609	514.5
2323.482	522.5
2327.351	527.5
2331.216	517.5
2335.078	546.5
2338.937	514.5
2342.792	501.5
2346.643	490.5
2350.492	505.5
2354.336	489.5
2358.178	502.5
2362.015	494.5
2365.85	504.5
2369.681	502.5
2373.508	503.5
2377.333	484.5
2381.153	512.5
2384.971	501.5
2388.785	506.5
2392.595	497.5
2396.402	484.5
2400.206	489.5
2404.007	480.5
2407.804	481.5
2411.597	485.5
2415.388	473.5
2419.174	479.5
2422.958	463.5
2426.738	459.5
2430.515	473.5
2434.289	457.5
2438.059	441.5
2441.825	439.5
2445.589	446.5
2449.349	434.5
2453.106	435.5
2456.859	421.5
2460.61	437.5
2464.356	420.5
2468.1	409.5
2471.84	403.5
2475.577	420.5
2479.311	394.5
2483.041	393.5
2486.768	404.5
2490.492	394.5
2494.213	403.5
2497.93	392.5
2501.644	389.5
2505.355	377.5
2509.062	374.5
2512.766	378.5
2516.467	377.5
2520.165	365.5
2523.859	362.5
2527.551	362.5
2531.239	348.5
2534.923	334.5
2538.605	340.5
2542.283	336.5
2545.958	338.5
2549.63	339.5
2553.299	331.5
2556.964	346.5
2560.626	313.5
2564.285	308.5
2567.941	316.5
2571.594	321.5
2575.243	301.5
2578.89	305.5
2582.533	290.5
2586.173	298.5
2589.809	292.5
2593.443	293.5
2597.073	281.5
2600.701	279.5
2604.325	276.5
2607.946	273.5
2611.564	276.5
2615.178	278.5
2618.79	275.5
2622.398	273.5
2626.004	275.5
2629.606	267.5
2633.205	259.5
2636.801	249.5
2640.394	256.5
2643.983	253.5
2647.57	264.5
2651.153	241.5
2654.734	242.5
2658.311	234.5
2661.885	246.5
2665.456	236.5
2669.025	242.5
2672.589	228.5
2676.151	225.5
2679.71	231.5
2683.266	217.5
2686.819	212.5
2690.368	220.5
2693.915	209.5
2697.458	212.5
2700.999	205.5
2704.536	215.5
2708.071	189.5
2711.602	200.5
2715.13	200.5
2718.656	186.5
2722.178	191.5
2725.697	183.5
2729.214	174.5
2732.727	183.5
2736.237	181.5
2739.744	166.5
2743.249	176.5
2746.75	179.5
2750.248	162.5
2753.743	155.5
2757.236	155.5
2760.725	151.5
2764.211	150.5
2767.695	142.5
2771.175	144.5
2774.652	131.5
2778.127	144.5
2781.598	142.5
2785.067	140.5
2788.532	146.5
2791.995	146.5
2795.455	150.5
2798.911	147.5
2802.365	151.5
2805.816	158.5
2809.264	148.5
2812.709	151.5
2816.151	156.5
2819.59	156.5
2823.026	145.5
2826.46	147.5
2829.89	147.5
2833.318	142.5
2836.742	152.5
2840.164	147.5
2843.583	154.5
2846.999	151.5
2850.412	155.5
2853.822	163.5
2857.229	158.5
2860.634	170.5
2864.035	160.5
2867.434	174.5
2870.83	180.5
2874.223	193.5
2877.613	192.5
2881	204.5
2884.385	208.5
2887.766	195.5
2891.145	198.5
2894.521	199.5
2897.894	210.5
2901.264	212.5
2904.631	203.5
2907.996	204.5
2911.358	213.5
2914.717	215.5
2918.073	220.5
2921.426	229.5
2924.777	231.5
2928.124	242.5
2931.469	241.5
2934.811	245.5
2938.15	262.5
2941.487	257.5
2944.821	261.5
2948.152	259.5
2951.48	254.5
2954.805	260.5
2958.128	262.5
2961.447	264.5
2964.765	266.5
2968.079	256.5
2971.39	254.5
2974.699	258.5
2978.005	260.5
2981.308	260.5
2984.609	267.5
2987.907	260.5
2991.202	273.5
2994.494	267.5
2997.784	275.5
3001.07	270.5
3004.355	286.5
3007.636	285.5
3010.915	288.5
3014.191	290.5
3017.464	293.5
3020.734	291.5
3024.002	306.5
3027.267	304.5
3030.53	325.5
3033.789	323.5
3037.046	327.5
3040.301	339.5
3043.552	349.5
3046.801	363.5
3050.048	378.5
3053.291	373.5
3056.532	400.5
3059.771	414.5
3063.006	426.5
3066.239	437.5
3069.469	449.5
3072.697	460.5
3075.922	476.5
3079.144	492.5
3082.364	501.5
3085.581	512.5
3088.795	518.5
3092.007	517.5
3095.216	535.5
3098.423	554.5
3101.627	566.5
3104.828	583.5
3108.026	587.5
3111.222	602.5
3114.416	624.5
3117.607	624.5
3120.795	641.5
3123.98	644.5
3127.163	669.5
3130.344	690.5
3133.521	699.5
3136.696	709.5
3139.869	718.5
3143.039	732.5
3146.206	754.5
3149.371	765.5
3152.533	766.5
3155.693	782.5
3158.85	783.5
3162.005	807.5
3165.157	798.5
3168.306	790.5
3171.453	796.5
3174.597	805.5
3177.739	797.5
3180.878	823.5
3184.014	828.5
3187.149	818.5
3190.28	835.5
3193.409	836.5
3196.536	830.5
3199.659	835.5
3202.781	826.5
3205.9	841.5
3209.016	833.5
3212.13	849.5
3215.241	812.5
3218.35	822.5
3221.456	826.5
3224.56	802.5
3227.661	806.5
3230.76	787.5
3233.856	772.5
3236.95	754.5
3240.041	752.5
3243.13	737.5
3246.216	729.5
3249.3	716.5
3252.382	714.5
3255.46	709.5
3258.537	689.5
3261.611	701.5
3264.682	681.5
3267.751	674.5
3270.818	672.5
3273.882	673.5
3276.943	669.5
3280.002	664.5
3283.059	663.5
3286.113	655.5
3289.165	652.5
3292.214	642.5
3295.261	634.5
3298.306	630.5
3301.348	624.5
3304.387	617.5
3307.425	603.5
3310.459	604.5
3313.492	603.5
3316.521	582.5
3319.549	588.5
3322.574	585.5
3325.597	579.5
3328.617	573.5
3331.635	565.5
3334.65	561.5
3337.663	562.5
3340.674	568.5
3343.682	569.5
3346.688	550.5
3349.691	558.5
3352.692	558.5
3355.691	561.5
3358.687	553.5
3361.681	547.5
3364.673	540.5
3367.662	541.5
3370.649	522.5
3373.633	505.5
3376.615	499.5
3379.595	497.5
3382.572	495.5
3385.547	473.5
3388.52	470.5
3391.49	479.5
3394.458	469.5
3397.424	457.5
3400.387	444.5
3403.348	444.5
3406.307	424.5
3409.263	417.5
3412.217	429.5
3415.168	423.5
3418.118	417.5
3421.065	389.5
3424.009	394.5
3426.951	393.5
3429.891	380.5
3432.829	373.5
3435.764	367.5
3438.697	352.5
3441.628	339.5
3444.557	336.5
3447.483	321.5
3450.407	312.5
3453.328	298.5
3456.247	284.5
3459.164	262.5
3462.079	259.5
3464.991	257.5
3467.902	249.5
3470.809	233.5
3473.715	216.5
3476.618	209.5
3479.519	203.5
3482.418	195.5
3485.315	180.5
3488.209	172.5
3491.101	171.5
3493.99	168.5
3496.878	155.5
3499.763	142.5
3502.646	130.5
3505.527	123.5
3508.405	124.5
3511.281	117.5
3514.155	101.5
3517.027	95.5
3519.897	80.5
3522.764	77.5
3525.629	65.5
3528.492	57.5
3531.352	54.5
3534.211	42.5
3537.067	39.5
3539.921	36.5
3542.773	22.5
3545.622	7.5
3548.469	10.5
3551.315	3.5
3554.157	-1.5
3556.998	-14.5
3559.837	-11.5
3562.673	-12.5
3565.507	-16.5
3568.339	-27.5
3571.169	-42.5
3573.996	-38.5
3576.822	-35.5
3579.645	-35.5
3582.466	-43.5
3585.285	-55.5
3588.101	-43.5
3590.916	-60.5
3593.728	-65.5
3596.538	-61.5
3599.346	-73.5
3602.152	-68.5
3604.956	-75.5
3607.757	-68.5
3610.556	-85.5
3613.354	-79.5
3616.149	-94.5
3618.942	-98.5
3621.732	-91.5
3624.521	-92.5
3627.307	-91.5
3630.092	-96.5
3632.874	-92.5
3635.654	-104.5
3638.432	-98.5
3641.208	-108.5
3643.982	-108.5
3646.753	-115.5
3649.523	-118.5
3652.29	-107.5
3655.055	-119.5
3657.818	-120.5
3660.579	-120.5
3663.338	-119.5
3666.095	-127.5
3668.849	-126.5
3671.602	-130.5
3674.352	-127.5
3677.101	-131.5
3679.847	-133.5
3682.591	-136.5
3685.333	-134.5
3688.073	-135.5
3690.811	-136.5
3693.547	-141.5
3696.281	-140.5
3699.013	-146.5
3701.742	-145.5
3704.47	-146.5
3707.195	-140.5
3709.919	-145.5
3712.64	-150.5
3715.359	-152.5
3718.076	-146.5
3720.792	-149.5
3723.505	-153.5
3726.216	-143.5
3728.925	-151.5
3731.632	-152.5
3734.336	-160.5
3737.039	-152.5
3739.74	-156.5
3742.439	-159.5
3745.136	-148.5
3747.83	-162.5
3750.523	-158.5
3753.213	-153.5
3755.902	-150.5
3758.589	-160.5
3761.273	-156.5
3763.956	-155.5
3766.636	-156.5
3769.315	-152.5
3771.991	-155.5
3774.665	-163.5
3777.338	-156.5
3780.008	-157.5
3782.677	-161.5
3785.343	-155.5
3788.007	-160.5
3790.67	-157.5
3793.33	-160.5
3795.989	-163.5
3798.645	-157.5
3801.299	-161.5
3803.952	-167.5
3806.602	-155.5
3809.251	-166.5
3811.897	-165.5
3814.542	-161.5
3817.184	-161.5
3819.825	-164.5
3822.463	-165.5
3825.1	-162.5
3827.735	-163.5
3830.367	-163.5
3832.998	-161.5
3835.627	-158.5
3838.253	-161.5
3840.878	-158.5
3843.501	-159.5
3846.122	-165.5
3848.741	-163.5
3851.358	-157.5
3853.973	-166.5
3856.586	-159.5
3859.197	-171.5
3861.806	-162.5
3864.414	-166.5
3867.019	-160.5
3869.622	-157.5
3872.224	-148.5
3874.823	-137.5
3877.421	-125.5
3880.016	-93.5
3882.61	-67.5
3885.202	-64.5
3887.792	-89.5
3890.38	-121.5
3892.966	-147.5
3895.55	-153.5
3898.132	-161.5
3900.713	-164.5
3903.291	-169.5
3905.868	-163.5
3908.442	-160.5
3911.015	-168.5
3913.586	-166.5
3916.155	-170.5
3918.722	-170.5
3921.287	-169.5
3923.85	-166.5
3926.411	-173.5
3928.971	-168.5
3931.528	-171.5
3934.084	-165.5
3936.638	-162.5
3939.19	-166.5
3941.74	-168.5
3944.288	-169.5
3946.834	-165.5
3949.378	-168.5
3951.921	-167.5
3954.462	-168.5
3957	-168.5
3959.537	-161.5
3962.072	-165.5
3964.606	-163.5
3967.137	-163.5
3969.667	-168.5
3972.194	-171.5
3974.72	-165.5
3977.244	-166.5
3979.766	-163.5
3982.286	-167.5
3984.805	-167.5
3987.321	-167.5
3989.836	-157.5
3992.349	-171.5
3994.86	-165.5
3997.369	-171.5
3999.877	-164.5
4002.382	-162.5
4004.886	-165.5
4007.388	-158.5
4009.888	-161.5
4012.386	-163.5
4014.883	-167.5
4017.377	-162.5
4019.87	-163.5
4022.361	-167.5
4024.85	-164.5
4027.338	-165.5
4029.823	-163.5
4032.307	-160.5
4034.789	-166.5
4037.269	-158.5
4039.747	-160.5
4042.224	-160.5
4044.699	-165.5
4047.172	-160.5
4049.643	-163.5
4052.112	-160.5
4054.58	-164.5
4057.046	-161.5
4059.51	-165.5
4061.972	-165.5
4064.432	-161.5
4066.891	-166.5
4069.348	-159.5
4071.803	-169.5
4074.256	-166.5
4076.708	-161.5
4079.158	-158.5
4081.606	-159.5
4084.052	-171.5
4086.497	-167.5
4088.939	-157.5
4091.38	-163.5
4093.819	-163.5
4096.257	-173.5
4098.693	-172.5
4101.127	-173.5
4103.559	-170.5
4105.989	3.5
4108.418	-0.5
4110.845	-1.5
4113.27	6.5
4115.694	-3.5
4118.115	-3.5
4120.535	-162.5
4122.954	-167.5
4125.37	-164.5
4127.785	-168.5
4130.198	-166.5
4132.609	-162.5
4135.019	-170.5
4137.427	-176.5
4139.833	-169.5
4142.237	-171.5
