Data from 2018-2-8_conc=5_n=9_RamanShift_01.txt Node
Date: Mon Mar 12 16:17:28 IST 2018
User: aro
Spectrometer: QEPB0276
Trigger mode: 0
Integration Time (sec): 3.000000E1
Scans to average: 1
Electric dark correction enabled: true
Nonlinearity correction enabled: false
Boxcar width: 0
XAxis mode: Raman Shifts
Number of Pixels in Spectrum: 1044
>>>>>Begin Spectral Data<<<<<
160.701	25.5
166.742	43.5
172.777	109.5
178.805	310.5
184.826	841.5
190.841	1804.5
196.849	2972.5
202.85	3895.5
208.845	4214.5
214.833	4181.5
220.815	4150.5
226.789	4153.5
232.758	4157.5
238.719	4145.5
244.674	4125.5
250.623	4080.5
256.565	4010.5
262.5	3995.5
268.429	3932.5
274.351	3882.5
280.267	3887.5
286.176	3854.5
292.079	3842.5
297.975	3823.5
303.865	3816.5
309.748	3799.5
315.625	3828.5
321.495	3789.5
327.359	3820.5
333.217	3793.5
339.068	3787.5
344.912	3817.5
350.751	3842.5
356.583	3820.5
362.408	3838.5
368.227	3864.5
374.04	3856.5
379.847	3874.5
385.647	3874.5
391.44	3926.5
397.228	3951.5
403.009	3954.5
408.784	3987.5
414.553	4006.5
420.315	4013.5
426.071	4020.5
431.821	3995.5
437.565	4006.5
443.302	4002.5
449.033	3964.5
454.758	3963.5
460.477	3945.5
466.189	3924.5
471.896	3896.5
477.596	3865.5
483.29	3844.5
488.978	3845.5
494.66	3822.5
500.335	3743.5
506.005	3622.5
511.668	3490.5
517.325	3366.5
522.977	3283.5
528.622	3186.5
534.261	3133.5
539.894	3067.5
545.521	3024.5
551.141	3016.5
556.756	2973.5
562.365	2964.5
567.968	2935.5
573.565	2912.5
579.155	2903.5
584.74	2904.5
590.319	2891.5
595.892	2886.5
601.459	2865.5
607.02	2868.5
612.575	2844.5
618.124	2814.5
623.667	2780.5
629.204	2778.5
634.735	2717.5
640.261	2702.5
645.781	2699.5
651.294	2695.5
656.802	2674.5
662.304	2655.5
667.8	2650.5
673.29	2635.5
678.775	2644.5
684.254	2638.5
689.726	2625.5
695.193	2616.5
700.655	2610.5
706.11	2586.5
711.56	2567.5
717.004	2547.5
722.442	2547.5
727.874	2552.5
733.301	2535.5
738.722	2510.5
744.137	2501.5
749.547	2505.5
754.951	2513.5
760.349	2485.5
765.741	2510.5
771.128	2541.5
776.509	2552.5
781.885	2582.5
787.254	2584.5
792.618	2591.5
797.977	2574.5
803.33	2572.5
808.677	2554.5
814.019	2517.5
819.355	2516.5
824.686	2505.5
830.011	2474.5
835.33	2476.5
840.644	2469.5
845.952	2456.5
851.255	2426.5
856.552	2429.5
861.844	2416.5
867.13	2402.5
872.41	2363.5
877.686	2370.5
882.955	2336.5
888.219	2305.5
893.478	2287.5
898.731	2243.5
903.979	2219.5
909.221	2200.5
914.458	2203.5
919.69	2198.5
924.916	2207.5
930.136	2206.5
935.351	2209.5
940.561	2228.5
945.766	2201.5
950.965	2195.5
956.158	2177.5
961.347	2162.5
966.529	2123.5
971.707	2096.5
976.879	2074.5
982.046	2030.5
987.208	2032.5
992.364	2048.5
997.515	2053.5
1002.66	2070.5
1007.801	2082.5
1012.936	2089.5
1018.066	2110.5
1023.19	2108.5
1028.309	2118.5
1033.423	2102.5
1038.532	2102.5
1043.636	2084.5
1048.734	2063.5
1053.827	2039.5
1058.915	2024.5
1063.998	2009.5
1069.075	2007.5
1074.147	1998.5
1079.214	1996.5
1084.276	2005.5
1089.333	2037.5
1094.385	2040.5
1099.431	2012.5
1104.472	2031.5
1109.509	2004.5
1114.54	1969.5
1119.565	1971.5
1124.586	1925.5
1129.602	1897.5
1134.613	1916.5
1139.618	1869.5
1144.619	1871.5
1149.614	1892.5
1154.604	1895.5
1159.589	1887.5
1164.57	1890.5
1169.545	1896.5
1174.515	1888.5
1179.48	1885.5
1184.44	1866.5
1189.395	1872.5
1194.345	1855.5
1199.29	1840.5
1204.23	1825.5
1209.165	1843.5
1214.095	1849.5
1219.021	1864.5
1223.941	1857.5
1228.856	1873.5
1233.766	1874.5
1238.672	1899.5
1243.572	1871.5
1248.467	1871.5
1253.358	1841.5
1258.244	1807.5
1263.124	1802.5
1268	1759.5
1272.871	1728.5
1277.737	1720.5
1282.599	1710.5
1287.455	1715.5
1292.306	1713.5
1297.153	1728.5
1301.995	1745.5
1306.832	1739.5
1311.664	1768.5
1316.491	1758.5
1321.314	1759.5
1326.132	1751.5
1330.945	1724.5
1335.753	1711.5
1340.556	1684.5
1345.354	1653.5
1350.148	1624.5
1354.937	1616.5
1359.722	1578.5
1364.501	1583.5
1369.276	1536.5
1374.046	1515.5
1378.811	1509.5
1383.572	1489.5
1388.327	1489.5
1393.079	1489.5
1397.825	1490.5
1402.567	1480.5
1407.304	1492.5
1412.036	1480.5
1416.764	1498.5
1421.487	1464.5
1426.205	1488.5
1430.919	1497.5
1435.628	1517.5
1440.333	1525.5
1445.032	1524.5
1449.727	1550.5
1454.418	1542.5
1459.104	1555.5
1463.785	1524.5
1468.462	1516.5
1473.134	1480.5
1477.802	1453.5
1482.465	1432.5
1487.123	1405.5
1491.777	1391.5
1496.426	1379.5
1501.071	1350.5
1505.711	1363.5
1510.347	1372.5
1514.978	1352.5
1519.604	1348.5
1524.226	1351.5
1528.844	1354.5
1533.457	1324.5
1538.065	1331.5
1542.669	1344.5
1547.269	1314.5
1551.864	1330.5
1556.454	1331.5
1561.041	1367.5
1565.622	1361.5
1570.199	1364.5
1574.772	1373.5
1579.34	1377.5
1583.904	1402.5
1588.464	1404.5
1593.019	1411.5
1597.569	1403.5
1602.115	1425.5
1606.657	1401.5
1611.195	1404.5
1615.728	1402.5
1620.256	1385.5
1624.78	1408.5
1629.3	1395.5
1633.816	1429.5
1638.327	1408.5
1642.834	1414.5
1647.336	1426.5
1651.834	1435.5
1656.328	1449.5
1660.817	1431.5
1665.302	1425.5
1669.783	1401.5
1674.259	1357.5
1678.732	1339.5
1683.199	1309.5
1687.663	1275.5
1692.122	1231.5
1696.577	1189.5
1701.028	1140.5
1705.474	1088.5
1709.917	1071.5
1714.355	1035.5
1718.788	1055.5
1723.218	1048.5
1727.643	1039.5
1732.064	1026.5
1736.481	1030.5
1740.893	1001.5
1745.301	975.5
1749.705	953.5
1754.105	932.5
1758.501	915.5
1762.893	908.5
1767.28	910.5
1771.663	893.5
1776.042	879.5
1780.417	883.5
1784.787	870.5
1789.154	861.5
1793.516	873.5
1797.874	844.5
1802.228	835.5
1806.578	825.5
1810.924	827.5
1815.266	815.5
1819.603	811.5
1823.937	815.5
1828.266	804.5
1832.591	788.5
1836.913	783.5
1841.23	795.5
1845.543	805.5
1849.852	797.5
1854.156	804.5
1858.457	799.5
1862.754	812.5
1867.047	805.5
1871.335	804.5
1875.62	794.5
1879.9	802.5
1884.177	783.5
1888.449	795.5
1892.718	780.5
1896.982	768.5
1901.243	764.5
1905.499	752.5
1909.752	739.5
1914	733.5
1918.245	742.5
1922.485	720.5
1926.722	729.5
1930.954	733.5
1935.183	727.5
1939.408	709.5
1943.628	716.5
1947.845	699.5
1952.058	698.5
1956.267	685.5
1960.472	687.5
1964.673	684.5
1968.87	673.5
1973.063	658.5
1977.252	655.5
1981.438	662.5
1985.619	660.5
1989.797	648.5
1993.971	656.5
1998.14	660.5
2002.306	661.5
2006.469	657.5
2010.627	659.5
2014.781	650.5
2018.932	648.5
2023.078	662.5
2027.221	662.5
2031.36	646.5
2035.495	649.5
2039.627	629.5
2043.754	622.5
2047.878	610.5
2051.998	616.5
2056.114	605.5
2060.226	606.5
2064.334	610.5
2068.439	605.5
2072.54	605.5
2076.637	606.5
2080.73	608.5
2084.82	607.5
2088.906	587.5
2092.988	598.5
2097.066	589.5
2101.14	576.5
2105.211	575.5
2109.278	557.5
2113.342	554.5
2117.401	564.5
2121.457	553.5
2125.509	548.5
2129.558	540.5
2133.602	543.5
2137.643	535.5
2141.681	533.5
2145.714	533.5
2149.744	533.5
2153.77	537.5
2157.793	539.5
2161.812	533.5
2165.827	520.5
2169.838	508.5
2173.846	503.5
2177.851	494.5
2181.851	488.5
2185.848	488.5
2189.841	478.5
2193.831	480.5
2197.817	476.5
2201.799	463.5
2205.778	463.5
2209.753	467.5
2213.725	453.5
2217.693	473.5
2221.657	463.5
2225.618	474.5
2229.575	462.5
2233.529	455.5
2237.479	448.5
2241.425	447.5
2245.368	436.5
2249.307	430.5
2253.243	421.5
2257.175	415.5
2261.104	429.5
2265.029	407.5
2268.95	406.5
2272.868	394.5
2276.783	383.5
2280.694	387.5
2284.601	389.5
2288.505	385.5
2292.405	376.5
2296.302	373.5
2300.195	367.5
2304.085	356.5
2307.971	353.5
2311.854	344.5
2315.734	342.5
2319.609	334.5
2323.482	342.5
2327.351	334.5
2331.216	343.5
2335.078	351.5
2338.937	337.5
2342.792	327.5
2346.643	324.5
2350.492	322.5
2354.336	316.5
2358.178	320.5
2362.015	317.5
2365.85	330.5
2369.681	322.5
2373.508	316.5
2377.333	332.5
2381.153	321.5
2384.971	323.5
2388.785	321.5
2392.595	316.5
2396.402	307.5
2400.206	323.5
2404.007	316.5
2407.804	311.5
2411.597	313.5
2415.388	301.5
2419.174	306.5
2422.958	289.5
2426.738	297.5
2430.515	294.5
2434.289	295.5
2438.059	290.5
2441.825	282.5
2445.589	298.5
2449.349	276.5
2453.106	276.5
2456.859	277.5
2460.61	281.5
2464.356	270.5
2468.1	254.5
2471.84	263.5
2475.577	259.5
2479.311	246.5
2483.041	252.5
2486.768	263.5
2490.492	246.5
2494.213	254.5
2497.93	250.5
2501.644	250.5
2505.355	246.5
2509.062	246.5
2512.766	250.5
2516.467	235.5
2520.165	240.5
2523.859	234.5
2527.551	237.5
2531.239	218.5
2534.923	218.5
2538.605	220.5
2542.283	221.5
2545.958	226.5
2549.63	221.5
2553.299	216.5
2556.964	220.5
2560.626	208.5
2564.285	206.5
2567.941	208.5
2571.594	210.5
2575.243	207.5
2578.89	204.5
2582.533	194.5
2586.173	192.5
2589.809	182.5
2593.443	185.5
2597.073	191.5
2600.701	187.5
2604.325	179.5
2607.946	175.5
2611.564	179.5
2615.178	177.5
2618.79	188.5
2622.398	171.5
2626.004	175.5
2629.606	172.5
2633.205	166.5
2636.801	168.5
2640.394	166.5
2643.983	170.5
2647.57	162.5
2651.153	160.5
2654.734	161.5
2658.311	152.5
2661.885	149.5
2665.456	152.5
2669.025	156.5
2672.589	150.5
2676.151	152.5
2679.71	159.5
2683.266	142.5
2686.819	143.5
2690.368	141.5
2693.915	138.5
2697.458	137.5
2700.999	133.5
2704.536	139.5
2708.071	127.5
2711.602	124.5
2715.13	123.5
2718.656	120.5
2722.178	113.5
2725.697	116.5
2729.214	114.5
2732.727	128.5
2736.237	125.5
2739.744	117.5
2743.249	120.5
2746.75	117.5
2750.248	106.5
2753.743	105.5
2757.236	109.5
2760.725	107.5
2764.211	107.5
2767.695	97.5
2771.175	84.5
2774.652	84.5
2778.127	88.5
2781.598	87.5
2785.067	100.5
2788.532	96.5
2791.995	99.5
2795.455	93.5
2798.911	89.5
2802.365	91.5
2805.816	102.5
2809.264	97.5
2812.709	103.5
2816.151	104.5
2819.59	88.5
2823.026	93.5
2826.46	95.5
2829.89	92.5
2833.318	96.5
2836.742	96.5
2840.164	106.5
2843.583	107.5
2846.999	98.5
2850.412	93.5
2853.822	97.5
2857.229	102.5
2860.634	107.5
2864.035	114.5
2867.434	116.5
2870.83	117.5
2874.223	121.5
2877.613	120.5
2881	134.5
2884.385	135.5
2887.766	124.5
2891.145	127.5
2894.521	127.5
2897.894	134.5
2901.264	128.5
2904.631	127.5
2907.996	136.5
2911.358	138.5
2914.717	135.5
2918.073	139.5
2921.426	138.5
2924.777	152.5
2928.124	152.5
2931.469	153.5
2934.811	159.5
2938.15	161.5
2941.487	172.5
2944.821	156.5
2948.152	163.5
2951.48	169.5
2954.805	170.5
2958.128	167.5
2961.447	156.5
2964.765	159.5
2968.079	159.5
2971.39	166.5
2974.699	166.5
2978.005	163.5
2981.308	173.5
2984.609	167.5
2987.907	173.5
2991.202	184.5
2994.494	172.5
2997.784	173.5
3001.07	179.5
3004.355	183.5
3007.636	187.5
3010.915	181.5
3014.191	180.5
3017.464	190.5
3020.734	184.5
3024.002	181.5
3027.267	190.5
3030.53	193.5
3033.789	204.5
3037.046	209.5
3040.301	205.5
3043.552	217.5
3046.801	224.5
3050.048	228.5
3053.291	236.5
3056.532	253.5
3059.771	258.5
3063.006	267.5
3066.239	265.5
3069.469	282.5
3072.697	299.5
3075.922	305.5
3079.144	308.5
3082.364	320.5
3085.581	332.5
3088.795	331.5
3092.007	328.5
3095.216	337.5
3098.423	354.5
3101.627	361.5
3104.828	376.5
3108.026	374.5
3111.222	393.5
3114.416	393.5
3117.607	394.5
3120.795	389.5
3123.98	414.5
3127.163	424.5
3130.344	446.5
3133.521	459.5
3136.696	466.5
3139.869	466.5
3143.039	473.5
3146.206	463.5
3149.371	484.5
3152.533	495.5
3155.693	491.5
3158.85	504.5
3162.005	519.5
3165.157	503.5
3168.306	511.5
3171.453	507.5
3174.597	523.5
3177.739	530.5
3180.878	529.5
3184.014	515.5
3187.149	513.5
3190.28	522.5
3193.409	536.5
3196.536	528.5
3199.659	533.5
3202.781	544.5
3205.9	536.5
3209.016	537.5
3212.13	532.5
3215.241	524.5
3218.35	532.5
3221.456	527.5
3224.56	514.5
3227.661	515.5
3230.76	505.5
3233.856	502.5
3236.95	494.5
3240.041	492.5
3243.13	468.5
3246.216	467.5
3249.3	468.5
3252.382	458.5
3255.46	462.5
3258.537	445.5
3261.611	435.5
3264.682	439.5
3267.751	442.5
3270.818	443.5
3273.882	436.5
3276.943	432.5
3280.002	435.5
3283.059	417.5
3286.113	424.5
3289.165	412.5
3292.214	416.5
3295.261	408.5
3298.306	403.5
3301.348	394.5
3304.387	387.5
3307.425	382.5
3310.459	383.5
3313.492	382.5
3316.521	372.5
3319.549	372.5
3322.574	370.5
3325.597	359.5
3328.617	361.5
3331.635	358.5
3334.65	352.5
3337.663	351.5
3340.674	357.5
3343.682	345.5
3346.688	351.5
3349.691	357.5
3352.692	350.5
3355.691	342.5
3358.687	342.5
3361.681	340.5
3364.673	350.5
3367.662	331.5
3370.649	322.5
3373.633	323.5
3376.615	319.5
3379.595	304.5
3382.572	303.5
3385.547	307.5
3388.52	303.5
3391.49	293.5
3394.458	292.5
3397.424	284.5
3400.387	277.5
3403.348	284.5
3406.307	260.5
3409.263	267.5
3412.217	268.5
3415.168	267.5
3418.118	258.5
3421.065	256.5
3424.009	245.5
3426.951	246.5
3429.891	234.5
3432.829	232.5
3435.764	222.5
3438.697	223.5
3441.628	217.5
3444.557	210.5
3447.483	195.5
3450.407	188.5
3453.328	172.5
3456.247	168.5
3459.164	174.5
3462.079	155.5
3464.991	151.5
3467.902	156.5
3470.809	145.5
3473.715	130.5
3476.618	123.5
3479.519	122.5
3482.418	123.5
3485.315	103.5
3488.209	101.5
3491.101	102.5
3493.99	103.5
3496.878	88.5
3499.763	82.5
3502.646	84.5
3505.527	71.5
3508.405	74.5
3511.281	63.5
3514.155	58.5
3517.027	53.5
3519.897	39.5
3522.764	37.5
3525.629	33.5
3528.492	31.5
3531.352	29.5
3534.211	24.5
3537.067	12.5
3539.921	19.5
3542.773	11.5
3545.622	-0.5
3548.469	-8.5
3551.315	0.5
3554.157	-6.5
3556.998	-12.5
3559.837	-13.5
3562.673	-9.5
3565.507	-20.5
3568.339	-28.5
3571.169	-35.5
3573.996	-25.5
3576.822	-30.5
3579.645	-29.5
3582.466	-30.5
3585.285	-36.5
3588.101	-32.5
3590.916	-44.5
3593.728	-53.5
3596.538	-54.5
3599.346	-49.5
3602.152	-51.5
3604.956	-51.5
3607.757	-49.5
3610.556	-64.5
3613.354	-64.5
3616.149	-66.5
3618.942	-72.5
3621.732	-70.5
3624.521	-63.5
3627.307	-69.5
3630.092	-70.5
3632.874	-73.5
3635.654	-73.5
3638.432	-76.5
3641.208	-73.5
3643.982	-75.5
3646.753	-84.5
3649.523	-82.5
3652.29	-77.5
3655.055	-86.5
3657.818	-86.5
3660.579	-84.5
3663.338	-82.5
3666.095	-89.5
3668.849	-89.5
3671.602	-91.5
3674.352	-90.5
3677.101	-98.5
3679.847	-99.5
3682.591	-99.5
3685.333	-96.5
3688.073	-91.5
3690.811	-95.5
3693.547	-108.5
3696.281	-105.5
3699.013	-102.5
3701.742	-106.5
3704.47	-100.5
3707.195	-102.5
3709.919	-100.5
3712.64	-102.5
3715.359	-110.5
3718.076	-112.5
3720.792	-108.5
3723.505	-111.5
3726.216	-104.5
3728.925	-110.5
3731.632	-108.5
3734.336	-111.5
3737.039	-105.5
3739.74	-112.5
3742.439	-119.5
3745.136	-104.5
3747.83	-111.5
3750.523	-110.5
3753.213	-124.5
3755.902	-111.5
3758.589	-114.5
3761.273	-112.5
3763.956	-107.5
3766.636	-112.5
3769.315	-106.5
3771.991	-106.5
3774.665	-114.5
3777.338	-104.5
3780.008	-109.5
3782.677	-112.5
3785.343	-109.5
3788.007	-111.5
3790.67	-113.5
3793.33	-109.5
3795.989	-114.5
3798.645	-112.5
3801.299	-111.5
3803.952	-121.5
3806.602	-108.5
3809.251	-113.5
3811.897	-116.5
3814.542	-117.5
3817.184	-109.5
3819.825	-115.5
3822.463	-118.5
3825.1	-112.5
3827.735	-115.5
3830.367	-118.5
3832.998	-117.5
3835.627	-113.5
3838.253	-113.5
3840.878	-117.5
3843.501	-109.5
3846.122	-113.5
3848.741	-118.5
3851.358	-108.5
3853.973	-118.5
3856.586	-112.5
3859.197	-123.5
3861.806	-111.5
3864.414	-116.5
3867.019	-108.5
3869.622	-115.5
3872.224	-105.5
3874.823	-89.5
3877.421	-85.5
3880.016	-61.5
3882.61	-39.5
3885.202	-34.5
3887.792	-48.5
3890.38	-79.5
3892.966	-109.5
3895.55	-110.5
3898.132	-116.5
3900.713	-117.5
3903.291	-119.5
3905.868	-116.5
3908.442	-112.5
3911.015	-118.5
3913.586	-117.5
3916.155	-117.5
3918.722	-119.5
3921.287	-120.5
3923.85	-117.5
3926.411	-116.5
3928.971	-114.5
3931.528	-116.5
3934.084	-115.5
3936.638	-111.5
3939.19	-119.5
3941.74	-124.5
3944.288	-112.5
3946.834	-113.5
3949.378	-115.5
3951.921	-118.5
3954.462	-128.5
3957	-113.5
3959.537	-115.5
3962.072	-115.5
3964.606	-113.5
3967.137	-116.5
3969.667	-118.5
3972.194	-119.5
3974.72	-116.5
3977.244	-121.5
3979.766	-122.5
3982.286	-113.5
3984.805	-116.5
3987.321	-119.5
3989.836	-111.5
3992.349	-117.5
3994.86	-122.5
3997.369	-124.5
3999.877	-121.5
4002.382	-111.5
4004.886	-115.5
4007.388	-118.5
4009.888	-117.5
4012.386	-118.5
4014.883	-119.5
4017.377	-113.5
4019.87	-115.5
4022.361	-115.5
4024.85	-118.5
4027.338	-117.5
4029.823	-114.5
4032.307	-110.5
4034.789	-121.5
4037.269	-118.5
4039.747	-115.5
4042.224	-108.5
4044.699	-116.5
4047.172	-110.5
4049.643	-108.5
4052.112	-115.5
4054.58	-122.5
4057.046	-118.5
4059.51	-117.5
4061.972	-115.5
4064.432	-112.5
4066.891	-115.5
4069.348	-113.5
4071.803	-119.5
4074.256	-116.5
4076.708	-112.5
4079.158	-115.5
4081.606	-107.5
4084.052	-113.5
4086.497	-112.5
4088.939	-106.5
4091.38	-116.5
4093.819	-115.5
4096.257	-119.5
4098.693	-118.5
4101.127	-120.5
4103.559	-119.5
4105.989	19.5
4108.418	19.5
4110.845	18.5
4113.27	16.5
4115.694	9.5
4118.115	10.5
4120.535	-119.5
4122.954	-119.5
4125.37	-115.5
4127.785	-114.5
4130.198	-116.5
4132.609	-110.5
4135.019	-120.5
4137.427	-124.5
4139.833	-121.5
4142.237	-122.5
