Data from 2018-2-8_conc=0_n=1_RamanShift_03.txt Node
Date: Mon Mar 12 13:17:59 IST 2018
User: aro
Spectrometer: QEPB0276
Trigger mode: 0
Integration Time (sec): 3.000000E1
Scans to average: 1
Electric dark correction enabled: true
Nonlinearity correction enabled: false
Boxcar width: 0
XAxis mode: Raman Shifts
Number of Pixels in Spectrum: 1044
>>>>>Begin Spectral Data<<<<<
160.701	14.5
166.742	55.5
172.777	159.5
178.805	476.5
184.826	1280.5
190.841	2770.5
196.849	4629.5
202.85	6037.5
208.845	6598.5
214.833	6560.5
220.815	6482.5
226.789	6483.5
232.758	6470.5
238.719	6474.5
244.674	6443.5
250.623	6368.5
256.565	6263.5
262.5	6180.5
268.429	6093.5
274.351	6029.5
280.267	5975.5
286.176	5966.5
292.079	5930.5
297.975	5840.5
303.865	5872.5
309.748	5830.5
315.625	5826.5
321.495	5808.5
327.359	5806.5
333.217	5792.5
339.068	5798.5
344.912	5811.5
350.751	5815.5
356.583	5811.5
362.408	5812.5
368.227	5854.5
374.04	5833.5
379.847	5854.5
385.647	5932.5
391.44	5909.5
397.228	5967.5
403.009	5951.5
408.784	5969.5
414.553	5996.5
420.315	6014.5
426.071	6003.5
431.821	6050.5
437.565	6030.5
443.302	6001.5
449.033	5995.5
454.758	5967.5
460.477	5922.5
466.189	5914.5
471.896	5864.5
477.596	5847.5
483.29	5832.5
488.978	5806.5
494.66	5817.5
500.335	5736.5
506.005	5616.5
511.668	5468.5
517.325	5319.5
522.977	5230.5
528.622	5129.5
534.261	5057.5
539.894	5023.5
545.521	4969.5
551.141	4957.5
556.756	4922.5
562.365	4910.5
567.968	4891.5
573.565	4856.5
579.155	4840.5
584.74	4805.5
590.319	4790.5
595.892	4752.5
601.459	4750.5
607.02	4709.5
612.575	4705.5
618.124	4674.5
623.667	4615.5
629.204	4593.5
634.735	4561.5
640.261	4554.5
645.781	4528.5
651.294	4500.5
656.802	4494.5
662.304	4487.5
667.8	4472.5
673.29	4457.5
678.775	4431.5
684.254	4407.5
689.726	4415.5
695.193	4402.5
700.655	4367.5
706.11	4378.5
711.56	4309.5
717.004	4295.5
722.442	4241.5
727.874	4276.5
733.301	4232.5
738.722	4229.5
744.137	4214.5
749.547	4187.5
754.951	4206.5
760.349	4226.5
765.741	4224.5
771.128	4223.5
776.509	4263.5
781.885	4286.5
787.254	4279.5
792.618	4282.5
797.977	4218.5
803.33	4211.5
808.677	4182.5
814.019	4150.5
819.355	4112.5
824.686	4102.5
830.011	4091.5
835.33	4080.5
840.644	4076.5
845.952	4049.5
851.255	4053.5
856.552	4041.5
861.844	3996.5
867.13	3998.5
872.41	4017.5
877.686	4002.5
882.955	3957.5
888.219	3924.5
893.478	3881.5
898.731	3787.5
903.979	3745.5
909.221	3732.5
914.458	3703.5
919.69	3693.5
924.916	3715.5
930.136	3715.5
935.351	3716.5
940.561	3727.5
945.766	3706.5
950.965	3713.5
956.158	3666.5
961.347	3621.5
966.529	3599.5
971.707	3533.5
976.879	3448.5
982.046	3450.5
987.208	3421.5
992.364	3420.5
997.515	3462.5
1002.66	3479.5
1007.801	3510.5
1012.936	3523.5
1018.066	3534.5
1023.19	3556.5
1028.309	3553.5
1033.423	3534.5
1038.532	3529.5
1043.636	3524.5
1048.734	3466.5
1053.827	3433.5
1058.915	3376.5
1063.998	3355.5
1069.075	3361.5
1074.147	3346.5
1079.214	3339.5
1084.276	3349.5
1089.333	3396.5
1094.385	3396.5
1099.431	3402.5
1104.472	3396.5
1109.509	3353.5
1114.54	3305.5
1119.565	3297.5
1124.586	3260.5
1129.602	3199.5
1134.613	3171.5
1139.618	3148.5
1144.619	3158.5
1149.614	3140.5
1154.604	3145.5
1159.589	3146.5
1164.57	3152.5
1169.545	3199.5
1174.515	3196.5
1179.48	3180.5
1184.44	3121.5
1189.395	3099.5
1194.345	3071.5
1199.29	3032.5
1204.23	3058.5
1209.165	3059.5
1214.095	3074.5
1219.021	3113.5
1223.941	3116.5
1228.856	3113.5
1233.766	3123.5
1238.672	3142.5
1243.572	3122.5
1248.467	3114.5
1253.358	3078.5
1258.244	3040.5
1263.124	2974.5
1268	2902.5
1272.871	2895.5
1277.737	2869.5
1282.599	2865.5
1287.455	2867.5
1292.306	2860.5
1297.153	2884.5
1301.995	2895.5
1306.832	2877.5
1311.664	2908.5
1316.491	2929.5
1321.314	2911.5
1326.132	2907.5
1330.945	2824.5
1335.753	2806.5
1340.556	2775.5
1345.354	2713.5
1350.148	2652.5
1354.937	2640.5
1359.722	2590.5
1364.501	2569.5
1369.276	2510.5
1374.046	2519.5
1378.811	2447.5
1383.572	2455.5
1388.327	2438.5
1393.079	2432.5
1397.825	2437.5
1402.567	2438.5
1407.304	2444.5
1412.036	2453.5
1416.764	2442.5
1421.487	2464.5
1426.205	2443.5
1430.919	2434.5
1435.628	2472.5
1440.333	2504.5
1445.032	2503.5
1449.727	2554.5
1454.418	2556.5
1459.104	2519.5
1463.785	2478.5
1468.462	2433.5
1473.134	2395.5
1477.802	2336.5
1482.465	2308.5
1487.123	2248.5
1491.777	2209.5
1496.426	2184.5
1501.071	2157.5
1505.711	2147.5
1510.347	2135.5
1514.978	2138.5
1519.604	2134.5
1524.226	2125.5
1528.844	2133.5
1533.457	2116.5
1538.065	2097.5
1542.669	2077.5
1547.269	2104.5
1551.864	2107.5
1556.454	2130.5
1561.041	2146.5
1565.622	2158.5
1570.199	2168.5
1574.772	2187.5
1579.34	2221.5
1583.904	2250.5
1588.464	2284.5
1593.019	2286.5
1597.569	2273.5
1602.115	2276.5
1606.657	2266.5
1611.195	2253.5
1615.728	2222.5
1620.256	2229.5
1624.78	2240.5
1629.3	2222.5
1633.816	2227.5
1638.327	2255.5
1642.834	2269.5
1647.336	2280.5
1651.834	2253.5
1656.328	2274.5
1660.817	2261.5
1665.302	2233.5
1669.783	2189.5
1674.259	2138.5
1678.732	2077.5
1683.199	2019.5
1687.663	1935.5
1692.122	1871.5
1696.577	1802.5
1701.028	1725.5
1705.474	1661.5
1709.917	1609.5
1714.355	1577.5
1718.788	1587.5
1723.218	1567.5
1727.643	1579.5
1732.064	1556.5
1736.481	1558.5
1740.893	1525.5
1745.301	1484.5
1749.705	1470.5
1754.105	1428.5
1758.501	1413.5
1762.893	1403.5
1767.28	1377.5
1771.663	1372.5
1776.042	1340.5
1780.417	1314.5
1784.787	1316.5
1789.154	1298.5
1793.516	1291.5
1797.874	1283.5
1802.228	1250.5
1806.578	1232.5
1810.924	1220.5
1815.266	1223.5
1819.603	1221.5
1823.937	1212.5
1828.266	1213.5
1832.591	1213.5
1836.913	1215.5
1841.23	1213.5
1845.543	1213.5
1849.852	1214.5
1854.156	1205.5
1858.457	1205.5
1862.754	1230.5
1867.047	1208.5
1871.335	1217.5
1875.62	1201.5
1879.9	1213.5
1884.177	1191.5
1888.449	1188.5
1892.718	1159.5
1896.982	1146.5
1901.243	1117.5
1905.499	1108.5
1909.752	1106.5
1914	1082.5
1918.245	1059.5
1922.485	1045.5
1926.722	1035.5
1930.954	1036.5
1935.183	1027.5
1939.408	1009.5
1943.628	1020.5
1947.845	1005.5
1952.058	995.5
1956.267	1002.5
1960.472	988.5
1964.673	990.5
1968.87	972.5
1973.063	963.5
1977.252	955.5
1981.438	952.5
1985.619	959.5
1989.797	970.5
1993.971	970.5
1998.14	974.5
2002.306	975.5
2006.469	984.5
2010.627	979.5
2014.781	986.5
2018.932	983.5
2023.078	976.5
2027.221	964.5
2031.36	971.5
2035.495	944.5
2039.627	929.5
2043.754	902.5
2047.878	902.5
2051.998	908.5
2056.114	889.5
2060.226	909.5
2064.334	883.5
2068.439	878.5
2072.54	881.5
2076.637	871.5
2080.73	881.5
2084.82	857.5
2088.906	857.5
2092.988	846.5
2097.066	853.5
2101.14	826.5
2105.211	826.5
2109.278	813.5
2113.342	796.5
2117.401	790.5
2121.457	795.5
2125.509	783.5
2129.558	777.5
2133.602	791.5
2137.643	791.5
2141.681	769.5
2145.714	773.5
2149.744	773.5
2153.77	796.5
2157.793	782.5
2161.812	781.5
2165.827	764.5
2169.838	760.5
2173.846	746.5
2177.851	728.5
2181.851	728.5
2185.848	730.5
2189.841	724.5
2193.831	718.5
2197.817	695.5
2201.799	696.5
2205.778	690.5
2209.753	689.5
2213.725	684.5
2217.693	688.5
2221.657	696.5
2225.618	696.5
2229.575	682.5
2233.529	682.5
2237.479	681.5
2241.425	668.5
2245.368	649.5
2249.307	651.5
2253.243	633.5
2257.175	640.5
2261.104	614.5
2265.029	610.5
2268.95	616.5
2272.868	611.5
2276.783	580.5
2280.694	579.5
2284.601	578.5
2288.505	589.5
2292.405	583.5
2296.302	568.5
2300.195	547.5
2304.085	541.5
2307.971	530.5
2311.854	540.5
2315.734	517.5
2319.609	513.5
2323.482	508.5
2327.351	513.5
2331.216	525.5
2335.078	521.5
2338.937	507.5
2342.792	497.5
2346.643	490.5
2350.492	479.5
2354.336	492.5
2358.178	500.5
2362.015	498.5
2365.85	498.5
2369.681	497.5
2373.508	503.5
2377.333	499.5
2381.153	494.5
2384.971	496.5
2388.785	499.5
2392.595	479.5
2396.402	468.5
2400.206	473.5
2404.007	472.5
2407.804	477.5
2411.597	478.5
2415.388	456.5
2419.174	477.5
2422.958	454.5
2426.738	463.5
2430.515	459.5
2434.289	450.5
2438.059	454.5
2441.825	431.5
2445.589	439.5
2449.349	429.5
2453.106	428.5
2456.859	421.5
2460.61	423.5
2464.356	407.5
2468.1	392.5
2471.84	390.5
2475.577	399.5
2479.311	387.5
2483.041	385.5
2486.768	379.5
2490.492	368.5
2494.213	387.5
2497.93	382.5
2501.644	370.5
2505.355	367.5
2509.062	364.5
2512.766	352.5
2516.467	361.5
2520.165	346.5
2523.859	344.5
2527.551	339.5
2531.239	328.5
2534.923	331.5
2538.605	332.5
2542.283	317.5
2545.958	328.5
2549.63	317.5
2553.299	299.5
2556.964	308.5
2560.626	301.5
2564.285	296.5
2567.941	300.5
2571.594	295.5
2575.243	295.5
2578.89	279.5
2582.533	284.5
2586.173	269.5
2589.809	273.5
2593.443	276.5
2597.073	270.5
2600.701	264.5
2604.325	265.5
2607.946	265.5
2611.564	257.5
2615.178	256.5
2618.79	264.5
2622.398	267.5
2626.004	257.5
2629.606	251.5
2633.205	253.5
2636.801	248.5
2640.394	248.5
2643.983	238.5
2647.57	246.5
2651.153	242.5
2654.734	244.5
2658.311	224.5
2661.885	229.5
2665.456	220.5
2669.025	230.5
2672.589	222.5
2676.151	222.5
2679.71	219.5
2683.266	217.5
2686.819	215.5
2690.368	209.5
2693.915	201.5
2697.458	200.5
2700.999	200.5
2704.536	193.5
2708.071	190.5
2711.602	189.5
2715.13	187.5
2718.656	181.5
2722.178	185.5
2725.697	169.5
2729.214	166.5
2732.727	173.5
2736.237	171.5
2739.744	165.5
2743.249	160.5
2746.75	156.5
2750.248	154.5
2753.743	144.5
2757.236	142.5
2760.725	140.5
2764.211	133.5
2767.695	131.5
2771.175	134.5
2774.652	129.5
2778.127	134.5
2781.598	126.5
2785.067	136.5
2788.532	138.5
2791.995	131.5
2795.455	138.5
2798.911	140.5
2802.365	141.5
2805.816	136.5
2809.264	125.5
2812.709	143.5
2816.151	134.5
2819.59	139.5
2823.026	145.5
2826.46	133.5
2829.89	129.5
2833.318	133.5
2836.742	138.5
2840.164	139.5
2843.583	134.5
2846.999	147.5
2850.412	149.5
2853.822	153.5
2857.229	144.5
2860.634	147.5
2864.035	153.5
2867.434	144.5
2870.83	170.5
2874.223	183.5
2877.613	182.5
2881	195.5
2884.385	196.5
2887.766	181.5
2891.145	186.5
2894.521	191.5
2897.894	200.5
2901.264	199.5
2904.631	198.5
2907.996	201.5
2911.358	203.5
2914.717	213.5
2918.073	222.5
2921.426	230.5
2924.777	225.5
2928.124	238.5
2931.469	241.5
2934.811	247.5
2938.15	247.5
2941.487	257.5
2944.821	255.5
2948.152	263.5
2951.48	257.5
2954.805	259.5
2958.128	258.5
2961.447	243.5
2964.765	251.5
2968.079	242.5
2971.39	248.5
2974.699	255.5
2978.005	236.5
2981.308	250.5
2984.609	257.5
2987.907	248.5
2991.202	264.5
2994.494	264.5
2997.784	259.5
3001.07	266.5
3004.355	274.5
3007.636	274.5
3010.915	273.5
3014.191	285.5
3017.464	293.5
3020.734	281.5
3024.002	282.5
3027.267	296.5
3030.53	293.5
3033.789	312.5
3037.046	312.5
3040.301	325.5
3043.552	343.5
3046.801	351.5
3050.048	351.5
3053.291	368.5
3056.532	385.5
3059.771	413.5
3063.006	407.5
3066.239	424.5
3069.469	443.5
3072.697	450.5
3075.922	462.5
3079.144	477.5
3082.364	491.5
3085.581	497.5
3088.795	489.5
3092.007	512.5
3095.216	520.5
3098.423	530.5
3101.627	543.5
3104.828	559.5
3108.026	565.5
3111.222	585.5
3114.416	590.5
3117.607	598.5
3120.795	625.5
3123.98	632.5
3127.163	638.5
3130.344	672.5
3133.521	682.5
3136.696	700.5
3139.869	698.5
3143.039	707.5
3146.206	720.5
3149.371	739.5
3152.533	749.5
3155.693	749.5
3158.85	766.5
3162.005	758.5
3165.157	754.5
3168.306	770.5
3171.453	772.5
3174.597	769.5
3177.739	781.5
3180.878	787.5
3184.014	809.5
3187.149	797.5
3190.28	795.5
3193.409	796.5
3196.536	807.5
3199.659	809.5
3202.781	823.5
3205.9	825.5
3209.016	828.5
3212.13	822.5
3215.241	807.5
3218.35	796.5
3221.456	781.5
3224.56	780.5
3227.661	771.5
3230.76	753.5
3233.856	742.5
3236.95	731.5
3240.041	722.5
3243.13	717.5
3246.216	700.5
3249.3	694.5
3252.382	685.5
3255.46	671.5
3258.537	681.5
3261.611	667.5
3264.682	664.5
3267.751	657.5
3270.818	657.5
3273.882	662.5
3276.943	651.5
3280.002	631.5
3283.059	640.5
3286.113	636.5
3289.165	631.5
3292.214	615.5
3295.261	614.5
3298.306	603.5
3301.348	602.5
3304.387	590.5
3307.425	585.5
3310.459	576.5
3313.492	583.5
3316.521	556.5
3319.549	579.5
3322.574	574.5
3325.597	557.5
3328.617	547.5
3331.635	552.5
3334.65	549.5
3337.663	552.5
3340.674	539.5
3343.682	549.5
3346.688	540.5
3349.691	536.5
3352.692	539.5
3355.691	540.5
3358.687	535.5
3361.681	538.5
3364.673	533.5
3367.662	512.5
3370.649	508.5
3373.633	484.5
3376.615	485.5
3379.595	473.5
3382.572	472.5
3385.547	457.5
3388.52	452.5
3391.49	454.5
3394.458	441.5
3397.424	437.5
3400.387	424.5
3403.348	408.5
3406.307	412.5
3409.263	412.5
3412.217	409.5
3415.168	409.5
3418.118	402.5
3421.065	387.5
3424.009	370.5
3426.951	370.5
3429.891	361.5
3432.829	354.5
3435.764	351.5
3438.697	336.5
3441.628	324.5
3444.557	313.5
3447.483	299.5
3450.407	288.5
3453.328	269.5
3456.247	275.5
3459.164	252.5
3462.079	245.5
3464.991	235.5
3467.902	227.5
3470.809	223.5
3473.715	205.5
3476.618	190.5
3479.519	185.5
3482.418	182.5
3485.315	171.5
3488.209	160.5
3491.101	154.5
3493.99	155.5
3496.878	138.5
3499.763	126.5
3502.646	122.5
3505.527	104.5
3508.405	111.5
3511.281	104.5
3514.155	95.5
3517.027	84.5
3519.897	72.5
3522.764	61.5
3525.629	51.5
3528.492	40.5
3531.352	45.5
3534.211	25.5
3537.067	29.5
3539.921	24.5
3542.773	10.5
3545.622	1.5
3548.469	6.5
3551.315	-1.5
3554.157	-15.5
3556.998	-23.5
3559.837	-24.5
3562.673	-23.5
3565.507	-28.5
3568.339	-39.5
3571.169	-50.5
3573.996	-48.5
3576.822	-47.5
3579.645	-53.5
3582.466	-54.5
3585.285	-56.5
3588.101	-51.5
3590.916	-71.5
3593.728	-72.5
3596.538	-74.5
3599.346	-80.5
3602.152	-80.5
3604.956	-77.5
3607.757	-77.5
3610.556	-84.5
3613.354	-85.5
3616.149	-96.5
3618.942	-103.5
3621.732	-102.5
3624.521	-98.5
3627.307	-100.5
3630.092	-96.5
3632.874	-101.5
3635.654	-106.5
3638.432	-107.5
3641.208	-109.5
3643.982	-114.5
3646.753	-120.5
3649.523	-117.5
3652.29	-109.5
3655.055	-118.5
3657.818	-121.5
3660.579	-121.5
3663.338	-121.5
3666.095	-133.5
3668.849	-131.5
3671.602	-135.5
3674.352	-125.5
3677.101	-134.5
3679.847	-137.5
3682.591	-141.5
3685.333	-133.5
3688.073	-140.5
3690.811	-141.5
3693.547	-150.5
3696.281	-147.5
3699.013	-145.5
3701.742	-147.5
3704.47	-147.5
3707.195	-146.5
3709.919	-153.5
3712.64	-149.5
3715.359	-151.5
3718.076	-145.5
3720.792	-147.5
3723.505	-152.5
3726.216	-145.5
3728.925	-158.5
3731.632	-157.5
3734.336	-162.5
3737.039	-155.5
3739.74	-154.5
3742.439	-166.5
3745.136	-155.5
3747.83	-166.5
3750.523	-155.5
3753.213	-160.5
3755.902	-158.5
3758.589	-165.5
3761.273	-155.5
3763.956	-154.5
3766.636	-160.5
3769.315	-158.5
3771.991	-156.5
3774.665	-168.5
3777.338	-156.5
3780.008	-160.5
3782.677	-161.5
3785.343	-159.5
3788.007	-159.5
3790.67	-164.5
3793.33	-161.5
3795.989	-167.5
3798.645	-157.5
3801.299	-162.5
3803.952	-168.5
3806.602	-159.5
3809.251	-163.5
3811.897	-170.5
3814.542	-168.5
3817.184	-162.5
3819.825	-162.5
3822.463	-160.5
3825.1	-162.5
3827.735	-167.5
3830.367	-165.5
3832.998	-170.5
3835.627	-168.5
3838.253	-167.5
3840.878	-167.5
3843.501	-162.5
3846.122	-161.5
3848.741	-174.5
3851.358	-168.5
3853.973	-163.5
3856.586	-165.5
3859.197	-167.5
3861.806	-164.5
3864.414	-163.5
3867.019	-157.5
3869.622	-160.5
3872.224	-150.5
3874.823	-151.5
3877.421	-124.5
3880.016	-97.5
3882.61	-76.5
3885.202	-69.5
3887.792	-90.5
3890.38	-124.5
3892.966	-141.5
3895.55	-154.5
3898.132	-162.5
3900.713	-167.5
3903.291	-169.5
3905.868	-167.5
3908.442	-164.5
3911.015	-168.5
3913.586	-167.5
3916.155	-172.5
3918.722	-170.5
3921.287	-172.5
3923.85	-163.5
3926.411	-172.5
3928.971	-165.5
3931.528	-169.5
3934.084	-166.5
3936.638	-167.5
3939.19	-177.5
3941.74	-171.5
3944.288	-171.5
3946.834	-166.5
3949.378	-167.5
3951.921	-168.5
3954.462	-179.5
3957	-167.5
3959.537	-169.5
3962.072	-170.5
3964.606	-166.5
3967.137	-164.5
3969.667	-167.5
3972.194	-170.5
3974.72	-163.5
3977.244	-172.5
3979.766	-173.5
3982.286	-170.5
3984.805	-170.5
3987.321	-162.5
3989.836	-159.5
3992.349	-166.5
3994.86	-168.5
3997.369	-168.5
3999.877	-167.5
4002.382	-165.5
4004.886	-164.5
4007.388	-160.5
4009.888	-160.5
4012.386	-165.5
4014.883	-166.5
4017.377	-169.5
4019.87	-167.5
4022.361	-170.5
4024.85	-166.5
4027.338	-164.5
4029.823	-160.5
4032.307	-162.5
4034.789	-171.5
4037.269	-166.5
4039.747	-165.5
4042.224	-166.5
4044.699	-164.5
4047.172	-162.5
4049.643	-159.5
4052.112	-164.5
4054.58	-167.5
4057.046	-171.5
4059.51	-168.5
4061.972	-165.5
4064.432	-164.5
4066.891	-165.5
4069.348	-158.5
4071.803	-168.5
4074.256	-171.5
4076.708	-167.5
4079.158	-169.5
4081.606	-161.5
4084.052	-168.5
4086.497	-166.5
4088.939	-161.5
4091.38	-167.5
4093.819	-165.5
4096.257	-178.5
4098.693	-173.5
4101.127	-172.5
4103.559	-171.5
4105.989	0.5
4108.418	-13.5
4110.845	-5.5
4113.27	-15.5
4115.694	-15.5
4118.115	-10.5
4120.535	-169.5
4122.954	-172.5
4125.37	-165.5
4127.785	-164.5
4130.198	-164.5
4132.609	-165.5
4135.019	-172.5
4137.427	-177.5
4139.833	-177.5
4142.237	-178.5
