Data from 2018-2-8_conc=0_n=2_RamanShift_05.txt Node
Date: Mon Mar 12 13:22:29 IST 2018
User: aro
Spectrometer: QEPB0276
Trigger mode: 0
Integration Time (sec): 3.000000E1
Scans to average: 1
Electric dark correction enabled: true
Nonlinearity correction enabled: false
Boxcar width: 0
XAxis mode: Raman Shifts
Number of Pixels in Spectrum: 1044
>>>>>Begin Spectral Data<<<<<
160.701	8.6
166.742	43.6
172.777	133.6
178.805	445.6
184.826	1250.6
190.841	2676.6
196.849	4459.6
202.85	5830.6
208.845	6335.6
214.833	6318.6
220.815	6238.6
226.789	6212.6
232.758	6213.6
238.719	6218.6
244.674	6181.6
250.623	6083.6
256.565	6021.6
262.5	5922.6
268.429	5806.6
274.351	5789.6
280.267	5749.6
286.176	5680.6
292.079	5659.6
297.975	5605.6
303.865	5629.6
309.748	5603.6
315.625	5579.6
321.495	5570.6
327.359	5555.6
333.217	5524.6
339.068	5543.6
344.912	5536.6
350.751	5546.6
356.583	5544.6
362.408	5573.6
368.227	5586.6
374.04	5572.6
379.847	5584.6
385.647	5633.6
391.44	5648.6
397.228	5654.6
403.009	5686.6
408.784	5718.6
414.553	5726.6
420.315	5749.6
426.071	5768.6
431.821	5743.6
437.565	5738.6
443.302	5721.6
449.033	5732.6
454.758	5682.6
460.477	5676.6
466.189	5632.6
471.896	5637.6
477.596	5576.6
483.29	5583.6
488.978	5561.6
494.66	5531.6
500.335	5516.6
506.005	5392.6
511.668	5218.6
517.325	5079.6
522.977	4985.6
528.622	4924.6
534.261	4828.6
539.894	4793.6
545.521	4785.6
551.141	4766.6
556.756	4720.6
562.365	4681.6
567.968	4676.6
573.565	4642.6
579.155	4604.6
584.74	4585.6
590.319	4577.6
595.892	4564.6
601.459	4541.6
607.02	4526.6
612.575	4490.6
618.124	4466.6
623.667	4454.6
629.204	4405.6
634.735	4346.6
640.261	4346.6
645.781	4319.6
651.294	4323.6
656.802	4339.6
662.304	4282.6
667.8	4269.6
673.29	4303.6
678.775	4245.6
684.254	4247.6
689.726	4229.6
695.193	4180.6
700.655	4184.6
706.11	4167.6
711.56	4134.6
717.004	4125.6
722.442	4097.6
727.874	4085.6
733.301	4050.6
738.722	4045.6
744.137	4067.6
749.547	4035.6
754.951	4024.6
760.349	4020.6
765.741	4059.6
771.128	4056.6
776.509	4075.6
781.885	4082.6
787.254	4071.6
792.618	4111.6
797.977	4070.6
803.33	4019.6
808.677	4008.6
814.019	3955.6
819.355	3941.6
824.686	3943.6
830.011	3909.6
835.33	3902.6
840.644	3900.6
845.952	3876.6
851.255	3878.6
856.552	3873.6
861.844	3871.6
867.13	3855.6
872.41	3831.6
877.686	3842.6
882.955	3811.6
888.219	3785.6
893.478	3728.6
898.731	3670.6
903.979	3614.6
909.221	3595.6
914.458	3554.6
919.69	3550.6
924.916	3568.6
930.136	3566.6
935.351	3564.6
940.561	3581.6
945.766	3568.6
950.965	3528.6
956.158	3503.6
961.347	3478.6
966.529	3428.6
971.707	3374.6
976.879	3327.6
982.046	3311.6
987.208	3318.6
992.364	3311.6
997.515	3312.6
1002.66	3340.6
1007.801	3381.6
1012.936	3401.6
1018.066	3407.6
1023.19	3409.6
1028.309	3396.6
1033.423	3409.6
1038.532	3397.6
1043.636	3371.6
1048.734	3343.6
1053.827	3287.6
1058.915	3246.6
1063.998	3243.6
1069.075	3218.6
1074.147	3214.6
1079.214	3205.6
1084.276	3248.6
1089.333	3266.6
1094.385	3257.6
1099.431	3262.6
1104.472	3265.6
1109.509	3216.6
1114.54	3179.6
1119.565	3145.6
1124.586	3112.6
1129.602	3083.6
1134.613	3047.6
1139.618	3028.6
1144.619	3022.6
1149.614	3022.6
1154.604	3033.6
1159.589	3042.6
1164.57	3054.6
1169.545	3049.6
1174.515	3058.6
1179.48	3028.6
1184.44	3029.6
1189.395	2961.6
1194.345	2966.6
1199.29	2943.6
1204.23	2916.6
1209.165	2936.6
1214.095	2963.6
1219.021	2971.6
1223.941	2997.6
1228.856	2991.6
1233.766	3009.6
1238.672	3009.6
1243.572	2994.6
1248.467	2986.6
1253.358	2922.6
1258.244	2903.6
1263.124	2866.6
1268	2818.6
1272.871	2788.6
1277.737	2765.6
1282.599	2752.6
1287.455	2738.6
1292.306	2758.6
1297.153	2779.6
1301.995	2798.6
1306.832	2796.6
1311.664	2814.6
1316.491	2820.6
1321.314	2800.6
1326.132	2796.6
1330.945	2767.6
1335.753	2718.6
1340.556	2644.6
1345.354	2622.6
1350.148	2573.6
1354.937	2538.6
1359.722	2471.6
1364.501	2452.6
1369.276	2427.6
1374.046	2359.6
1378.811	2366.6
1383.572	2347.6
1388.327	2335.6
1393.079	2362.6
1397.825	2352.6
1402.567	2349.6
1407.304	2344.6
1412.036	2344.6
1416.764	2362.6
1421.487	2341.6
1426.205	2352.6
1430.919	2354.6
1435.628	2378.6
1440.333	2389.6
1445.032	2409.6
1449.727	2438.6
1454.418	2455.6
1459.104	2455.6
1463.785	2397.6
1468.462	2371.6
1473.134	2330.6
1477.802	2266.6
1482.465	2220.6
1487.123	2151.6
1491.777	2130.6
1496.426	2103.6
1501.071	2079.6
1505.711	2090.6
1510.347	2068.6
1514.978	2066.6
1519.604	2051.6
1524.226	2058.6
1528.844	2056.6
1533.457	2031.6
1538.065	2039.6
1542.669	2049.6
1547.269	2031.6
1551.864	2019.6
1556.454	2033.6
1561.041	2074.6
1565.622	2060.6
1570.199	2102.6
1574.772	2095.6
1579.34	2138.6
1583.904	2140.6
1588.464	2171.6
1593.019	2198.6
1597.569	2173.6
1602.115	2179.6
1606.657	2165.6
1611.195	2174.6
1615.728	2166.6
1620.256	2173.6
1624.78	2158.6
1629.3	2176.6
1633.816	2173.6
1638.327	2189.6
1642.834	2181.6
1647.336	2188.6
1651.834	2188.6
1656.328	2185.6
1660.817	2187.6
1665.302	2147.6
1669.783	2120.6
1674.259	2052.6
1678.732	2015.6
1683.199	1947.6
1687.663	1887.6
1692.122	1810.6
1696.577	1753.6
1701.028	1655.6
1705.474	1608.6
1709.917	1563.6
1714.355	1526.6
1718.788	1525.6
1723.218	1509.6
1727.643	1535.6
1732.064	1495.6
1736.481	1517.6
1740.893	1488.6
1745.301	1441.6
1749.705	1403.6
1754.105	1386.6
1758.501	1355.6
1762.893	1355.6
1767.28	1333.6
1771.663	1309.6
1776.042	1305.6
1780.417	1286.6
1784.787	1282.6
1789.154	1248.6
1793.516	1244.6
1797.874	1233.6
1802.228	1207.6
1806.578	1174.6
1810.924	1170.6
1815.266	1168.6
1819.603	1191.6
1823.937	1172.6
1828.266	1174.6
1832.591	1169.6
1836.913	1167.6
1841.23	1165.6
1845.543	1182.6
1849.852	1171.6
1854.156	1166.6
1858.457	1180.6
1862.754	1174.6
1867.047	1190.6
1871.335	1168.6
1875.62	1177.6
1879.9	1175.6
1884.177	1144.6
1888.449	1140.6
1892.718	1130.6
1896.982	1124.6
1901.243	1092.6
1905.499	1059.6
1909.752	1067.6
1914	1043.6
1918.245	1038.6
1922.485	995.6
1926.722	1011.6
1930.954	986.6
1935.183	996.6
1939.408	996.6
1943.628	990.6
1947.845	983.6
1952.058	975.6
1956.267	952.6
1960.472	955.6
1964.673	945.6
1968.87	924.6
1973.063	934.6
1977.252	923.6
1981.438	921.6
1985.619	940.6
1989.797	941.6
1993.971	943.6
1998.14	941.6
2002.306	930.6
2006.469	958.6
2010.627	939.6
2014.781	970.6
2018.932	939.6
2023.078	958.6
2027.221	935.6
2031.36	929.6
2035.495	915.6
2039.627	895.6
2043.754	888.6
2047.878	882.6
2051.998	881.6
2056.114	869.6
2060.226	875.6
2064.334	856.6
2068.439	863.6
2072.54	854.6
2076.637	854.6
2080.73	844.6
2084.82	837.6
2088.906	822.6
2092.988	835.6
2097.066	814.6
2101.14	808.6
2105.211	792.6
2109.278	788.6
2113.342	779.6
2117.401	783.6
2121.457	768.6
2125.509	748.6
2129.558	760.6
2133.602	768.6
2137.643	759.6
2141.681	764.6
2145.714	756.6
2149.744	765.6
2153.77	754.6
2157.793	754.6
2161.812	753.6
2165.827	745.6
2169.838	732.6
2173.846	723.6
2177.851	715.6
2181.851	699.6
2185.848	702.6
2189.841	693.6
2193.831	688.6
2197.817	682.6
2201.799	672.6
2205.778	671.6
2209.753	671.6
2213.725	683.6
2217.693	689.6
2221.657	686.6
2225.618	672.6
2229.575	665.6
2233.529	662.6
2237.479	675.6
2241.425	650.6
2245.368	635.6
2249.307	637.6
2253.243	614.6
2257.175	617.6
2261.104	609.6
2265.029	601.6
2268.95	602.6
2272.868	589.6
2276.783	576.6
2280.694	567.6
2284.601	570.6
2288.505	563.6
2292.405	557.6
2296.302	563.6
2300.195	544.6
2304.085	537.6
2307.971	528.6
2311.854	525.6
2315.734	509.6
2319.609	506.6
2323.482	496.6
2327.351	488.6
2331.216	506.6
2335.078	522.6
2338.937	495.6
2342.792	487.6
2346.643	480.6
2350.492	488.6
2354.336	479.6
2358.178	487.6
2362.015	494.6
2365.85	487.6
2369.681	487.6
2373.508	489.6
2377.333	487.6
2381.153	480.6
2384.971	484.6
2388.785	482.6
2392.595	486.6
2396.402	475.6
2400.206	470.6
2404.007	473.6
2407.804	472.6
2411.597	452.6
2415.388	457.6
2419.174	449.6
2422.958	451.6
2426.738	452.6
2430.515	441.6
2434.289	453.6
2438.059	438.6
2441.825	431.6
2445.589	432.6
2449.349	430.6
2453.106	428.6
2456.859	417.6
2460.61	416.6
2464.356	413.6
2468.1	404.6
2471.84	396.6
2475.577	409.6
2479.311	386.6
2483.041	390.6
2486.768	390.6
2490.492	388.6
2494.213	380.6
2497.93	374.6
2501.644	366.6
2505.355	369.6
2509.062	360.6
2512.766	361.6
2516.467	358.6
2520.165	350.6
2523.859	358.6
2527.551	341.6
2531.239	338.6
2534.923	334.6
2538.605	324.6
2542.283	321.6
2545.958	318.6
2549.63	323.6
2553.299	311.6
2556.964	314.6
2560.626	314.6
2564.285	289.6
2567.941	298.6
2571.594	303.6
2575.243	288.6
2578.89	285.6
2582.533	281.6
2586.173	284.6
2589.809	274.6
2593.443	268.6
2597.073	274.6
2600.701	272.6
2604.325	262.6
2607.946	265.6
2611.564	265.6
2615.178	259.6
2618.79	253.6
2622.398	259.6
2626.004	259.6
2629.606	252.6
2633.205	250.6
2636.801	246.6
2640.394	246.6
2643.983	241.6
2647.57	244.6
2651.153	238.6
2654.734	234.6
2658.311	231.6
2661.885	230.6
2665.456	232.6
2669.025	233.6
2672.589	236.6
2676.151	224.6
2679.71	219.6
2683.266	213.6
2686.819	216.6
2690.368	211.6
2693.915	208.6
2697.458	201.6
2700.999	202.6
2704.536	200.6
2708.071	186.6
2711.602	183.6
2715.13	191.6
2718.656	185.6
2722.178	179.6
2725.697	182.6
2729.214	175.6
2732.727	184.6
2736.237	182.6
2739.744	173.6
2743.249	160.6
2746.75	152.6
2750.248	150.6
2753.743	154.6
2757.236	152.6
2760.725	147.6
2764.211	135.6
2767.695	140.6
2771.175	130.6
2774.652	135.6
2778.127	142.6
2781.598	132.6
2785.067	140.6
2788.532	138.6
2791.995	138.6
2795.455	141.6
2798.911	149.6
2802.365	151.6
2805.816	144.6
2809.264	141.6
2812.709	146.6
2816.151	143.6
2819.59	146.6
2823.026	144.6
2826.46	148.6
2829.89	141.6
2833.318	140.6
2836.742	151.6
2840.164	142.6
2843.583	156.6
2846.999	146.6
2850.412	156.6
2853.822	152.6
2857.229	149.6
2860.634	159.6
2864.035	163.6
2867.434	177.6
2870.83	177.6
2874.223	185.6
2877.613	196.6
2881	205.6
2884.385	202.6
2887.766	197.6
2891.145	206.6
2894.521	209.6
2897.894	209.6
2901.264	208.6
2904.631	211.6
2907.996	214.6
2911.358	220.6
2914.717	215.6
2918.073	222.6
2921.426	232.6
2924.777	239.6
2928.124	245.6
2931.469	243.6
2934.811	258.6
2938.15	268.6
2941.487	282.6
2944.821	272.6
2948.152	265.6
2951.48	274.6
2954.805	270.6
2958.128	266.6
2961.447	260.6
2964.765	255.6
2968.079	263.6
2971.39	254.6
2974.699	257.6
2978.005	245.6
2981.308	263.6
2984.609	258.6
2987.907	247.6
2991.202	263.6
2994.494	253.6
2997.784	272.6
3001.07	260.6
3004.355	274.6
3007.636	274.6
3010.915	277.6
3014.191	278.6
3017.464	282.6
3020.734	282.6
3024.002	289.6
3027.267	307.6
3030.53	307.6
3033.789	310.6
3037.046	320.6
3040.301	320.6
3043.552	344.6
3046.801	352.6
3050.048	360.6
3053.291	365.6
3056.532	373.6
3059.771	388.6
3063.006	405.6
3066.239	421.6
3069.469	440.6
3072.697	441.6
3075.922	443.6
3079.144	480.6
3082.364	479.6
3085.581	487.6
3088.795	486.6
3092.007	494.6
3095.216	507.6
3098.423	512.6
3101.627	536.6
3104.828	548.6
3108.026	560.6
3111.222	566.6
3114.416	584.6
3117.607	602.6
3120.795	601.6
3123.98	622.6
3127.163	651.6
3130.344	647.6
3133.521	663.6
3136.696	688.6
3139.869	681.6
3143.039	702.6
3146.206	704.6
3149.371	720.6
3152.533	737.6
3155.693	745.6
3158.85	746.6
3162.005	740.6
3165.157	741.6
3168.306	749.6
3171.453	743.6
3174.597	749.6
3177.739	768.6
3180.878	775.6
3184.014	779.6
3187.149	773.6
3190.28	786.6
3193.409	785.6
3196.536	779.6
3199.659	785.6
3202.781	800.6
3205.9	798.6
3209.016	802.6
3212.13	794.6
3215.241	778.6
3218.35	775.6
3221.456	774.6
3224.56	767.6
3227.661	743.6
3230.76	748.6
3233.856	737.6
3236.95	716.6
3240.041	701.6
3243.13	692.6
3246.216	689.6
3249.3	674.6
3252.382	686.6
3255.46	668.6
3258.537	652.6
3261.611	665.6
3264.682	644.6
3267.751	643.6
3270.818	632.6
3273.882	623.6
3276.943	630.6
3280.002	629.6
3283.059	632.6
3286.113	622.6
3289.165	612.6
3292.214	613.6
3295.261	600.6
3298.306	593.6
3301.348	594.6
3304.387	579.6
3307.425	579.6
3310.459	574.6
3313.492	561.6
3316.521	556.6
3319.549	551.6
3322.574	555.6
3325.597	548.6
3328.617	542.6
3331.635	540.6
3334.65	540.6
3337.663	545.6
3340.674	544.6
3343.682	548.6
3346.688	530.6
3349.691	537.6
3352.692	521.6
3355.691	524.6
3358.687	528.6
3361.681	523.6
3364.673	524.6
3367.662	502.6
3370.649	492.6
3373.633	478.6
3376.615	474.6
3379.595	464.6
3382.572	467.6
3385.547	465.6
3388.52	445.6
3391.49	436.6
3394.458	433.6
3397.424	425.6
3400.387	414.6
3403.348	421.6
3406.307	398.6
3409.263	401.6
3412.217	396.6
3415.168	406.6
3418.118	386.6
3421.065	374.6
3424.009	365.6
3426.951	360.6
3429.891	357.6
3432.829	341.6
3435.764	334.6
3438.697	326.6
3441.628	322.6
3444.557	312.6
3447.483	302.6
3450.407	284.6
3453.328	276.6
3456.247	267.6
3459.164	258.6
3462.079	245.6
3464.991	237.6
3467.902	229.6
3470.809	222.6
3473.715	209.6
3476.618	199.6
3479.519	197.6
3482.418	184.6
3485.315	169.6
3488.209	170.6
3491.101	162.6
3493.99	158.6
3496.878	144.6
3499.763	134.6
3502.646	129.6
3505.527	126.6
3508.405	103.6
3511.281	98.6
3514.155	95.6
3517.027	89.6
3519.897	79.6
3522.764	70.6
3525.629	64.6
3528.492	52.6
3531.352	47.6
3534.211	31.6
3537.067	31.6
3539.921	34.6
3542.773	22.6
3545.622	6.6
3548.469	8.6
3551.315	13.6
3554.157	-0.4
3556.998	-9.4
3559.837	-10.4
3562.673	-17.4
3565.507	-21.4
3568.339	-23.4
3571.169	-31.4
3573.996	-34.4
3576.822	-36.4
3579.645	-35.4
3582.466	-38.4
3585.285	-50.4
3588.101	-43.4
3590.916	-53.4
3593.728	-56.4
3596.538	-62.4
3599.346	-64.4
3602.152	-67.4
3604.956	-66.4
3607.757	-68.4
3610.556	-77.4
3613.354	-76.4
3616.149	-79.4
3618.942	-85.4
3621.732	-78.4
3624.521	-90.4
3627.307	-80.4
3630.092	-89.4
3632.874	-88.4
3635.654	-92.4
3638.432	-89.4
3641.208	-93.4
3643.982	-97.4
3646.753	-98.4
3649.523	-108.4
3652.29	-103.4
3655.055	-104.4
3657.818	-105.4
3660.579	-106.4
3663.338	-106.4
3666.095	-110.4
3668.849	-115.4
3671.602	-115.4
3674.352	-122.4
3677.101	-124.4
3679.847	-125.4
3682.591	-122.4
3685.333	-119.4
3688.073	-117.4
3690.811	-123.4
3693.547	-133.4
3696.281	-129.4
3699.013	-128.4
3701.742	-138.4
3704.47	-131.4
3707.195	-125.4
3709.919	-134.4
3712.64	-126.4
3715.359	-136.4
3718.076	-133.4
3720.792	-136.4
3723.505	-141.4
3726.216	-133.4
3728.925	-138.4
3731.632	-142.4
3734.336	-138.4
3737.039	-137.4
3739.74	-141.4
3742.439	-146.4
3745.136	-136.4
3747.83	-146.4
3750.523	-146.4
3753.213	-140.4
3755.902	-139.4
3758.589	-148.4
3761.273	-140.4
3763.956	-141.4
3766.636	-145.4
3769.315	-141.4
3771.991	-139.4
3774.665	-152.4
3777.338	-144.4
3780.008	-140.4
3782.677	-146.4
3785.343	-138.4
3788.007	-148.4
3790.67	-146.4
3793.33	-146.4
3795.989	-149.4
3798.645	-144.4
3801.299	-145.4
3803.952	-153.4
3806.602	-142.4
3809.251	-150.4
3811.897	-147.4
3814.542	-148.4
3817.184	-141.4
3819.825	-146.4
3822.463	-150.4
3825.1	-148.4
3827.735	-146.4
3830.367	-150.4
3832.998	-153.4
3835.627	-148.4
3838.253	-147.4
3840.878	-146.4
3843.501	-146.4
3846.122	-148.4
3848.741	-148.4
3851.358	-145.4
3853.973	-148.4
3856.586	-148.4
3859.197	-152.4
3861.806	-147.4
3864.414	-147.4
3867.019	-142.4
3869.622	-146.4
3872.224	-134.4
3874.823	-129.4
3877.421	-119.4
3880.016	-98.4
3882.61	-79.4
3885.202	-74.4
3887.792	-94.4
3890.38	-114.4
3892.966	-139.4
3895.55	-141.4
3898.132	-148.4
3900.713	-147.4
3903.291	-154.4
3905.868	-151.4
3908.442	-150.4
3911.015	-151.4
3913.586	-158.4
3916.155	-151.4
3918.722	-153.4
3921.287	-153.4
3923.85	-153.4
3926.411	-156.4
3928.971	-155.4
3931.528	-150.4
3934.084	-149.4
3936.638	-151.4
3939.19	-154.4
3941.74	-152.4
3944.288	-153.4
3946.834	-150.4
3949.378	-155.4
3951.921	-151.4
3954.462	-164.4
3957	-153.4
3959.537	-150.4
3962.072	-151.4
3964.606	-144.4
3967.137	-151.4
3969.667	-150.4
3972.194	-156.4
3974.72	-150.4
3977.244	-152.4
3979.766	-153.4
3982.286	-147.4
3984.805	-152.4
3987.321	-147.4
3989.836	-143.4
3992.349	-152.4
3994.86	-151.4
3997.369	-150.4
3999.877	-152.4
4002.382	-146.4
4004.886	-153.4
4007.388	-152.4
4009.888	-147.4
4012.386	-152.4
4014.883	-147.4
4017.377	-151.4
4019.87	-149.4
4022.361	-152.4
4024.85	-149.4
4027.338	-148.4
4029.823	-145.4
4032.307	-150.4
4034.789	-153.4
4037.269	-151.4
4039.747	-148.4
4042.224	-150.4
4044.699	-154.4
4047.172	-141.4
4049.643	-144.4
4052.112	-145.4
4054.58	-152.4
4057.046	-154.4
4059.51	-150.4
4061.972	-145.4
4064.432	-151.4
4066.891	-148.4
4069.348	-144.4
4071.803	-154.4
4074.256	-153.4
4076.708	-149.4
4079.158	-151.4
4081.606	-148.4
4084.052	-152.4
4086.497	-148.4
4088.939	-141.4
4091.38	-147.4
4093.819	-150.4
4096.257	-160.4
4098.693	-154.4
4101.127	-153.4
4103.559	-155.4
4105.989	-24.4
4108.418	-18.4
4110.845	-19.4
4113.27	-20.4
4115.694	-15.4
4118.115	-16.4
4120.535	-153.4
4122.954	-154.4
4125.37	-150.4
4127.785	-154.4
4130.198	-148.4
4132.609	-151.4
4135.019	-156.4
4137.427	-155.4
4139.833	-161.4
4142.237	-158.4
