Data from 2018-2-8_conc=3_n=8_RamanShift_03.txt Node
Date: Mon Mar 12 14:53:28 IST 2018
User: aro
Spectrometer: QEPB0276
Trigger mode: 0
Integration Time (sec): 3.000000E1
Scans to average: 1
Electric dark correction enabled: true
Nonlinearity correction enabled: false
Boxcar width: 0
XAxis mode: Raman Shifts
Number of Pixels in Spectrum: 1044
>>>>>Begin Spectral Data<<<<<
160.701	6.2
166.742	39.2
172.777	123.2
178.805	392.2
184.826	1059.2
190.841	2272.2
196.849	3834.2
202.85	5021.2
208.845	5515.2
214.833	5525.2
220.815	5421.2
226.789	5387.2
232.758	5394.2
238.719	5378.2
244.674	5334.2
250.623	5315.2
256.565	5175.2
262.5	5111.2
268.429	5034.2
274.351	4959.2
280.267	4922.2
286.176	4910.2
292.079	4884.2
297.975	4849.2
303.865	4813.2
309.748	4835.2
315.625	4788.2
321.495	4822.2
327.359	4768.2
333.217	4775.2
339.068	4772.2
344.912	4808.2
350.751	4763.2
356.583	4760.2
362.408	4783.2
368.227	4781.2
374.04	4796.2
379.847	4834.2
385.647	4858.2
391.44	4859.2
397.228	4904.2
403.009	4908.2
408.784	4926.2
414.553	4902.2
420.315	4982.2
426.071	4972.2
431.821	4956.2
437.565	4972.2
443.302	4991.2
449.033	4929.2
454.758	4911.2
460.477	4892.2
466.189	4868.2
471.896	4837.2
477.596	4805.2
483.29	4785.2
488.978	4807.2
494.66	4788.2
500.335	4698.2
506.005	4628.2
511.668	4485.2
517.325	4355.2
522.977	4287.2
528.622	4162.2
534.261	4129.2
539.894	4094.2
545.521	4046.2
551.141	4023.2
556.756	3973.2
562.365	3954.2
567.968	3952.2
573.565	3932.2
579.155	3898.2
584.74	3891.2
590.319	3858.2
595.892	3854.2
601.459	3837.2
607.02	3838.2
612.575	3819.2
618.124	3767.2
623.667	3752.2
629.204	3725.2
634.735	3703.2
640.261	3631.2
645.781	3643.2
651.294	3634.2
656.802	3640.2
662.304	3618.2
667.8	3606.2
673.29	3588.2
678.775	3590.2
684.254	3575.2
689.726	3568.2
695.193	3526.2
700.655	3550.2
706.11	3507.2
711.56	3495.2
717.004	3464.2
722.442	3448.2
727.874	3448.2
733.301	3429.2
738.722	3409.2
744.137	3402.2
749.547	3373.2
754.951	3384.2
760.349	3386.2
765.741	3381.2
771.128	3412.2
776.509	3429.2
781.885	3451.2
787.254	3440.2
792.618	3457.2
797.977	3432.2
803.33	3408.2
808.677	3387.2
814.019	3345.2
819.355	3331.2
824.686	3300.2
830.011	3301.2
835.33	3300.2
840.644	3291.2
845.952	3283.2
851.255	3275.2
856.552	3279.2
861.844	3250.2
867.13	3210.2
872.41	3213.2
877.686	3190.2
882.955	3178.2
888.219	3154.2
893.478	3088.2
898.731	3074.2
903.979	3000.2
909.221	3008.2
914.458	3000.2
919.69	2989.2
924.916	2992.2
930.136	3015.2
935.351	3001.2
940.561	3029.2
945.766	3012.2
950.965	2997.2
956.158	2965.2
961.347	2944.2
966.529	2890.2
971.707	2881.2
976.879	2809.2
982.046	2816.2
987.208	2784.2
992.364	2781.2
997.515	2804.2
1002.66	2807.2
1007.801	2832.2
1012.936	2861.2
1018.066	2877.2
1023.19	2866.2
1028.309	2899.2
1033.423	2880.2
1038.532	2844.2
1043.636	2824.2
1048.734	2791.2
1053.827	2781.2
1058.915	2736.2
1063.998	2693.2
1069.075	2697.2
1074.147	2716.2
1079.214	2704.2
1084.276	2721.2
1089.333	2739.2
1094.385	2754.2
1099.431	2767.2
1104.472	2728.2
1109.509	2711.2
1114.54	2705.2
1119.565	2661.2
1124.586	2628.2
1129.602	2575.2
1134.613	2573.2
1139.618	2551.2
1144.619	2586.2
1149.614	2550.2
1154.604	2563.2
1159.589	2578.2
1164.57	2580.2
1169.545	2572.2
1174.515	2573.2
1179.48	2570.2
1184.44	2545.2
1189.395	2523.2
1194.345	2504.2
1199.29	2496.2
1204.23	2487.2
1209.165	2492.2
1214.095	2505.2
1219.021	2524.2
1223.941	2524.2
1228.856	2536.2
1233.766	2541.2
1238.672	2539.2
1243.572	2541.2
1248.467	2525.2
1253.358	2492.2
1258.244	2484.2
1263.124	2428.2
1268	2377.2
1272.871	2366.2
1277.737	2332.2
1282.599	2321.2
1287.455	2333.2
1292.306	2331.2
1297.153	2356.2
1301.995	2366.2
1306.832	2384.2
1311.664	2387.2
1316.491	2399.2
1321.314	2386.2
1326.132	2373.2
1330.945	2352.2
1335.753	2315.2
1340.556	2277.2
1345.354	2223.2
1350.148	2201.2
1354.937	2168.2
1359.722	2129.2
1364.501	2090.2
1369.276	2068.2
1374.046	2019.2
1378.811	2003.2
1383.572	1977.2
1388.327	1969.2
1393.079	1984.2
1397.825	1988.2
1402.567	1979.2
1407.304	1985.2
1412.036	1980.2
1416.764	2014.2
1421.487	1999.2
1426.205	2025.2
1430.919	2022.2
1435.628	2015.2
1440.333	2037.2
1445.032	2059.2
1449.727	2094.2
1454.418	2071.2
1459.104	2100.2
1463.785	2046.2
1468.462	2020.2
1473.134	1970.2
1477.802	1931.2
1482.465	1888.2
1487.123	1845.2
1491.777	1826.2
1496.426	1817.2
1501.071	1782.2
1505.711	1802.2
1510.347	1776.2
1514.978	1773.2
1519.604	1780.2
1524.226	1764.2
1528.844	1769.2
1533.457	1728.2
1538.065	1739.2
1542.669	1741.2
1547.269	1722.2
1551.864	1712.2
1556.454	1749.2
1561.041	1755.2
1565.622	1789.2
1570.199	1771.2
1574.772	1792.2
1579.34	1830.2
1583.904	1833.2
1588.464	1866.2
1593.019	1873.2
1597.569	1867.2
1602.115	1876.2
1606.657	1865.2
1611.195	1870.2
1615.728	1829.2
1620.256	1852.2
1624.78	1864.2
1629.3	1861.2
1633.816	1870.2
1638.327	1861.2
1642.834	1879.2
1647.336	1887.2
1651.834	1889.2
1656.328	1890.2
1660.817	1890.2
1665.302	1868.2
1669.783	1826.2
1674.259	1814.2
1678.732	1755.2
1683.199	1698.2
1687.663	1666.2
1692.122	1598.2
1696.577	1534.2
1701.028	1465.2
1705.474	1417.2
1709.917	1362.2
1714.355	1333.2
1718.788	1311.2
1723.218	1315.2
1727.643	1332.2
1732.064	1318.2
1736.481	1310.2
1740.893	1285.2
1745.301	1256.2
1749.705	1232.2
1754.105	1203.2
1758.501	1192.2
1762.893	1156.2
1767.28	1156.2
1771.663	1140.2
1776.042	1137.2
1780.417	1111.2
1784.787	1100.2
1789.154	1081.2
1793.516	1084.2
1797.874	1062.2
1802.228	1044.2
1806.578	1033.2
1810.924	1032.2
1815.266	1012.2
1819.603	1030.2
1823.937	1009.2
1828.266	1010.2
1832.591	1026.2
1836.913	999.2
1841.23	1019.2
1845.543	1019.2
1849.852	1011.2
1854.156	1019.2
1858.457	1028.2
1862.754	1029.2
1867.047	1008.2
1871.335	1021.2
1875.62	1020.2
1879.9	1026.2
1884.177	1011.2
1888.449	997.2
1892.718	984.2
1896.982	984.2
1901.243	966.2
1905.499	941.2
1909.752	945.2
1914	920.2
1918.245	926.2
1922.485	908.2
1926.722	898.2
1930.954	900.2
1935.183	897.2
1939.408	883.2
1943.628	890.2
1947.845	855.2
1952.058	863.2
1956.267	851.2
1960.472	837.2
1964.673	829.2
1968.87	833.2
1973.063	825.2
1977.252	819.2
1981.438	833.2
1985.619	818.2
1989.797	812.2
1993.971	808.2
1998.14	830.2
2002.306	832.2
2006.469	819.2
2010.627	829.2
2014.781	824.2
2018.932	833.2
2023.078	828.2
2027.221	821.2
2031.36	826.2
2035.495	801.2
2039.627	790.2
2043.754	784.2
2047.878	774.2
2051.998	771.2
2056.114	781.2
2060.226	760.2
2064.334	761.2
2068.439	765.2
2072.54	764.2
2076.637	766.2
2080.73	757.2
2084.82	747.2
2088.906	744.2
2092.988	729.2
2097.066	736.2
2101.14	729.2
2105.211	715.2
2109.278	705.2
2113.342	687.2
2117.401	681.2
2121.457	682.2
2125.509	677.2
2129.558	678.2
2133.602	687.2
2137.643	686.2
2141.681	672.2
2145.714	668.2
2149.744	676.2
2153.77	673.2
2157.793	669.2
2161.812	655.2
2165.827	658.2
2169.838	657.2
2173.846	639.2
2177.851	617.2
2181.851	622.2
2185.848	615.2
2189.841	619.2
2193.831	603.2
2197.817	609.2
2201.799	600.2
2205.778	596.2
2209.753	592.2
2213.725	595.2
2217.693	589.2
2221.657	610.2
2225.618	593.2
2229.575	590.2
2233.529	584.2
2237.479	574.2
2241.425	581.2
2245.368	552.2
2249.307	553.2
2253.243	548.2
2257.175	537.2
2261.104	534.2
2265.029	513.2
2268.95	518.2
2272.868	512.2
2276.783	506.2
2280.694	493.2
2284.601	485.2
2288.505	497.2
2292.405	487.2
2296.302	477.2
2300.195	466.2
2304.085	455.2
2307.971	457.2
2311.854	458.2
2315.734	439.2
2319.609	428.2
2323.482	447.2
2327.351	441.2
2331.216	455.2
2335.078	467.2
2338.937	441.2
2342.792	420.2
2346.643	416.2
2350.492	422.2
2354.336	424.2
2358.178	427.2
2362.015	418.2
2365.85	424.2
2369.681	420.2
2373.508	432.2
2377.333	428.2
2381.153	427.2
2384.971	429.2
2388.785	429.2
2392.595	414.2
2396.402	418.2
2400.206	414.2
2404.007	407.2
2407.804	406.2
2411.597	408.2
2415.388	398.2
2419.174	397.2
2422.958	398.2
2426.738	396.2
2430.515	397.2
2434.289	399.2
2438.059	378.2
2441.825	385.2
2445.589	384.2
2449.349	373.2
2453.106	372.2
2456.859	372.2
2460.61	367.2
2464.356	361.2
2468.1	363.2
2471.84	346.2
2475.577	352.2
2479.311	342.2
2483.041	350.2
2486.768	347.2
2490.492	341.2
2494.213	335.2
2497.93	348.2
2501.644	340.2
2505.355	324.2
2509.062	329.2
2512.766	321.2
2516.467	319.2
2520.165	319.2
2523.859	311.2
2527.551	313.2
2531.239	297.2
2534.923	296.2
2538.605	291.2
2542.283	287.2
2545.958	285.2
2549.63	289.2
2553.299	286.2
2556.964	289.2
2560.626	277.2
2564.285	275.2
2567.941	276.2
2571.594	271.2
2575.243	270.2
2578.89	261.2
2582.533	254.2
2586.173	251.2
2589.809	245.2
2593.443	253.2
2597.073	248.2
2600.701	245.2
2604.325	237.2
2607.946	234.2
2611.564	231.2
2615.178	240.2
2618.79	228.2
2622.398	225.2
2626.004	234.2
2629.606	222.2
2633.205	229.2
2636.801	222.2
2640.394	226.2
2643.983	218.2
2647.57	222.2
2651.153	217.2
2654.734	215.2
2658.311	203.2
2661.885	210.2
2665.456	203.2
2669.025	205.2
2672.589	200.2
2676.151	203.2
2679.71	191.2
2683.266	183.2
2686.819	203.2
2690.368	198.2
2693.915	175.2
2697.458	184.2
2700.999	177.2
2704.536	173.2
2708.071	172.2
2711.602	174.2
2715.13	170.2
2718.656	161.2
2722.178	164.2
2725.697	164.2
2729.214	149.2
2732.727	162.2
2736.237	155.2
2739.744	144.2
2743.249	151.2
2746.75	152.2
2750.248	148.2
2753.743	143.2
2757.236	135.2
2760.725	140.2
2764.211	126.2
2767.695	132.2
2771.175	128.2
2774.652	121.2
2778.127	129.2
2781.598	127.2
2785.067	137.2
2788.532	120.2
2791.995	125.2
2795.455	128.2
2798.911	136.2
2802.365	135.2
2805.816	134.2
2809.264	135.2
2812.709	143.2
2816.151	131.2
2819.59	136.2
2823.026	125.2
2826.46	129.2
2829.89	137.2
2833.318	124.2
2836.742	141.2
2840.164	133.2
2843.583	129.2
2846.999	135.2
2850.412	135.2
2853.822	141.2
2857.229	138.2
2860.634	144.2
2864.035	153.2
2867.434	146.2
2870.83	161.2
2874.223	168.2
2877.613	162.2
2881	174.2
2884.385	180.2
2887.766	175.2
2891.145	166.2
2894.521	180.2
2897.894	175.2
2901.264	184.2
2904.631	171.2
2907.996	176.2
2911.358	173.2
2914.717	193.2
2918.073	187.2
2921.426	194.2
2924.777	202.2
2928.124	199.2
2931.469	208.2
2934.811	211.2
2938.15	218.2
2941.487	226.2
2944.821	226.2
2948.152	239.2
2951.48	223.2
2954.805	225.2
2958.128	227.2
2961.447	216.2
2964.765	223.2
2968.079	210.2
2971.39	219.2
2974.699	224.2
2978.005	222.2
2981.308	223.2
2984.609	227.2
2987.907	216.2
2991.202	224.2
2994.494	232.2
2997.784	238.2
3001.07	242.2
3004.355	248.2
3007.636	246.2
3010.915	241.2
3014.191	246.2
3017.464	261.2
3020.734	247.2
3024.002	256.2
3027.267	264.2
3030.53	270.2
3033.789	279.2
3037.046	283.2
3040.301	281.2
3043.552	311.2
3046.801	308.2
3050.048	310.2
3053.291	321.2
3056.532	337.2
3059.771	349.2
3063.006	361.2
3066.239	374.2
3069.469	391.2
3072.697	390.2
3075.922	393.2
3079.144	416.2
3082.364	434.2
3085.581	427.2
3088.795	437.2
3092.007	441.2
3095.216	455.2
3098.423	467.2
3101.627	494.2
3104.828	497.2
3108.026	493.2
3111.222	501.2
3114.416	521.2
3117.607	526.2
3120.795	542.2
3123.98	549.2
3127.163	567.2
3130.344	586.2
3133.521	594.2
3136.696	603.2
3139.869	617.2
3143.039	629.2
3146.206	633.2
3149.371	642.2
3152.533	656.2
3155.693	656.2
3158.85	674.2
3162.005	674.2
3165.157	665.2
3168.306	667.2
3171.453	691.2
3174.597	686.2
3177.739	676.2
3180.878	689.2
3184.014	700.2
3187.149	685.2
3190.28	697.2
3193.409	693.2
3196.536	705.2
3199.659	703.2
3202.781	707.2
3205.9	715.2
3209.016	700.2
3212.13	708.2
3215.241	694.2
3218.35	696.2
3221.456	684.2
3224.56	677.2
3227.661	673.2
3230.76	662.2
3233.856	639.2
3236.95	640.2
3240.041	644.2
3243.13	625.2
3246.216	615.2
3249.3	611.2
3252.382	599.2
3255.46	594.2
3258.537	595.2
3261.611	596.2
3264.682	585.2
3267.751	579.2
3270.818	576.2
3273.882	567.2
3276.943	566.2
3280.002	556.2
3283.059	567.2
3286.113	566.2
3289.165	549.2
3292.214	549.2
3295.261	530.2
3298.306	532.2
3301.348	526.2
3304.387	522.2
3307.425	508.2
3310.459	491.2
3313.492	503.2
3316.521	487.2
3319.549	495.2
3322.574	491.2
3325.597	489.2
3328.617	489.2
3331.635	497.2
3334.65	486.2
3337.663	466.2
3340.674	492.2
3343.682	495.2
3346.688	473.2
3349.691	483.2
3352.692	462.2
3355.691	469.2
3358.687	469.2
3361.681	468.2
3364.673	467.2
3367.662	450.2
3370.649	446.2
3373.633	431.2
3376.615	429.2
3379.595	426.2
3382.572	422.2
3385.547	410.2
3388.52	403.2
3391.49	405.2
3394.458	383.2
3397.424	379.2
3400.387	374.2
3403.348	383.2
3406.307	370.2
3409.263	359.2
3412.217	357.2
3415.168	349.2
3418.118	352.2
3421.065	338.2
3424.009	342.2
3426.951	344.2
3429.891	331.2
3432.829	312.2
3435.764	306.2
3438.697	305.2
3441.628	293.2
3444.557	275.2
3447.483	275.2
3450.407	259.2
3453.328	256.2
3456.247	251.2
3459.164	230.2
3462.079	220.2
3464.991	214.2
3467.902	200.2
3470.809	203.2
3473.715	179.2
3476.618	177.2
3479.519	176.2
3482.418	168.2
3485.315	151.2
3488.209	153.2
3491.101	143.2
3493.99	144.2
3496.878	140.2
3499.763	121.2
3502.646	115.2
3505.527	111.2
3508.405	106.2
3511.281	97.2
3514.155	95.2
3517.027	82.2
3519.897	73.2
3522.764	62.2
3525.629	54.2
3528.492	49.2
3531.352	40.2
3534.211	32.2
3537.067	34.2
3539.921	33.2
3542.773	26.2
3545.622	12.2
3548.469	10.2
3551.315	5.2
3554.157	-2.8
3556.998	-4.8
3559.837	-4.8
3562.673	-13.8
3565.507	-11.8
3568.339	-14.8
3571.169	-31.8
3573.996	-23.8
3576.822	-28.8
3579.645	-34.8
3582.466	-27.8
3585.285	-40.8
3588.101	-30.8
3590.916	-43.8
3593.728	-52.8
3596.538	-57.8
3599.346	-59.8
3602.152	-53.8
3604.956	-55.8
3607.757	-55.8
3610.556	-62.8
3613.354	-62.8
3616.149	-73.8
3618.942	-75.8
3621.732	-77.8
3624.521	-77.8
3627.307	-77.8
3630.092	-80.8
3632.874	-72.8
3635.654	-83.8
3638.432	-82.8
3641.208	-88.8
3643.982	-93.8
3646.753	-85.8
3649.523	-89.8
3652.29	-86.8
3655.055	-93.8
3657.818	-89.8
3660.579	-98.8
3663.338	-98.8
3666.095	-103.8
3668.849	-98.8
3671.602	-102.8
3674.352	-97.8
3677.101	-105.8
3679.847	-111.8
3682.591	-114.8
3685.333	-111.8
3688.073	-105.8
3690.811	-107.8
3693.547	-119.8
3696.281	-114.8
3699.013	-109.8
3701.742	-121.8
3704.47	-119.8
3707.195	-116.8
3709.919	-118.8
3712.64	-117.8
3715.359	-117.8
3718.076	-117.8
3720.792	-119.8
3723.505	-123.8
3726.216	-119.8
3728.925	-123.8
3731.632	-119.8
3734.336	-131.8
3737.039	-120.8
3739.74	-126.8
3742.439	-128.8
3745.136	-125.8
3747.83	-133.8
3750.523	-128.8
3753.213	-127.8
3755.902	-125.8
3758.589	-128.8
3761.273	-121.8
3763.956	-121.8
3766.636	-129.8
3769.315	-126.8
3771.991	-131.8
3774.665	-134.8
3777.338	-129.8
3780.008	-119.8
3782.677	-131.8
3785.343	-134.8
3788.007	-129.8
3790.67	-131.8
3793.33	-126.8
3795.989	-128.8
3798.645	-130.8
3801.299	-128.8
3803.952	-133.8
3806.602	-124.8
3809.251	-134.8
3811.897	-139.8
3814.542	-136.8
3817.184	-125.8
3819.825	-131.8
3822.463	-127.8
3825.1	-130.8
3827.735	-124.8
3830.367	-133.8
3832.998	-137.8
3835.627	-133.8
3838.253	-133.8
3840.878	-128.8
3843.501	-128.8
3846.122	-131.8
3848.741	-133.8
3851.358	-129.8
3853.973	-136.8
3856.586	-131.8
3859.197	-138.8
3861.806	-131.8
3864.414	-136.8
3867.019	-126.8
3869.622	-128.8
3872.224	-120.8
3874.823	-117.8
3877.421	-113.8
3880.016	-90.8
3882.61	-73.8
3885.202	-70.8
3887.792	-82.8
3890.38	-97.8
3892.966	-123.8
3895.55	-129.8
3898.132	-134.8
3900.713	-131.8
3903.291	-139.8
3905.868	-134.8
3908.442	-127.8
3911.015	-135.8
3913.586	-132.8
3916.155	-137.8
3918.722	-135.8
3921.287	-139.8
3923.85	-134.8
3926.411	-138.8
3928.971	-135.8
3931.528	-136.8
3934.084	-133.8
3936.638	-126.8
3939.19	-137.8
3941.74	-140.8
3944.288	-138.8
3946.834	-129.8
3949.378	-137.8
3951.921	-130.8
3954.462	-140.8
3957	-133.8
3959.537	-131.8
3962.072	-138.8
3964.606	-133.8
3967.137	-137.8
3969.667	-140.8
3972.194	-139.8
3974.72	-133.8
3977.244	-139.8
3979.766	-132.8
3982.286	-132.8
3984.805	-134.8
3987.321	-135.8
3989.836	-125.8
3992.349	-133.8
3994.86	-139.8
3997.369	-130.8
3999.877	-133.8
4002.382	-128.8
4004.886	-135.8
4007.388	-132.8
4009.888	-133.8
4012.386	-136.8
4014.883	-130.8
4017.377	-129.8
4019.87	-130.8
4022.361	-133.8
4024.85	-135.8
4027.338	-131.8
4029.823	-132.8
4032.307	-131.8
4034.789	-132.8
4037.269	-134.8
4039.747	-130.8
4042.224	-130.8
4044.699	-137.8
4047.172	-135.8
4049.643	-134.8
4052.112	-133.8
4054.58	-136.8
4057.046	-133.8
4059.51	-133.8
4061.972	-129.8
4064.432	-133.8
4066.891	-134.8
4069.348	-132.8
4071.803	-140.8
4074.256	-133.8
4076.708	-127.8
4079.158	-131.8
4081.606	-125.8
4084.052	-136.8
4086.497	-131.8
4088.939	-129.8
4091.38	-129.8
4093.819	-131.8
4096.257	-141.8
4098.693	-140.8
4101.127	-142.8
4103.559	-139.8
4105.989	-19.8
4108.418	-17.8
4110.845	-14.8
4113.27	-16.8
4115.694	-25.8
4118.115	-14.8
4120.535	-135.8
4122.954	-134.8
4125.37	-133.8
4127.785	-136.8
4130.198	-135.8
4132.609	-133.8
4135.019	-140.8
4137.427	-143.8
4139.833	-137.8
4142.237	-138.8
