Data from 2018-2-8_conc=3_n=10_RamanShift_02.txt Node
Date: Mon Mar 12 14:59:28 IST 2018
User: aro
Spectrometer: QEPB0276
Trigger mode: 0
Integration Time (sec): 3.000000E1
Scans to average: 1
Electric dark correction enabled: true
Nonlinearity correction enabled: false
Boxcar width: 0
XAxis mode: Raman Shifts
Number of Pixels in Spectrum: 1044
>>>>>Begin Spectral Data<<<<<
160.701	26.1
166.742	50.1
172.777	137.1
178.805	397.1
184.826	1068.1
190.841	2299.1
196.849	3826.1
202.85	5034.1
208.845	5510.1
214.833	5495.1
220.815	5400.1
226.789	5434.1
232.758	5446.1
238.719	5403.1
244.674	5379.1
250.623	5320.1
256.565	5224.1
262.5	5159.1
268.429	5120.1
274.351	5051.1
280.267	5034.1
286.176	4967.1
292.079	4972.1
297.975	4953.1
303.865	4953.1
309.748	4912.1
315.625	4901.1
321.495	4900.1
327.359	4871.1
333.217	4907.1
339.068	4902.1
344.912	4889.1
350.751	4871.1
356.583	4918.1
362.408	4920.1
368.227	4911.1
374.04	4949.1
379.847	4982.1
385.647	4967.1
391.44	5021.1
397.228	5015.1
403.009	5035.1
408.784	5055.1
414.553	5066.1
420.315	5118.1
426.071	5145.1
431.821	5097.1
437.565	5121.1
443.302	5091.1
449.033	5088.1
454.758	5073.1
460.477	5041.1
466.189	5010.1
471.896	4999.1
477.596	4956.1
483.29	4919.1
488.978	4936.1
494.66	4870.1
500.335	4845.1
506.005	4694.1
511.668	4553.1
517.325	4422.1
522.977	4325.1
528.622	4226.1
534.261	4143.1
539.894	4102.1
545.521	4059.1
551.141	4051.1
556.756	3990.1
562.365	3987.1
567.968	3987.1
573.565	3935.1
579.155	3898.1
584.74	3916.1
590.319	3875.1
595.892	3886.1
601.459	3836.1
607.02	3845.1
612.575	3836.1
618.124	3793.1
623.667	3767.1
629.204	3739.1
634.735	3686.1
640.261	3651.1
645.781	3672.1
651.294	3640.1
656.802	3629.1
662.304	3623.1
667.8	3616.1
673.29	3605.1
678.775	3595.1
684.254	3586.1
689.726	3552.1
695.193	3546.1
700.655	3547.1
706.11	3503.1
711.56	3508.1
717.004	3481.1
722.442	3458.1
727.874	3450.1
733.301	3434.1
738.722	3439.1
744.137	3414.1
749.547	3390.1
754.951	3405.1
760.349	3392.1
765.741	3385.1
771.128	3417.1
776.509	3428.1
781.885	3464.1
787.254	3444.1
792.618	3447.1
797.977	3432.1
803.33	3437.1
808.677	3401.1
814.019	3388.1
819.355	3352.1
824.686	3334.1
830.011	3312.1
835.33	3294.1
840.644	3293.1
845.952	3288.1
851.255	3273.1
856.552	3293.1
861.844	3241.1
867.13	3238.1
872.41	3219.1
877.686	3183.1
882.955	3128.1
888.219	3132.1
893.478	3106.1
898.731	3046.1
903.979	3003.1
909.221	2995.1
914.458	2978.1
919.69	2961.1
924.916	2985.1
930.136	2985.1
935.351	3009.1
940.561	2982.1
945.766	3000.1
950.965	3000.1
956.158	2955.1
961.347	2926.1
966.529	2903.1
971.707	2846.1
976.879	2809.1
982.046	2790.1
987.208	2758.1
992.364	2781.1
997.515	2764.1
1002.66	2813.1
1007.801	2823.1
1012.936	2845.1
1018.066	2864.1
1023.19	2853.1
1028.309	2843.1
1033.423	2844.1
1038.532	2832.1
1043.636	2839.1
1048.734	2790.1
1053.827	2774.1
1058.915	2720.1
1063.998	2725.1
1069.075	2712.1
1074.147	2684.1
1079.214	2679.1
1084.276	2702.1
1089.333	2754.1
1094.385	2732.1
1099.431	2744.1
1104.472	2746.1
1109.509	2709.1
1114.54	2675.1
1119.565	2646.1
1124.586	2603.1
1129.602	2572.1
1134.613	2568.1
1139.618	2544.1
1144.619	2536.1
1149.614	2530.1
1154.604	2544.1
1159.589	2548.1
1164.57	2540.1
1169.545	2575.1
1174.515	2565.1
1179.48	2560.1
1184.44	2521.1
1189.395	2512.1
1194.345	2487.1
1199.29	2480.1
1204.23	2456.1
1209.165	2486.1
1214.095	2487.1
1219.021	2478.1
1223.941	2507.1
1228.856	2531.1
1233.766	2538.1
1238.672	2534.1
1243.572	2517.1
1248.467	2518.1
1253.358	2482.1
1258.244	2426.1
1263.124	2415.1
1268	2352.1
1272.871	2358.1
1277.737	2332.1
1282.599	2291.1
1287.455	2326.1
1292.306	2329.1
1297.153	2321.1
1301.995	2349.1
1306.832	2360.1
1311.664	2369.1
1316.491	2341.1
1321.314	2343.1
1326.132	2338.1
1330.945	2310.1
1335.753	2271.1
1340.556	2271.1
1345.354	2223.1
1350.148	2181.1
1354.937	2148.1
1359.722	2120.1
1364.501	2103.1
1369.276	2027.1
1374.046	2021.1
1378.811	2005.1
1383.572	1982.1
1388.327	1985.1
1393.079	1962.1
1397.825	1981.1
1402.567	1994.1
1407.304	1978.1
1412.036	2018.1
1416.764	1984.1
1421.487	1994.1
1426.205	1997.1
1430.919	2012.1
1435.628	1991.1
1440.333	2026.1
1445.032	2045.1
1449.727	2076.1
1454.418	2041.1
1459.104	2054.1
1463.785	2012.1
1468.462	2009.1
1473.134	1954.1
1477.802	1925.1
1482.465	1863.1
1487.123	1839.1
1491.777	1819.1
1496.426	1800.1
1501.071	1762.1
1505.711	1766.1
1510.347	1769.1
1514.978	1770.1
1519.604	1772.1
1524.226	1760.1
1528.844	1743.1
1533.457	1746.1
1538.065	1738.1
1542.669	1728.1
1547.269	1749.1
1551.864	1735.1
1556.454	1766.1
1561.041	1769.1
1565.622	1756.1
1570.199	1772.1
1574.772	1799.1
1579.34	1820.1
1583.904	1836.1
1588.464	1855.1
1593.019	1854.1
1597.569	1851.1
1602.115	1861.1
1606.657	1836.1
1611.195	1867.1
1615.728	1850.1
1620.256	1861.1
1624.78	1828.1
1629.3	1844.1
1633.816	1843.1
1638.327	1868.1
1642.834	1866.1
1647.336	1875.1
1651.834	1874.1
1656.328	1867.1
1660.817	1878.1
1665.302	1863.1
1669.783	1821.1
1674.259	1795.1
1678.732	1749.1
1683.199	1683.1
1687.663	1634.1
1692.122	1580.1
1696.577	1533.1
1701.028	1468.1
1705.474	1408.1
1709.917	1365.1
1714.355	1338.1
1718.788	1318.1
1723.218	1329.1
1727.643	1318.1
1732.064	1325.1
1736.481	1285.1
1740.893	1263.1
1745.301	1235.1
1749.705	1218.1
1754.105	1208.1
1758.501	1181.1
1762.893	1160.1
1767.28	1145.1
1771.663	1141.1
1776.042	1126.1
1780.417	1114.1
1784.787	1101.1
1789.154	1109.1
1793.516	1100.1
1797.874	1058.1
1802.228	1060.1
1806.578	1052.1
1810.924	1040.1
1815.266	1029.1
1819.603	1021.1
1823.937	1020.1
1828.266	1011.1
1832.591	1017.1
1836.913	1023.1
1841.23	1033.1
1845.543	1020.1
1849.852	1015.1
1854.156	1009.1
1858.457	1033.1
1862.754	1021.1
1867.047	1011.1
1871.335	1016.1
1875.62	1028.1
1879.9	1017.1
1884.177	1009.1
1888.449	1001.1
1892.718	979.1
1896.982	975.1
1901.243	957.1
1905.499	960.1
1909.752	937.1
1914	933.1
1918.245	932.1
1922.485	909.1
1926.722	907.1
1930.954	910.1
1935.183	895.1
1939.408	883.1
1943.628	887.1
1947.845	876.1
1952.058	854.1
1956.267	863.1
1960.472	849.1
1964.673	849.1
1968.87	827.1
1973.063	822.1
1977.252	820.1
1981.438	823.1
1985.619	836.1
1989.797	817.1
1993.971	828.1
1998.14	838.1
2002.306	827.1
2006.469	816.1
2010.627	829.1
2014.781	843.1
2018.932	832.1
2023.078	824.1
2027.221	840.1
2031.36	816.1
2035.495	808.1
2039.627	785.1
2043.754	776.1
2047.878	780.1
2051.998	766.1
2056.114	777.1
2060.226	771.1
2064.334	767.1
2068.439	755.1
2072.54	756.1
2076.637	769.1
2080.73	746.1
2084.82	743.1
2088.906	737.1
2092.988	745.1
2097.066	723.1
2101.14	722.1
2105.211	712.1
2109.278	705.1
2113.342	689.1
2117.401	693.1
2121.457	692.1
2125.509	676.1
2129.558	666.1
2133.602	664.1
2137.643	667.1
2141.681	665.1
2145.714	660.1
2149.744	668.1
2153.77	676.1
2157.793	662.1
2161.812	662.1
2165.827	662.1
2169.838	645.1
2173.846	639.1
2177.851	633.1
2181.851	606.1
2185.848	611.1
2189.841	601.1
2193.831	610.1
2197.817	606.1
2201.799	600.1
2205.778	579.1
2209.753	582.1
2213.725	579.1
2217.693	589.1
2221.657	591.1
2225.618	587.1
2229.575	587.1
2233.529	576.1
2237.479	573.1
2241.425	565.1
2245.368	551.1
2249.307	548.1
2253.243	552.1
2257.175	526.1
2261.104	525.1
2265.029	519.1
2268.95	511.1
2272.868	504.1
2276.783	493.1
2280.694	489.1
2284.601	485.1
2288.505	487.1
2292.405	470.1
2296.302	484.1
2300.195	479.1
2304.085	449.1
2307.971	446.1
2311.854	441.1
2315.734	425.1
2319.609	429.1
2323.482	442.1
2327.351	427.1
2331.216	444.1
2335.078	438.1
2338.937	429.1
2342.792	419.1
2346.643	407.1
2350.492	405.1
2354.336	407.1
2358.178	426.1
2362.015	410.1
2365.85	412.1
2369.681	409.1
2373.508	410.1
2377.333	407.1
2381.153	397.1
2384.971	412.1
2388.785	411.1
2392.595	399.1
2396.402	403.1
2400.206	400.1
2404.007	387.1
2407.804	384.1
2411.597	383.1
2415.388	383.1
2419.174	387.1
2422.958	385.1
2426.738	389.1
2430.515	389.1
2434.289	378.1
2438.059	370.1
2441.825	367.1
2445.589	362.1
2449.349	358.1
2453.106	362.1
2456.859	355.1
2460.61	347.1
2464.356	340.1
2468.1	333.1
2471.84	325.1
2475.577	332.1
2479.311	337.1
2483.041	320.1
2486.768	318.1
2490.492	324.1
2494.213	332.1
2497.93	315.1
2501.644	313.1
2505.355	303.1
2509.062	312.1
2512.766	303.1
2516.467	305.1
2520.165	300.1
2523.859	298.1
2527.551	286.1
2531.239	281.1
2534.923	278.1
2538.605	281.1
2542.283	269.1
2545.958	271.1
2549.63	269.1
2553.299	263.1
2556.964	264.1
2560.626	264.1
2564.285	252.1
2567.941	259.1
2571.594	251.1
2575.243	252.1
2578.89	242.1
2582.533	240.1
2586.173	243.1
2589.809	232.1
2593.443	239.1
2597.073	227.1
2600.701	224.1
2604.325	223.1
2607.946	220.1
2611.564	232.1
2615.178	235.1
2618.79	229.1
2622.398	214.1
2626.004	219.1
2629.606	212.1
2633.205	202.1
2636.801	212.1
2640.394	205.1
2643.983	213.1
2647.57	203.1
2651.153	203.1
2654.734	189.1
2658.311	186.1
2661.885	196.1
2665.456	196.1
2669.025	197.1
2672.589	178.1
2676.151	190.1
2679.71	184.1
2683.266	186.1
2686.819	177.1
2690.368	174.1
2693.915	172.1
2697.458	169.1
2700.999	178.1
2704.536	160.1
2708.071	149.1
2711.602	151.1
2715.13	157.1
2718.656	156.1
2722.178	153.1
2725.697	150.1
2729.214	149.1
2732.727	153.1
2736.237	145.1
2739.744	143.1
2743.249	139.1
2746.75	136.1
2750.248	134.1
2753.743	136.1
2757.236	129.1
2760.725	125.1
2764.211	123.1
2767.695	120.1
2771.175	111.1
2774.652	116.1
2778.127	117.1
2781.598	111.1
2785.067	125.1
2788.532	110.1
2791.995	108.1
2795.455	119.1
2798.911	117.1
2802.365	118.1
2805.816	123.1
2809.264	114.1
2812.709	126.1
2816.151	123.1
2819.59	128.1
2823.026	123.1
2826.46	114.1
2829.89	121.1
2833.318	126.1
2836.742	125.1
2840.164	119.1
2843.583	123.1
2846.999	126.1
2850.412	126.1
2853.822	129.1
2857.229	125.1
2860.634	137.1
2864.035	132.1
2867.434	138.1
2870.83	148.1
2874.223	153.1
2877.613	150.1
2881	169.1
2884.385	160.1
2887.766	155.1
2891.145	155.1
2894.521	159.1
2897.894	171.1
2901.264	167.1
2904.631	165.1
2907.996	171.1
2911.358	166.1
2914.717	177.1
2918.073	174.1
2921.426	187.1
2924.777	185.1
2928.124	192.1
2931.469	192.1
2934.811	190.1
2938.15	208.1
2941.487	212.1
2944.821	215.1
2948.152	211.1
2951.48	208.1
2954.805	212.1
2958.128	209.1
2961.447	196.1
2964.765	205.1
2968.079	215.1
2971.39	207.1
2974.699	219.1
2978.005	209.1
2981.308	210.1
2984.609	210.1
2987.907	207.1
2991.202	219.1
2994.494	218.1
2997.784	221.1
3001.07	217.1
3004.355	232.1
3007.636	227.1
3010.915	230.1
3014.191	235.1
3017.464	233.1
3020.734	242.1
3024.002	235.1
3027.267	257.1
3030.53	258.1
3033.789	259.1
3037.046	263.1
3040.301	261.1
3043.552	287.1
3046.801	299.1
3050.048	304.1
3053.291	306.1
3056.532	318.1
3059.771	340.1
3063.006	334.1
3066.239	357.1
3069.469	374.1
3072.697	372.1
3075.922	385.1
3079.144	387.1
3082.364	405.1
3085.581	419.1
3088.795	423.1
3092.007	423.1
3095.216	438.1
3098.423	453.1
3101.627	467.1
3104.828	468.1
3108.026	472.1
3111.222	487.1
3114.416	513.1
3117.607	495.1
3120.795	527.1
3123.98	524.1
3127.163	551.1
3130.344	563.1
3133.521	571.1
3136.696	584.1
3139.869	598.1
3143.039	599.1
3146.206	618.1
3149.371	625.1
3152.533	632.1
3155.693	632.1
3158.85	640.1
3162.005	651.1
3165.157	653.1
3168.306	657.1
3171.453	655.1
3174.597	661.1
3177.739	677.1
3180.878	670.1
3184.014	670.1
3187.149	673.1
3190.28	686.1
3193.409	678.1
3196.536	685.1
3199.659	677.1
3202.781	691.1
3205.9	673.1
3209.016	694.1
3212.13	691.1
3215.241	686.1
3218.35	678.1
3221.456	670.1
3224.56	661.1
3227.661	658.1
3230.76	647.1
3233.856	644.1
3236.95	620.1
3240.041	620.1
3243.13	599.1
3246.216	588.1
3249.3	585.1
3252.382	592.1
3255.46	576.1
3258.537	586.1
3261.611	559.1
3264.682	564.1
3267.751	562.1
3270.818	556.1
3273.882	553.1
3276.943	543.1
3280.002	557.1
3283.059	534.1
3286.113	543.1
3289.165	536.1
3292.214	533.1
3295.261	521.1
3298.306	512.1
3301.348	510.1
3304.387	502.1
3307.425	513.1
3310.459	504.1
3313.492	474.1
3316.521	489.1
3319.549	473.1
3322.574	472.1
3325.597	474.1
3328.617	478.1
3331.635	478.1
3334.65	468.1
3337.663	448.1
3340.674	479.1
3343.682	467.1
3346.688	449.1
3349.691	461.1
3352.692	463.1
3355.691	464.1
3358.687	450.1
3361.681	453.1
3364.673	437.1
3367.662	433.1
3370.649	431.1
3373.633	414.1
3376.615	413.1
3379.595	394.1
3382.572	417.1
3385.547	400.1
3388.52	384.1
3391.49	383.1
3394.458	371.1
3397.424	365.1
3400.387	355.1
3403.348	366.1
3406.307	347.1
3409.263	342.1
3412.217	343.1
3415.168	343.1
3418.118	343.1
3421.065	318.1
3424.009	326.1
3426.951	324.1
3429.891	312.1
3432.829	305.1
3435.764	295.1
3438.697	284.1
3441.628	292.1
3444.557	278.1
3447.483	259.1
3450.407	250.1
3453.328	234.1
3456.247	222.1
3459.164	215.1
3462.079	219.1
3464.991	200.1
3467.902	197.1
3470.809	195.1
3473.715	180.1
3476.618	175.1
3479.519	168.1
3482.418	151.1
3485.315	147.1
3488.209	131.1
3491.101	140.1
3493.99	125.1
3496.878	126.1
3499.763	107.1
3502.646	107.1
3505.527	93.1
3508.405	90.1
3511.281	87.1
3514.155	78.1
3517.027	74.1
3519.897	66.1
3522.764	57.1
3525.629	56.1
3528.492	39.1
3531.352	34.1
3534.211	24.1
3537.067	28.1
3539.921	22.1
3542.773	13.1
3545.622	-1.9
3548.469	-2.9
3551.315	-1.9
3554.157	-14.9
3556.998	-18.9
3559.837	-18.9
3562.673	-24.9
3565.507	-22.9
3568.339	-31.9
3571.169	-35.9
3573.996	-35.9
3576.822	-40.9
3579.645	-45.9
3582.466	-44.9
3585.285	-48.9
3588.101	-47.9
3590.916	-53.9
3593.728	-66.9
3596.538	-69.9
3599.346	-69.9
3602.152	-66.9
3604.956	-68.9
3607.757	-71.9
3610.556	-69.9
3613.354	-75.9
3616.149	-82.9
3618.942	-77.9
3621.732	-86.9
3624.521	-83.9
3627.307	-87.9
3630.092	-90.9
3632.874	-85.9
3635.654	-99.9
3638.432	-92.9
3641.208	-92.9
3643.982	-98.9
3646.753	-101.9
3649.523	-103.9
3652.29	-101.9
3655.055	-104.9
3657.818	-103.9
3660.579	-104.9
3663.338	-106.9
3666.095	-105.9
3668.849	-112.9
3671.602	-110.9
3674.352	-120.9
3677.101	-122.9
3679.847	-115.9
3682.591	-117.9
3685.333	-115.9
3688.073	-118.9
3690.811	-121.9
3693.547	-128.9
3696.281	-126.9
3699.013	-128.9
3701.742	-128.9
3704.47	-124.9
3707.195	-122.9
3709.919	-124.9
3712.64	-130.9
3715.359	-132.9
3718.076	-132.9
3720.792	-138.9
3723.505	-139.9
3726.216	-131.9
3728.925	-127.9
3731.632	-132.9
3734.336	-136.9
3737.039	-136.9
3739.74	-136.9
3742.439	-144.9
3745.136	-132.9
3747.83	-144.9
3750.523	-137.9
3753.213	-138.9
3755.902	-136.9
3758.589	-140.9
3761.273	-134.9
3763.956	-133.9
3766.636	-142.9
3769.315	-137.9
3771.991	-136.9
3774.665	-142.9
3777.338	-132.9
3780.008	-140.9
3782.677	-145.9
3785.343	-140.9
3788.007	-141.9
3790.67	-145.9
3793.33	-138.9
3795.989	-133.9
3798.645	-138.9
3801.299	-136.9
3803.952	-143.9
3806.602	-139.9
3809.251	-148.9
3811.897	-148.9
3814.542	-146.9
3817.184	-136.9
3819.825	-138.9
3822.463	-141.9
3825.1	-143.9
3827.735	-140.9
3830.367	-147.9
3832.998	-147.9
3835.627	-147.9
3838.253	-142.9
3840.878	-141.9
3843.501	-138.9
3846.122	-144.9
3848.741	-144.9
3851.358	-144.9
3853.973	-150.9
3856.586	-139.9
3859.197	-150.9
3861.806	-138.9
3864.414	-140.9
3867.019	-137.9
3869.622	-144.9
3872.224	-131.9
3874.823	-121.9
3877.421	-107.9
3880.016	-78.9
3882.61	-49.9
3885.202	-48.9
3887.792	-65.9
3890.38	-99.9
3892.966	-128.9
3895.55	-138.9
3898.132	-139.9
3900.713	-144.9
3903.291	-146.9
3905.868	-142.9
3908.442	-137.9
3911.015	-148.9
3913.586	-150.9
3916.155	-149.9
3918.722	-145.9
3921.287	-145.9
3923.85	-143.9
3926.411	-144.9
3928.971	-145.9
3931.528	-147.9
3934.084	-144.9
3936.638	-143.9
3939.19	-154.9
3941.74	-146.9
3944.288	-144.9
3946.834	-145.9
3949.378	-146.9
3951.921	-146.9
3954.462	-155.9
3957	-145.9
3959.537	-143.9
3962.072	-146.9
3964.606	-138.9
3967.137	-141.9
3969.667	-144.9
3972.194	-146.9
3974.72	-147.9
3977.244	-146.9
3979.766	-144.9
3982.286	-144.9
3984.805	-146.9
3987.321	-144.9
3989.836	-133.9
3992.349	-143.9
3994.86	-145.9
3997.369	-149.9
3999.877	-148.9
4002.382	-143.9
4004.886	-145.9
4007.388	-144.9
4009.888	-137.9
4012.386	-150.9
4014.883	-146.9
4017.377	-147.9
4019.87	-142.9
4022.361	-147.9
4024.85	-141.9
4027.338	-142.9
4029.823	-139.9
4032.307	-141.9
4034.789	-149.9
4037.269	-148.9
4039.747	-142.9
4042.224	-140.9
4044.699	-149.9
4047.172	-140.9
4049.643	-139.9
4052.112	-142.9
4054.58	-146.9
4057.046	-142.9
4059.51	-146.9
4061.972	-145.9
4064.432	-139.9
4066.891	-141.9
4069.348	-142.9
4071.803	-144.9
4074.256	-147.9
4076.708	-147.9
4079.158	-145.9
4081.606	-142.9
4084.052	-146.9
4086.497	-141.9
4088.939	-134.9
4091.38	-145.9
4093.819	-145.9
4096.257	-151.9
4098.693	-148.9
4101.127	-147.9
4103.559	-149.9
4105.989	11.1
4108.418	4.1
4110.845	9.1
4113.27	4.1
4115.694	-0.9
4118.115	1.1
4120.535	-145.9
4122.954	-145.9
4125.37	-144.9
4127.785	-145.9
4130.198	-141.9
4132.609	-140.9
4135.019	-147.9
4137.427	-155.9
4139.833	-152.9
4142.237	-153.9
