Data from 2018-2-8_conc=0_n=10_RamanShift_01.txt Node
Date: Mon Mar 12 13:50:58 IST 2018
User: aro
Spectrometer: QEPB0276
Trigger mode: 0
Integration Time (sec): 3.000000E1
Scans to average: 1
Electric dark correction enabled: true
Nonlinearity correction enabled: false
Boxcar width: 0
XAxis mode: Raman Shifts
Number of Pixels in Spectrum: 1044
>>>>>Begin Spectral Data<<<<<
160.701	31.5
166.742	48.5
172.777	108.5
178.805	317.5
184.826	854.5
190.841	1863.5
196.849	3092.5
202.85	4037.5
208.845	4396.5
214.833	4401.5
220.815	4344.5
226.789	4346.5
232.758	4321.5
238.719	4309.5
244.674	4319.5
250.623	4262.5
256.565	4207.5
262.5	4151.5
268.429	4130.5
274.351	4071.5
280.267	4032.5
286.176	3998.5
292.079	4019.5
297.975	4006.5
303.865	3975.5
309.748	3972.5
315.625	3973.5
321.495	3949.5
327.359	3963.5
333.217	3978.5
339.068	3977.5
344.912	4009.5
350.751	3995.5
356.583	4027.5
362.408	4010.5
368.227	4044.5
374.04	4048.5
379.847	4034.5
385.647	4085.5
391.44	4104.5
397.228	4105.5
403.009	4143.5
408.784	4167.5
414.553	4179.5
420.315	4192.5
426.071	4180.5
431.821	4186.5
437.565	4173.5
443.302	4171.5
449.033	4154.5
454.758	4163.5
460.477	4105.5
466.189	4085.5
471.896	4062.5
477.596	4028.5
483.29	4031.5
488.978	4025.5
494.66	4005.5
500.335	3923.5
506.005	3815.5
511.668	3656.5
517.325	3544.5
522.977	3408.5
528.622	3351.5
534.261	3289.5
539.894	3231.5
545.521	3191.5
551.141	3183.5
556.756	3157.5
562.365	3138.5
567.968	3106.5
573.565	3078.5
579.155	3053.5
584.74	3039.5
590.319	3048.5
595.892	3049.5
601.459	3053.5
607.02	3031.5
612.575	2980.5
618.124	2976.5
623.667	2926.5
629.204	2923.5
634.735	2866.5
640.261	2873.5
645.781	2853.5
651.294	2824.5
656.802	2821.5
662.304	2797.5
667.8	2835.5
673.29	2812.5
678.775	2795.5
684.254	2781.5
689.726	2750.5
695.193	2760.5
700.655	2732.5
706.11	2739.5
711.56	2730.5
717.004	2683.5
722.442	2690.5
727.874	2647.5
733.301	2683.5
738.722	2647.5
744.137	2669.5
749.547	2640.5
754.951	2647.5
760.349	2647.5
765.741	2633.5
771.128	2660.5
776.509	2670.5
781.885	2709.5
787.254	2711.5
792.618	2718.5
797.977	2712.5
803.33	2731.5
808.677	2675.5
814.019	2664.5
819.355	2624.5
824.686	2609.5
830.011	2614.5
835.33	2592.5
840.644	2581.5
845.952	2571.5
851.255	2555.5
856.552	2569.5
861.844	2541.5
867.13	2515.5
872.41	2518.5
877.686	2493.5
882.955	2483.5
888.219	2480.5
893.478	2430.5
898.731	2381.5
903.979	2354.5
909.221	2323.5
914.458	2325.5
919.69	2288.5
924.916	2323.5
930.136	2340.5
935.351	2317.5
940.561	2335.5
945.766	2318.5
950.965	2310.5
956.158	2294.5
961.347	2284.5
966.529	2275.5
971.707	2223.5
976.879	2173.5
982.046	2161.5
987.208	2137.5
992.364	2160.5
997.515	2152.5
1002.66	2172.5
1007.801	2204.5
1012.936	2220.5
1018.066	2228.5
1023.19	2212.5
1028.309	2217.5
1033.423	2209.5
1038.532	2222.5
1043.636	2209.5
1048.734	2200.5
1053.827	2148.5
1058.915	2124.5
1063.998	2124.5
1069.075	2109.5
1074.147	2125.5
1079.214	2110.5
1084.276	2126.5
1089.333	2151.5
1094.385	2146.5
1099.431	2118.5
1104.472	2122.5
1109.509	2113.5
1114.54	2101.5
1119.565	2062.5
1124.586	2014.5
1129.602	2005.5
1134.613	1998.5
1139.618	1967.5
1144.619	1964.5
1149.614	1967.5
1154.604	1974.5
1159.589	1981.5
1164.57	2005.5
1169.545	1989.5
1174.515	2008.5
1179.48	1979.5
1184.44	2001.5
1189.395	1969.5
1194.345	1928.5
1199.29	1928.5
1204.23	1938.5
1209.165	1908.5
1214.095	1953.5
1219.021	1955.5
1223.941	1948.5
1228.856	1970.5
1233.766	1972.5
1238.672	1985.5
1243.572	1954.5
1248.467	1975.5
1253.358	1950.5
1258.244	1914.5
1263.124	1870.5
1268	1854.5
1272.871	1825.5
1277.737	1817.5
1282.599	1792.5
1287.455	1791.5
1292.306	1794.5
1297.153	1806.5
1301.995	1821.5
1306.832	1824.5
1311.664	1848.5
1316.491	1827.5
1321.314	1824.5
1326.132	1835.5
1330.945	1807.5
1335.753	1777.5
1340.556	1748.5
1345.354	1706.5
1350.148	1705.5
1354.937	1666.5
1359.722	1649.5
1364.501	1642.5
1369.276	1595.5
1374.046	1570.5
1378.811	1551.5
1383.572	1553.5
1388.327	1550.5
1393.079	1550.5
1397.825	1548.5
1402.567	1536.5
1407.304	1542.5
1412.036	1542.5
1416.764	1549.5
1421.487	1539.5
1426.205	1562.5
1430.919	1569.5
1435.628	1574.5
1440.333	1570.5
1445.032	1602.5
1449.727	1620.5
1454.418	1609.5
1459.104	1623.5
1463.785	1603.5
1468.462	1578.5
1473.134	1520.5
1477.802	1496.5
1482.465	1471.5
1487.123	1434.5
1491.777	1418.5
1496.426	1417.5
1501.071	1388.5
1505.711	1391.5
1510.347	1385.5
1514.978	1396.5
1519.604	1395.5
1524.226	1375.5
1528.844	1374.5
1533.457	1375.5
1538.065	1354.5
1542.669	1367.5
1547.269	1358.5
1551.864	1363.5
1556.454	1360.5
1561.041	1392.5
1565.622	1408.5
1570.199	1401.5
1574.772	1399.5
1579.34	1427.5
1583.904	1442.5
1588.464	1440.5
1593.019	1450.5
1597.569	1454.5
1602.115	1462.5
1606.657	1453.5
1611.195	1433.5
1615.728	1431.5
1620.256	1426.5
1624.78	1429.5
1629.3	1442.5
1633.816	1454.5
1638.327	1453.5
1642.834	1451.5
1647.336	1472.5
1651.834	1464.5
1656.328	1466.5
1660.817	1452.5
1665.302	1454.5
1669.783	1412.5
1674.259	1404.5
1678.732	1358.5
1683.199	1326.5
1687.663	1279.5
1692.122	1245.5
1696.577	1205.5
1701.028	1154.5
1705.474	1111.5
1709.917	1072.5
1714.355	1056.5
1718.788	1038.5
1723.218	1053.5
1727.643	1057.5
1732.064	1033.5
1736.481	1020.5
1740.893	1004.5
1745.301	984.5
1749.705	973.5
1754.105	945.5
1758.501	938.5
1762.893	913.5
1767.28	911.5
1771.663	884.5
1776.042	890.5
1780.417	879.5
1784.787	871.5
1789.154	863.5
1793.516	860.5
1797.874	844.5
1802.228	853.5
1806.578	824.5
1810.924	806.5
1815.266	803.5
1819.603	809.5
1823.937	810.5
1828.266	791.5
1832.591	803.5
1836.913	803.5
1841.23	804.5
1845.543	797.5
1849.852	798.5
1854.156	801.5
1858.457	804.5
1862.754	804.5
1867.047	800.5
1871.335	815.5
1875.62	811.5
1879.9	800.5
1884.177	794.5
1888.449	787.5
1892.718	782.5
1896.982	767.5
1901.243	760.5
1905.499	750.5
1909.752	753.5
1914	736.5
1918.245	738.5
1922.485	718.5
1926.722	717.5
1930.954	721.5
1935.183	709.5
1939.408	699.5
1943.628	703.5
1947.845	691.5
1952.058	685.5
1956.267	682.5
1960.472	665.5
1964.673	657.5
1968.87	661.5
1973.063	662.5
1977.252	638.5
1981.438	651.5
1985.619	656.5
1989.797	642.5
1993.971	663.5
1998.14	664.5
2002.306	641.5
2006.469	649.5
2010.627	652.5
2014.781	653.5
2018.932	641.5
2023.078	654.5
2027.221	656.5
2031.36	642.5
2035.495	634.5
2039.627	619.5
2043.754	613.5
2047.878	603.5
2051.998	604.5
2056.114	609.5
2060.226	603.5
2064.334	599.5
2068.439	597.5
2072.54	604.5
2076.637	588.5
2080.73	592.5
2084.82	593.5
2088.906	588.5
2092.988	585.5
2097.066	573.5
2101.14	576.5
2105.211	559.5
2109.278	556.5
2113.342	547.5
2117.401	540.5
2121.457	533.5
2125.509	536.5
2129.558	522.5
2133.602	538.5
2137.643	529.5
2141.681	531.5
2145.714	524.5
2149.744	525.5
2153.77	523.5
2157.793	517.5
2161.812	514.5
2165.827	510.5
2169.838	509.5
2173.846	498.5
2177.851	480.5
2181.851	482.5
2185.848	482.5
2189.841	474.5
2193.831	475.5
2197.817	467.5
2201.799	452.5
2205.778	468.5
2209.753	456.5
2213.725	455.5
2217.693	462.5
2221.657	457.5
2225.618	467.5
2229.575	461.5
2233.529	455.5
2237.479	452.5
2241.425	452.5
2245.368	433.5
2249.307	420.5
2253.243	419.5
2257.175	422.5
2261.104	428.5
2265.029	400.5
2268.95	409.5
2272.868	404.5
2276.783	392.5
2280.694	389.5
2284.601	382.5
2288.505	381.5
2292.405	390.5
2296.302	369.5
2300.195	364.5
2304.085	355.5
2307.971	343.5
2311.854	352.5
2315.734	348.5
2319.609	333.5
2323.482	336.5
2327.351	345.5
2331.216	343.5
2335.078	363.5
2338.937	337.5
2342.792	327.5
2346.643	319.5
2350.492	327.5
2354.336	322.5
2358.178	312.5
2362.015	325.5
2365.85	320.5
2369.681	331.5
2373.508	325.5
2377.333	323.5
2381.153	324.5
2384.971	328.5
2388.785	324.5
2392.595	324.5
2396.402	308.5
2400.206	313.5
2404.007	321.5
2407.804	313.5
2411.597	302.5
2415.388	298.5
2419.174	300.5
2422.958	298.5
2426.738	300.5
2430.515	295.5
2434.289	306.5
2438.059	289.5
2441.825	278.5
2445.589	295.5
2449.349	272.5
2453.106	282.5
2456.859	281.5
2460.61	274.5
2464.356	275.5
2468.1	272.5
2471.84	264.5
2475.577	256.5
2479.311	245.5
2483.041	250.5
2486.768	257.5
2490.492	250.5
2494.213	256.5
2497.93	251.5
2501.644	251.5
2505.355	237.5
2509.062	237.5
2512.766	244.5
2516.467	233.5
2520.165	240.5
2523.859	233.5
2527.551	224.5
2531.239	226.5
2534.923	214.5
2538.605	213.5
2542.283	220.5
2545.958	208.5
2549.63	219.5
2553.299	214.5
2556.964	209.5
2560.626	210.5
2564.285	206.5
2567.941	202.5
2571.594	204.5
2575.243	192.5
2578.89	194.5
2582.533	186.5
2586.173	180.5
2589.809	178.5
2593.443	190.5
2597.073	190.5
2600.701	177.5
2604.325	177.5
2607.946	172.5
2611.564	173.5
2615.178	180.5
2618.79	178.5
2622.398	176.5
2626.004	165.5
2629.606	165.5
2633.205	161.5
2636.801	161.5
2640.394	158.5
2643.983	166.5
2647.57	163.5
2651.153	165.5
2654.734	158.5
2658.311	146.5
2661.885	148.5
2665.456	152.5
2669.025	147.5
2672.589	149.5
2676.151	156.5
2679.71	142.5
2683.266	140.5
2686.819	135.5
2690.368	133.5
2693.915	131.5
2697.458	131.5
2700.999	131.5
2704.536	124.5
2708.071	119.5
2711.602	117.5
2715.13	117.5
2718.656	120.5
2722.178	111.5
2725.697	113.5
2729.214	110.5
2732.727	124.5
2736.237	110.5
2739.744	111.5
2743.249	109.5
2746.75	103.5
2750.248	102.5
2753.743	100.5
2757.236	94.5
2760.725	99.5
2764.211	86.5
2767.695	95.5
2771.175	87.5
2774.652	84.5
2778.127	90.5
2781.598	80.5
2785.067	90.5
2788.532	86.5
2791.995	94.5
2795.455	94.5
2798.911	85.5
2802.365	89.5
2805.816	92.5
2809.264	95.5
2812.709	89.5
2816.151	92.5
2819.59	90.5
2823.026	88.5
2826.46	87.5
2829.89	93.5
2833.318	91.5
2836.742	103.5
2840.164	89.5
2843.583	89.5
2846.999	93.5
2850.412	88.5
2853.822	99.5
2857.229	97.5
2860.634	97.5
2864.035	110.5
2867.434	114.5
2870.83	112.5
2874.223	118.5
2877.613	125.5
2881	132.5
2884.385	135.5
2887.766	123.5
2891.145	121.5
2894.521	127.5
2897.894	138.5
2901.264	129.5
2904.631	129.5
2907.996	126.5
2911.358	126.5
2914.717	132.5
2918.073	136.5
2921.426	142.5
2924.777	151.5
2928.124	149.5
2931.469	154.5
2934.811	149.5
2938.15	162.5
2941.487	169.5
2944.821	168.5
2948.152	167.5
2951.48	168.5
2954.805	165.5
2958.128	153.5
2961.447	161.5
2964.765	159.5
2968.079	160.5
2971.39	162.5
2974.699	160.5
2978.005	157.5
2981.308	157.5
2984.609	158.5
2987.907	160.5
2991.202	167.5
2994.494	164.5
2997.784	170.5
3001.07	170.5
3004.355	175.5
3007.636	175.5
3010.915	173.5
3014.191	178.5
3017.464	192.5
3020.734	183.5
3024.002	181.5
3027.267	181.5
3030.53	190.5
3033.789	190.5
3037.046	198.5
3040.301	205.5
3043.552	220.5
3046.801	220.5
3050.048	228.5
3053.291	240.5
3056.532	243.5
3059.771	262.5
3063.006	260.5
3066.239	272.5
3069.469	282.5
3072.697	289.5
3075.922	298.5
3079.144	302.5
3082.364	311.5
3085.581	326.5
3088.795	318.5
3092.007	332.5
3095.216	341.5
3098.423	347.5
3101.627	360.5
3104.828	360.5
3108.026	359.5
3111.222	368.5
3114.416	383.5
3117.607	388.5
3120.795	404.5
3123.98	406.5
3127.163	426.5
3130.344	431.5
3133.521	434.5
3136.696	451.5
3139.869	451.5
3143.039	461.5
3146.206	468.5
3149.371	477.5
3152.533	492.5
3155.693	491.5
3158.85	490.5
3162.005	489.5
3165.157	497.5
3168.306	510.5
3171.453	509.5
3174.597	510.5
3177.739	507.5
3180.878	515.5
3184.014	523.5
3187.149	516.5
3190.28	512.5
3193.409	516.5
3196.536	514.5
3199.659	522.5
3202.781	525.5
3205.9	514.5
3209.016	516.5
3212.13	523.5
3215.241	530.5
3218.35	525.5
3221.456	517.5
3224.56	500.5
3227.661	502.5
3230.76	487.5
3233.856	473.5
3236.95	473.5
3240.041	462.5
3243.13	460.5
3246.216	456.5
3249.3	443.5
3252.382	445.5
3255.46	441.5
3258.537	433.5
3261.611	433.5
3264.682	421.5
3267.751	429.5
3270.818	427.5
3273.882	420.5
3276.943	418.5
3280.002	413.5
3283.059	409.5
3286.113	398.5
3289.165	405.5
3292.214	409.5
3295.261	393.5
3298.306	394.5
3301.348	383.5
3304.387	378.5
3307.425	377.5
3310.459	373.5
3313.492	366.5
3316.521	368.5
3319.549	357.5
3322.574	351.5
3325.597	364.5
3328.617	361.5
3331.635	348.5
3334.65	350.5
3337.663	337.5
3340.674	354.5
3343.682	343.5
3346.688	342.5
3349.691	354.5
3352.692	345.5
3355.691	343.5
3358.687	334.5
3361.681	328.5
3364.673	335.5
3367.662	331.5
3370.649	320.5
3373.633	310.5
3376.615	301.5
3379.595	301.5
3382.572	296.5
3385.547	298.5
3388.52	299.5
3391.49	286.5
3394.458	280.5
3397.424	270.5
3400.387	272.5
3403.348	264.5
3406.307	259.5
3409.263	258.5
3412.217	255.5
3415.168	258.5
3418.118	252.5
3421.065	242.5
3424.009	236.5
3426.951	236.5
3429.891	231.5
3432.829	215.5
3435.764	229.5
3438.697	215.5
3441.628	207.5
3444.557	206.5
3447.483	190.5
3450.407	180.5
3453.328	171.5
3456.247	166.5
3459.164	160.5
3462.079	151.5
3464.991	148.5
3467.902	129.5
3470.809	134.5
3473.715	114.5
3476.618	121.5
3479.519	115.5
3482.418	106.5
3485.315	98.5
3488.209	102.5
3491.101	92.5
3493.99	90.5
3496.878	87.5
3499.763	77.5
3502.646	67.5
3505.527	67.5
3508.405	65.5
3511.281	59.5
3514.155	58.5
3517.027	50.5
3519.897	39.5
3522.764	27.5
3525.629	22.5
3528.492	15.5
3531.352	21.5
3534.211	9.5
3537.067	8.5
3539.921	7.5
3542.773	-8.5
3545.622	-6.5
3548.469	-11.5
3551.315	-12.5
3554.157	-12.5
3556.998	-26.5
3559.837	-21.5
3562.673	-23.5
3565.507	-29.5
3568.339	-33.5
3571.169	-41.5
3573.996	-40.5
3576.822	-39.5
3579.645	-41.5
3582.466	-30.5
3585.285	-46.5
3588.101	-46.5
3590.916	-58.5
3593.728	-57.5
3596.538	-60.5
3599.346	-59.5
3602.152	-61.5
3604.956	-57.5
3607.757	-60.5
3610.556	-69.5
3613.354	-63.5
3616.149	-79.5
3618.942	-84.5
3621.732	-76.5
3624.521	-77.5
3627.307	-78.5
3630.092	-72.5
3632.874	-76.5
3635.654	-78.5
3638.432	-77.5
3641.208	-81.5
3643.982	-87.5
3646.753	-91.5
3649.523	-89.5
3652.29	-89.5
3655.055	-87.5
3657.818	-92.5
3660.579	-84.5
3663.338	-87.5
3666.095	-95.5
3668.849	-98.5
3671.602	-98.5
3674.352	-102.5
3677.101	-108.5
3679.847	-99.5
3682.591	-104.5
3685.333	-102.5
3688.073	-100.5
3690.811	-107.5
3693.547	-116.5
3696.281	-107.5
3699.013	-108.5
3701.742	-108.5
3704.47	-108.5
3707.195	-109.5
3709.919	-114.5
3712.64	-112.5
3715.359	-115.5
3718.076	-117.5
3720.792	-117.5
3723.505	-117.5
3726.216	-107.5
3728.925	-116.5
3731.632	-116.5
3734.336	-118.5
3737.039	-109.5
3739.74	-116.5
3742.439	-126.5
3745.136	-113.5
3747.83	-116.5
3750.523	-116.5
3753.213	-116.5
3755.902	-112.5
3758.589	-122.5
3761.273	-117.5
3763.956	-117.5
3766.636	-120.5
3769.315	-114.5
3771.991	-111.5
3774.665	-121.5
3777.338	-108.5
3780.008	-118.5
3782.677	-124.5
3785.343	-120.5
3788.007	-118.5
3790.67	-121.5
3793.33	-116.5
3795.989	-115.5
3798.645	-119.5
3801.299	-120.5
3803.952	-125.5
3806.602	-115.5
3809.251	-124.5
3811.897	-128.5
3814.542	-121.5
3817.184	-121.5
3819.825	-120.5
3822.463	-116.5
3825.1	-122.5
3827.735	-126.5
3830.367	-122.5
3832.998	-126.5
3835.627	-124.5
3838.253	-117.5
3840.878	-117.5
3843.501	-115.5
3846.122	-117.5
3848.741	-127.5
3851.358	-121.5
3853.973	-129.5
3856.586	-123.5
3859.197	-123.5
3861.806	-118.5
3864.414	-118.5
3867.019	-118.5
3869.622	-119.5
3872.224	-109.5
3874.823	-97.5
3877.421	-85.5
3880.016	-60.5
3882.61	-30.5
3885.202	-24.5
3887.792	-48.5
3890.38	-73.5
3892.966	-104.5
3895.55	-115.5
3898.132	-121.5
3900.713	-120.5
3903.291	-120.5
3905.868	-117.5
3908.442	-116.5
3911.015	-126.5
3913.586	-126.5
3916.155	-128.5
3918.722	-131.5
3921.287	-122.5
3923.85	-119.5
3926.411	-125.5
3928.971	-122.5
3931.528	-122.5
3934.084	-123.5
3936.638	-123.5
3939.19	-126.5
3941.74	-128.5
3944.288	-130.5
3946.834	-121.5
3949.378	-122.5
3951.921	-123.5
3954.462	-129.5
3957	-120.5
3959.537	-119.5
3962.072	-124.5
3964.606	-120.5
3967.137	-122.5
3969.667	-121.5
3972.194	-128.5
3974.72	-124.5
3977.244	-126.5
3979.766	-130.5
3982.286	-124.5
3984.805	-127.5
3987.321	-120.5
3989.836	-117.5
3992.349	-125.5
3994.86	-122.5
3997.369	-124.5
3999.877	-123.5
4002.382	-120.5
4004.886	-124.5
4007.388	-118.5
4009.888	-116.5
4012.386	-124.5
4014.883	-121.5
4017.377	-123.5
4019.87	-123.5
4022.361	-127.5
4024.85	-125.5
4027.338	-119.5
4029.823	-118.5
4032.307	-119.5
4034.789	-128.5
4037.269	-123.5
4039.747	-119.5
4042.224	-126.5
4044.699	-125.5
4047.172	-117.5
4049.643	-115.5
4052.112	-123.5
4054.58	-126.5
4057.046	-124.5
4059.51	-124.5
4061.972	-121.5
4064.432	-122.5
4066.891	-124.5
4069.348	-123.5
4071.803	-126.5
4074.256	-121.5
4076.708	-119.5
4079.158	-124.5
4081.606	-119.5
4084.052	-124.5
4086.497	-123.5
4088.939	-115.5
4091.38	-119.5
4093.819	-120.5
4096.257	-127.5
4098.693	-125.5
4101.127	-126.5
4103.559	-124.5
4105.989	24.5
4108.418	12.5
4110.845	15.5
4113.27	11.5
4115.694	7.5
4118.115	11.5
4120.535	-123.5
4122.954	-126.5
4125.37	-121.5
4127.785	-121.5
4130.198	-121.5
4132.609	-119.5
4135.019	-123.5
4137.427	-125.5
4139.833	-127.5
4142.237	-129.5
