Data from 2018-2-8_conc=3_n=9_RamanShift_03.txt Node
Date: Mon Mar 12 14:56:58 IST 2018
User: aro
Spectrometer: QEPB0276
Trigger mode: 0
Integration Time (sec): 3.000000E1
Scans to average: 1
Electric dark correction enabled: true
Nonlinearity correction enabled: false
Boxcar width: 0
XAxis mode: Raman Shifts
Number of Pixels in Spectrum: 1044
>>>>>Begin Spectral Data<<<<<
160.701	12.9
166.742	41.9
172.777	125.9
178.805	410.9
184.826	1139.9
190.841	2411.9
196.849	4015.9
202.85	5300.9
208.845	5813.9
214.833	5798.9
220.815	5696.9
226.789	5685.9
232.758	5696.9
238.719	5661.9
244.674	5615.9
250.623	5569.9
256.565	5495.9
262.5	5421.9
268.429	5358.9
274.351	5282.9
280.267	5249.9
286.176	5215.9
292.079	5197.9
297.975	5170.9
303.865	5128.9
309.748	5149.9
315.625	5085.9
321.495	5103.9
327.359	5087.9
333.217	5092.9
339.068	5114.9
344.912	5103.9
350.751	5119.9
356.583	5121.9
362.408	5106.9
368.227	5123.9
374.04	5171.9
379.847	5162.9
385.647	5207.9
391.44	5205.9
397.228	5202.9
403.009	5239.9
408.784	5278.9
414.553	5283.9
420.315	5279.9
426.071	5337.9
431.821	5313.9
437.565	5284.9
443.302	5290.9
449.033	5281.9
454.758	5235.9
460.477	5227.9
466.189	5197.9
471.896	5180.9
477.596	5119.9
483.29	5124.9
488.978	5142.9
494.66	5106.9
500.335	5032.9
506.005	4888.9
511.668	4791.9
517.325	4657.9
522.977	4557.9
528.622	4471.9
534.261	4410.9
539.894	4372.9
545.521	4304.9
551.141	4279.9
556.756	4259.9
562.365	4264.9
567.968	4241.9
573.565	4212.9
579.155	4163.9
584.74	4148.9
590.319	4126.9
595.892	4131.9
601.459	4136.9
607.02	4101.9
612.575	4051.9
618.124	4075.9
623.667	3994.9
629.204	3969.9
634.735	3967.9
640.261	3931.9
645.781	3878.9
651.294	3877.9
656.802	3890.9
662.304	3869.9
667.8	3831.9
673.29	3853.9
678.775	3838.9
684.254	3811.9
689.726	3807.9
695.193	3785.9
700.655	3776.9
706.11	3760.9
711.56	3727.9
717.004	3719.9
722.442	3693.9
727.874	3681.9
733.301	3671.9
738.722	3644.9
744.137	3640.9
749.547	3637.9
754.951	3615.9
760.349	3602.9
765.741	3628.9
771.128	3645.9
776.509	3681.9
781.885	3688.9
787.254	3684.9
792.618	3695.9
797.977	3672.9
803.33	3649.9
808.677	3636.9
814.019	3625.9
819.355	3562.9
824.686	3521.9
830.011	3514.9
835.33	3566.9
840.644	3495.9
845.952	3516.9
851.255	3496.9
856.552	3497.9
861.844	3454.9
867.13	3450.9
872.41	3431.9
877.686	3425.9
882.955	3386.9
888.219	3352.9
893.478	3336.9
898.731	3257.9
903.979	3209.9
909.221	3215.9
914.458	3188.9
919.69	3187.9
924.916	3197.9
930.136	3202.9
935.351	3195.9
940.561	3208.9
945.766	3213.9
950.965	3193.9
956.158	3157.9
961.347	3121.9
966.529	3086.9
971.707	3055.9
976.879	2999.9
982.046	2979.9
987.208	2952.9
992.364	2988.9
997.515	2983.9
1002.66	3009.9
1007.801	3043.9
1012.936	3080.9
1018.066	3062.9
1023.19	3056.9
1028.309	3064.9
1033.423	3081.9
1038.532	3035.9
1043.636	3037.9
1048.734	2972.9
1053.827	2950.9
1058.915	2902.9
1063.998	2888.9
1069.075	2894.9
1074.147	2898.9
1079.214	2908.9
1084.276	2920.9
1089.333	2911.9
1094.385	2928.9
1099.431	2915.9
1104.472	2924.9
1109.509	2899.9
1114.54	2872.9
1119.565	2849.9
1124.586	2795.9
1129.602	2773.9
1134.613	2759.9
1139.618	2721.9
1144.619	2735.9
1149.614	2719.9
1154.604	2742.9
1159.589	2740.9
1164.57	2740.9
1169.545	2736.9
1174.515	2737.9
1179.48	2728.9
1184.44	2700.9
1189.395	2679.9
1194.345	2670.9
1199.29	2622.9
1204.23	2648.9
1209.165	2661.9
1214.095	2662.9
1219.021	2662.9
1223.941	2690.9
1228.856	2723.9
1233.766	2700.9
1238.672	2716.9
1243.572	2700.9
1248.467	2709.9
1253.358	2661.9
1258.244	2624.9
1263.124	2577.9
1268	2524.9
1272.871	2513.9
1277.737	2480.9
1282.599	2468.9
1287.455	2486.9
1292.306	2490.9
1297.153	2493.9
1301.995	2501.9
1306.832	2536.9
1311.664	2546.9
1316.491	2530.9
1321.314	2520.9
1326.132	2510.9
1330.945	2472.9
1335.753	2448.9
1340.556	2416.9
1345.354	2380.9
1350.148	2363.9
1354.937	2296.9
1359.722	2281.9
1364.501	2216.9
1369.276	2169.9
1374.046	2171.9
1378.811	2133.9
1383.572	2107.9
1388.327	2101.9
1393.079	2120.9
1397.825	2127.9
1402.567	2117.9
1407.304	2106.9
1412.036	2121.9
1416.764	2132.9
1421.487	2110.9
1426.205	2138.9
1430.919	2135.9
1435.628	2129.9
1440.333	2167.9
1445.032	2174.9
1449.727	2183.9
1454.418	2203.9
1459.104	2181.9
1463.785	2182.9
1468.462	2125.9
1473.134	2090.9
1477.802	2059.9
1482.465	1995.9
1487.123	1951.9
1491.777	1934.9
1496.426	1914.9
1501.071	1918.9
1505.711	1898.9
1510.347	1907.9
1514.978	1898.9
1519.604	1861.9
1524.226	1887.9
1528.844	1857.9
1533.457	1855.9
1538.065	1847.9
1542.669	1847.9
1547.269	1839.9
1551.864	1859.9
1556.454	1869.9
1561.041	1885.9
1565.622	1907.9
1570.199	1907.9
1574.772	1900.9
1579.34	1948.9
1583.904	1970.9
1588.464	1978.9
1593.019	1977.9
1597.569	1983.9
1602.115	1993.9
1606.657	1981.9
1611.195	1968.9
1615.728	1950.9
1620.256	1980.9
1624.78	1973.9
1629.3	1961.9
1633.816	1966.9
1638.327	1983.9
1642.834	1992.9
1647.336	2017.9
1651.834	2007.9
1656.328	2007.9
1660.817	1998.9
1665.302	1970.9
1669.783	1951.9
1674.259	1908.9
1678.732	1852.9
1683.199	1808.9
1687.663	1746.9
1692.122	1684.9
1696.577	1621.9
1701.028	1546.9
1705.474	1489.9
1709.917	1449.9
1714.355	1418.9
1718.788	1406.9
1723.218	1410.9
1727.643	1408.9
1732.064	1397.9
1736.481	1398.9
1740.893	1361.9
1745.301	1334.9
1749.705	1303.9
1754.105	1267.9
1758.501	1271.9
1762.893	1256.9
1767.28	1238.9
1771.663	1225.9
1776.042	1216.9
1780.417	1190.9
1784.787	1185.9
1789.154	1160.9
1793.516	1162.9
1797.874	1164.9
1802.228	1137.9
1806.578	1122.9
1810.924	1086.9
1815.266	1089.9
1819.603	1088.9
1823.937	1085.9
1828.266	1089.9
1832.591	1092.9
1836.913	1076.9
1841.23	1091.9
1845.543	1095.9
1849.852	1092.9
1854.156	1086.9
1858.457	1081.9
1862.754	1094.9
1867.047	1090.9
1871.335	1095.9
1875.62	1097.9
1879.9	1087.9
1884.177	1076.9
1888.449	1070.9
1892.718	1043.9
1896.982	1047.9
1901.243	1027.9
1905.499	1016.9
1909.752	996.9
1914	992.9
1918.245	986.9
1922.485	964.9
1926.722	971.9
1930.954	945.9
1935.183	938.9
1939.408	945.9
1943.628	947.9
1947.845	927.9
1952.058	928.9
1956.267	918.9
1960.472	913.9
1964.673	904.9
1968.87	884.9
1973.063	879.9
1977.252	877.9
1981.438	886.9
1985.619	888.9
1989.797	878.9
1993.971	880.9
1998.14	893.9
2002.306	887.9
2006.469	885.9
2010.627	891.9
2014.781	890.9
2018.932	896.9
2023.078	889.9
2027.221	885.9
2031.36	880.9
2035.495	864.9
2039.627	848.9
2043.754	830.9
2047.878	836.9
2051.998	821.9
2056.114	823.9
2060.226	828.9
2064.334	819.9
2068.439	808.9
2072.54	806.9
2076.637	809.9
2080.73	802.9
2084.82	797.9
2088.906	797.9
2092.988	785.9
2097.066	783.9
2101.14	769.9
2105.211	756.9
2109.278	756.9
2113.342	743.9
2117.401	741.9
2121.457	730.9
2125.509	724.9
2129.558	723.9
2133.602	730.9
2137.643	732.9
2141.681	722.9
2145.714	711.9
2149.744	713.9
2153.77	722.9
2157.793	709.9
2161.812	699.9
2165.827	689.9
2169.838	699.9
2173.846	682.9
2177.851	666.9
2181.851	657.9
2185.848	654.9
2189.841	648.9
2193.831	640.9
2197.817	641.9
2201.799	630.9
2205.778	638.9
2209.753	634.9
2213.725	632.9
2217.693	630.9
2221.657	620.9
2225.618	629.9
2229.575	625.9
2233.529	613.9
2237.479	612.9
2241.425	610.9
2245.368	598.9
2249.307	576.9
2253.243	585.9
2257.175	566.9
2261.104	574.9
2265.029	560.9
2268.95	570.9
2272.868	546.9
2276.783	537.9
2280.694	532.9
2284.601	527.9
2288.505	525.9
2292.405	535.9
2296.302	517.9
2300.195	498.9
2304.085	503.9
2307.971	490.9
2311.854	479.9
2315.734	469.9
2319.609	472.9
2323.482	478.9
2327.351	459.9
2331.216	474.9
2335.078	492.9
2338.937	464.9
2342.792	448.9
2346.643	442.9
2350.492	443.9
2354.336	439.9
2358.178	465.9
2362.015	444.9
2365.85	453.9
2369.681	451.9
2373.508	449.9
2377.333	440.9
2381.153	443.9
2384.971	450.9
2388.785	443.9
2392.595	437.9
2396.402	428.9
2400.206	431.9
2404.007	426.9
2407.804	434.9
2411.597	428.9
2415.388	419.9
2419.174	428.9
2422.958	402.9
2426.738	422.9
2430.515	415.9
2434.289	411.9
2438.059	408.9
2441.825	402.9
2445.589	403.9
2449.349	387.9
2453.106	393.9
2456.859	400.9
2460.61	387.9
2464.356	371.9
2468.1	366.9
2471.84	362.9
2475.577	365.9
2479.311	358.9
2483.041	350.9
2486.768	350.9
2490.492	351.9
2494.213	348.9
2497.93	345.9
2501.644	347.9
2505.355	347.9
2509.062	343.9
2512.766	340.9
2516.467	331.9
2520.165	325.9
2523.859	331.9
2527.551	324.9
2531.239	310.9
2534.923	300.9
2538.605	308.9
2542.283	301.9
2545.958	294.9
2549.63	301.9
2553.299	286.9
2556.964	301.9
2560.626	289.9
2564.285	285.9
2567.941	281.9
2571.594	296.9
2575.243	280.9
2578.89	270.9
2582.533	274.9
2586.173	265.9
2589.809	259.9
2593.443	263.9
2597.073	258.9
2600.701	250.9
2604.325	239.9
2607.946	253.9
2611.564	244.9
2615.178	243.9
2618.79	248.9
2622.398	244.9
2626.004	236.9
2629.606	231.9
2633.205	237.9
2636.801	233.9
2640.394	232.9
2643.983	227.9
2647.57	232.9
2651.153	235.9
2654.734	221.9
2658.311	210.9
2661.885	219.9
2665.456	213.9
2669.025	211.9
2672.589	204.9
2676.151	211.9
2679.71	211.9
2683.266	201.9
2686.819	198.9
2690.368	197.9
2693.915	195.9
2697.458	190.9
2700.999	188.9
2704.536	185.9
2708.071	181.9
2711.602	168.9
2715.13	176.9
2718.656	176.9
2722.178	170.9
2725.697	167.9
2729.214	158.9
2732.727	163.9
2736.237	169.9
2739.744	161.9
2743.249	159.9
2746.75	155.9
2750.248	155.9
2753.743	136.9
2757.236	152.9
2760.725	139.9
2764.211	139.9
2767.695	135.9
2771.175	124.9
2774.652	122.9
2778.127	128.9
2781.598	125.9
2785.067	129.9
2788.532	128.9
2791.995	128.9
2795.455	135.9
2798.911	137.9
2802.365	137.9
2805.816	143.9
2809.264	134.9
2812.709	143.9
2816.151	134.9
2819.59	142.9
2823.026	141.9
2826.46	138.9
2829.89	135.9
2833.318	126.9
2836.742	147.9
2840.164	131.9
2843.583	140.9
2846.999	149.9
2850.412	144.9
2853.822	144.9
2857.229	143.9
2860.634	153.9
2864.035	153.9
2867.434	148.9
2870.83	160.9
2874.223	169.9
2877.613	177.9
2881	187.9
2884.385	178.9
2887.766	176.9
2891.145	167.9
2894.521	177.9
2897.894	189.9
2901.264	179.9
2904.631	180.9
2907.996	190.9
2911.358	184.9
2914.717	195.9
2918.073	203.9
2921.426	201.9
2924.777	197.9
2928.124	210.9
2931.469	213.9
2934.811	224.9
2938.15	238.9
2941.487	234.9
2944.821	237.9
2948.152	232.9
2951.48	229.9
2954.805	238.9
2958.128	223.9
2961.447	219.9
2964.765	240.9
2968.079	230.9
2971.39	224.9
2974.699	228.9
2978.005	227.9
2981.308	238.9
2984.609	239.9
2987.907	231.9
2991.202	243.9
2994.494	236.9
2997.784	235.9
3001.07	250.9
3004.355	259.9
3007.636	254.9
3010.915	254.9
3014.191	260.9
3017.464	278.9
3020.734	269.9
3024.002	259.9
3027.267	285.9
3030.53	276.9
3033.789	289.9
3037.046	290.9
3040.301	290.9
3043.552	310.9
3046.801	322.9
3050.048	323.9
3053.291	330.9
3056.532	343.9
3059.771	362.9
3063.006	367.9
3066.239	389.9
3069.469	401.9
3072.697	409.9
3075.922	415.9
3079.144	419.9
3082.364	440.9
3085.581	456.9
3088.795	453.9
3092.007	465.9
3095.216	467.9
3098.423	494.9
3101.627	501.9
3104.828	501.9
3108.026	510.9
3111.222	529.9
3114.416	533.9
3117.607	546.9
3120.795	563.9
3123.98	578.9
3127.163	583.9
3130.344	599.9
3133.521	605.9
3136.696	626.9
3139.869	634.9
3143.039	645.9
3146.206	658.9
3149.371	672.9
3152.533	678.9
3155.693	682.9
3158.85	694.9
3162.005	691.9
3165.157	685.9
3168.306	697.9
3171.453	692.9
3174.597	699.9
3177.739	714.9
3180.878	707.9
3184.014	727.9
3187.149	715.9
3190.28	721.9
3193.409	719.9
3196.536	728.9
3199.659	731.9
3202.781	740.9
3205.9	733.9
3209.016	729.9
3212.13	742.9
3215.241	737.9
3218.35	724.9
3221.456	705.9
3224.56	706.9
3227.661	702.9
3230.76	690.9
3233.856	689.9
3236.95	667.9
3240.041	672.9
3243.13	650.9
3246.216	645.9
3249.3	630.9
3252.382	631.9
3255.46	628.9
3258.537	609.9
3261.611	615.9
3264.682	611.9
3267.751	602.9
3270.818	594.9
3273.882	584.9
3276.943	599.9
3280.002	586.9
3283.059	581.9
3286.113	578.9
3289.165	580.9
3292.214	573.9
3295.261	544.9
3298.306	546.9
3301.348	545.9
3304.387	548.9
3307.425	543.9
3310.459	523.9
3313.492	524.9
3316.521	522.9
3319.549	513.9
3322.574	504.9
3325.597	502.9
3328.617	516.9
3331.635	502.9
3334.65	499.9
3337.663	485.9
3340.674	502.9
3343.682	493.9
3346.688	485.9
3349.691	499.9
3352.692	494.9
3355.691	495.9
3358.687	482.9
3361.681	487.9
3364.673	473.9
3367.662	464.9
3370.649	455.9
3373.633	454.9
3376.615	437.9
3379.595	436.9
3382.572	437.9
3385.547	417.9
3388.52	418.9
3391.49	407.9
3394.458	403.9
3397.424	398.9
3400.387	391.9
3403.348	391.9
3406.307	377.9
3409.263	378.9
3412.217	370.9
3415.168	376.9
3418.118	364.9
3421.065	353.9
3424.009	358.9
3426.951	350.9
3429.891	349.9
3432.829	326.9
3435.764	326.9
3438.697	310.9
3441.628	304.9
3444.557	294.9
3447.483	293.9
3450.407	259.9
3453.328	265.9
3456.247	250.9
3459.164	247.9
3462.079	228.9
3464.991	225.9
3467.902	211.9
3470.809	206.9
3473.715	195.9
3476.618	180.9
3479.519	188.9
3482.418	177.9
3485.315	166.9
3488.209	156.9
3491.101	148.9
3493.99	152.9
3496.878	138.9
3499.763	122.9
3502.646	124.9
3505.527	114.9
3508.405	112.9
3511.281	101.9
3514.155	91.9
3517.027	87.9
3519.897	78.9
3522.764	66.9
3525.629	57.9
3528.492	52.9
3531.352	54.9
3534.211	43.9
3537.067	36.9
3539.921	35.9
3542.773	17.9
3545.622	14.9
3548.469	14.9
3551.315	14.9
3554.157	-0.1
3556.998	-8.1
3559.837	-9.1
3562.673	-9.1
3565.507	-14.1
3568.339	-21.1
3571.169	-28.1
3573.996	-25.1
3576.822	-27.1
3579.645	-29.1
3582.466	-35.1
3585.285	-41.1
3588.101	-41.1
3590.916	-51.1
3593.728	-52.1
3596.538	-59.1
3599.346	-58.1
3602.152	-57.1
3604.956	-62.1
3607.757	-64.1
3610.556	-73.1
3613.354	-64.1
3616.149	-78.1
3618.942	-79.1
3621.732	-80.1
3624.521	-82.1
3627.307	-75.1
3630.092	-77.1
3632.874	-84.1
3635.654	-90.1
3638.432	-87.1
3641.208	-84.1
3643.982	-98.1
3646.753	-93.1
3649.523	-99.1
3652.29	-90.1
3655.055	-99.1
3657.818	-102.1
3660.579	-102.1
3663.338	-106.1
3666.095	-106.1
3668.849	-106.1
3671.602	-106.1
3674.352	-106.1
3677.101	-116.1
3679.847	-115.1
3682.591	-120.1
3685.333	-116.1
3688.073	-112.1
3690.811	-115.1
3693.547	-125.1
3696.281	-117.1
3699.013	-120.1
3701.742	-128.1
3704.47	-129.1
3707.195	-127.1
3709.919	-123.1
3712.64	-123.1
3715.359	-125.1
3718.076	-127.1
3720.792	-125.1
3723.505	-134.1
3726.216	-125.1
3728.925	-129.1
3731.632	-131.1
3734.336	-138.1
3737.039	-134.1
3739.74	-131.1
3742.439	-140.1
3745.136	-129.1
3747.83	-136.1
3750.523	-133.1
3753.213	-134.1
3755.902	-127.1
3758.589	-139.1
3761.273	-128.1
3763.956	-129.1
3766.636	-131.1
3769.315	-131.1
3771.991	-135.1
3774.665	-140.1
3777.338	-130.1
3780.008	-132.1
3782.677	-131.1
3785.343	-134.1
3788.007	-136.1
3790.67	-138.1
3793.33	-133.1
3795.989	-138.1
3798.645	-136.1
3801.299	-133.1
3803.952	-139.1
3806.602	-133.1
3809.251	-143.1
3811.897	-141.1
3814.542	-140.1
3817.184	-136.1
3819.825	-137.1
3822.463	-139.1
3825.1	-137.1
3827.735	-132.1
3830.367	-137.1
3832.998	-140.1
3835.627	-138.1
3838.253	-140.1
3840.878	-138.1
3843.501	-137.1
3846.122	-140.1
3848.741	-145.1
3851.358	-132.1
3853.973	-141.1
3856.586	-141.1
3859.197	-145.1
3861.806	-140.1
3864.414	-145.1
3867.019	-135.1
3869.622	-139.1
3872.224	-130.1
3874.823	-122.1
3877.421	-112.1
3880.016	-96.1
3882.61	-70.1
3885.202	-80.1
3887.792	-88.1
3890.38	-108.1
3892.966	-128.1
3895.55	-136.1
3898.132	-137.1
3900.713	-140.1
3903.291	-146.1
3905.868	-144.1
3908.442	-134.1
3911.015	-143.1
3913.586	-143.1
3916.155	-143.1
3918.722	-143.1
3921.287	-144.1
3923.85	-145.1
3926.411	-147.1
3928.971	-142.1
3931.528	-143.1
3934.084	-138.1
3936.638	-139.1
3939.19	-146.1
3941.74	-142.1
3944.288	-142.1
3946.834	-137.1
3949.378	-143.1
3951.921	-143.1
3954.462	-144.1
3957	-143.1
3959.537	-141.1
3962.072	-150.1
3964.606	-136.1
3967.137	-142.1
3969.667	-145.1
3972.194	-153.1
3974.72	-142.1
3977.244	-142.1
3979.766	-139.1
3982.286	-143.1
3984.805	-148.1
3987.321	-138.1
3989.836	-132.1
3992.349	-139.1
3994.86	-142.1
3997.369	-144.1
3999.877	-144.1
4002.382	-136.1
4004.886	-143.1
4007.388	-142.1
4009.888	-139.1
4012.386	-143.1
4014.883	-145.1
4017.377	-135.1
4019.87	-139.1
4022.361	-142.1
4024.85	-142.1
4027.338	-146.1
4029.823	-139.1
4032.307	-137.1
4034.789	-144.1
4037.269	-142.1
4039.747	-138.1
4042.224	-141.1
4044.699	-144.1
4047.172	-143.1
4049.643	-141.1
4052.112	-134.1
4054.58	-138.1
4057.046	-138.1
4059.51	-146.1
4061.972	-137.1
4064.432	-145.1
4066.891	-143.1
4069.348	-138.1
4071.803	-145.1
4074.256	-140.1
4076.708	-137.1
4079.158	-139.1
4081.606	-136.1
4084.052	-140.1
4086.497	-144.1
4088.939	-133.1
4091.38	-141.1
4093.819	-139.1
4096.257	-148.1
4098.693	-147.1
4101.127	-147.1
4103.559	-142.1
4105.989	-7.1
4108.418	-3.1
4110.845	-11.1
4113.27	-10.1
4115.694	-17.1
4118.115	-17.1
4120.535	-140.1
4122.954	-139.1
4125.37	-138.1
4127.785	-144.1
4130.198	-142.1
4132.609	-145.1
4135.019	-150.1
4137.427	-146.1
4139.833	-148.1
4142.237	-147.1
