Data from 2018-2-8_conc=2_n=6_RamanShift_01.txt Node
Date: Mon Mar 12 14:12:58 IST 2018
User: aro
Spectrometer: QEPB0276
Trigger mode: 0
Integration Time (sec): 3.000000E1
Scans to average: 1
Electric dark correction enabled: true
Nonlinearity correction enabled: false
Boxcar width: 0
XAxis mode: Raman Shifts
Number of Pixels in Spectrum: 1044
>>>>>Begin Spectral Data<<<<<
160.701	24.5
166.742	51.5
172.777	121.5
178.805	368.5
184.826	976.5
190.841	2125.5
196.849	3528.5
202.85	4633.5
208.845	5069.5
214.833	5097.5
220.815	4970.5
226.789	4981.5
232.758	4948.5
238.719	5000.5
244.674	4955.5
250.623	4886.5
256.565	4799.5
262.5	4766.5
268.429	4694.5
274.351	4636.5
280.267	4624.5
286.176	4576.5
292.079	4562.5
297.975	4564.5
303.865	4515.5
309.748	4534.5
315.625	4504.5
321.495	4506.5
327.359	4496.5
333.217	4515.5
339.068	4520.5
344.912	4559.5
350.751	4515.5
356.583	4551.5
362.408	4545.5
368.227	4554.5
374.04	4565.5
379.847	4569.5
385.647	4612.5
391.44	4609.5
397.228	4642.5
403.009	4654.5
408.784	4731.5
414.553	4695.5
420.315	4698.5
426.071	4718.5
431.821	4724.5
437.565	4689.5
443.302	4700.5
449.033	4707.5
454.758	4683.5
460.477	4687.5
466.189	4633.5
471.896	4600.5
477.596	4557.5
483.29	4525.5
488.978	4533.5
494.66	4517.5
500.335	4449.5
506.005	4347.5
511.668	4181.5
517.325	4077.5
522.977	3960.5
528.622	3874.5
534.261	3832.5
539.894	3760.5
545.521	3716.5
551.141	3704.5
556.756	3661.5
562.365	3662.5
567.968	3636.5
573.565	3590.5
579.155	3592.5
584.74	3577.5
590.319	3564.5
595.892	3539.5
601.459	3524.5
607.02	3530.5
612.575	3504.5
618.124	3478.5
623.667	3447.5
629.204	3422.5
634.735	3387.5
640.261	3376.5
645.781	3359.5
651.294	3326.5
656.802	3332.5
662.304	3297.5
667.8	3298.5
673.29	3291.5
678.775	3296.5
684.254	3252.5
689.726	3255.5
695.193	3251.5
700.655	3213.5
706.11	3199.5
711.56	3178.5
717.004	3180.5
722.442	3174.5
727.874	3163.5
733.301	3178.5
738.722	3122.5
744.137	3104.5
749.547	3109.5
754.951	3102.5
760.349	3097.5
765.741	3124.5
771.128	3110.5
776.509	3129.5
781.885	3174.5
787.254	3172.5
792.618	3195.5
797.977	3170.5
803.33	3118.5
808.677	3121.5
814.019	3097.5
819.355	3072.5
824.686	3060.5
830.011	3031.5
835.33	3013.5
840.644	3013.5
845.952	3002.5
851.255	3005.5
856.552	2990.5
861.844	2958.5
867.13	2955.5
872.41	2930.5
877.686	2919.5
882.955	2895.5
888.219	2866.5
893.478	2828.5
898.731	2790.5
903.979	2771.5
909.221	2735.5
914.458	2720.5
919.69	2721.5
924.916	2714.5
930.136	2727.5
935.351	2740.5
940.561	2751.5
945.766	2726.5
950.965	2704.5
956.158	2700.5
961.347	2662.5
966.529	2643.5
971.707	2589.5
976.879	2572.5
982.046	2533.5
987.208	2515.5
992.364	2519.5
997.515	2536.5
1002.66	2554.5
1007.801	2600.5
1012.936	2622.5
1018.066	2612.5
1023.19	2617.5
1028.309	2600.5
1033.423	2610.5
1038.532	2592.5
1043.636	2556.5
1048.734	2531.5
1053.827	2529.5
1058.915	2501.5
1063.998	2479.5
1069.075	2451.5
1074.147	2465.5
1079.214	2484.5
1084.276	2497.5
1089.333	2496.5
1094.385	2499.5
1099.431	2505.5
1104.472	2486.5
1109.509	2476.5
1114.54	2433.5
1119.565	2395.5
1124.586	2355.5
1129.602	2347.5
1134.613	2328.5
1139.618	2324.5
1144.619	2308.5
1149.614	2306.5
1154.604	2324.5
1159.589	2318.5
1164.57	2338.5
1169.545	2334.5
1174.515	2326.5
1179.48	2326.5
1184.44	2304.5
1189.395	2273.5
1194.345	2263.5
1199.29	2273.5
1204.23	2256.5
1209.165	2267.5
1214.095	2268.5
1219.021	2280.5
1223.941	2287.5
1228.856	2301.5
1233.766	2298.5
1238.672	2319.5
1243.572	2309.5
1248.467	2301.5
1253.358	2274.5
1258.244	2219.5
1263.124	2197.5
1268	2162.5
1272.871	2145.5
1277.737	2103.5
1282.599	2092.5
1287.455	2094.5
1292.306	2101.5
1297.153	2099.5
1301.995	2124.5
1306.832	2138.5
1311.664	2173.5
1316.491	2167.5
1321.314	2169.5
1326.132	2125.5
1330.945	2118.5
1335.753	2068.5
1340.556	2049.5
1345.354	2027.5
1350.148	1986.5
1354.937	1971.5
1359.722	1926.5
1364.501	1896.5
1369.276	1869.5
1374.046	1850.5
1378.811	1794.5
1383.572	1788.5
1388.327	1805.5
1393.079	1797.5
1397.825	1804.5
1402.567	1801.5
1407.304	1801.5
1412.036	1810.5
1416.764	1798.5
1421.487	1812.5
1426.205	1816.5
1430.919	1815.5
1435.628	1813.5
1440.333	1862.5
1445.032	1832.5
1449.727	1867.5
1454.418	1879.5
1459.104	1877.5
1463.785	1859.5
1468.462	1832.5
1473.134	1781.5
1477.802	1741.5
1482.465	1694.5
1487.123	1671.5
1491.777	1664.5
1496.426	1630.5
1501.071	1621.5
1505.711	1618.5
1510.347	1625.5
1514.978	1619.5
1519.604	1602.5
1524.226	1601.5
1528.844	1579.5
1533.457	1596.5
1538.065	1565.5
1542.669	1575.5
1547.269	1586.5
1551.864	1568.5
1556.454	1605.5
1561.041	1601.5
1565.622	1616.5
1570.199	1634.5
1574.772	1633.5
1579.34	1646.5
1583.904	1663.5
1588.464	1702.5
1593.019	1697.5
1597.569	1693.5
1602.115	1690.5
1606.657	1696.5
1611.195	1678.5
1615.728	1669.5
1620.256	1687.5
1624.78	1678.5
1629.3	1661.5
1633.816	1691.5
1638.327	1691.5
1642.834	1698.5
1647.336	1711.5
1651.834	1698.5
1656.328	1706.5
1660.817	1676.5
1665.302	1687.5
1669.783	1641.5
1674.259	1622.5
1678.732	1575.5
1683.199	1544.5
1687.663	1483.5
1692.122	1439.5
1696.577	1389.5
1701.028	1318.5
1705.474	1285.5
1709.917	1232.5
1714.355	1197.5
1718.788	1212.5
1723.218	1201.5
1727.643	1189.5
1732.064	1177.5
1736.481	1175.5
1740.893	1155.5
1745.301	1132.5
1749.705	1118.5
1754.105	1097.5
1758.501	1091.5
1762.893	1054.5
1767.28	1040.5
1771.663	1018.5
1776.042	1024.5
1780.417	1009.5
1784.787	1002.5
1789.154	996.5
1793.516	997.5
1797.874	976.5
1802.228	962.5
1806.578	957.5
1810.924	961.5
1815.266	927.5
1819.603	916.5
1823.937	930.5
1828.266	905.5
1832.591	918.5
1836.913	917.5
1841.23	927.5
1845.543	926.5
1849.852	942.5
1854.156	922.5
1858.457	936.5
1862.754	921.5
1867.047	925.5
1871.335	938.5
1875.62	926.5
1879.9	923.5
1884.177	912.5
1888.449	905.5
1892.718	886.5
1896.982	877.5
1901.243	873.5
1905.499	856.5
1909.752	837.5
1914	836.5
1918.245	829.5
1922.485	814.5
1926.722	807.5
1930.954	809.5
1935.183	802.5
1939.408	799.5
1943.628	795.5
1947.845	790.5
1952.058	767.5
1956.267	786.5
1960.472	769.5
1964.673	755.5
1968.87	760.5
1973.063	758.5
1977.252	752.5
1981.438	748.5
1985.619	755.5
1989.797	734.5
1993.971	746.5
1998.14	751.5
2002.306	738.5
2006.469	750.5
2010.627	758.5
2014.781	755.5
2018.932	749.5
2023.078	753.5
2027.221	742.5
2031.36	726.5
2035.495	726.5
2039.627	724.5
2043.754	699.5
2047.878	712.5
2051.998	686.5
2056.114	699.5
2060.226	689.5
2064.334	694.5
2068.439	690.5
2072.54	680.5
2076.637	687.5
2080.73	676.5
2084.82	663.5
2088.906	675.5
2092.988	662.5
2097.066	652.5
2101.14	636.5
2105.211	641.5
2109.278	637.5
2113.342	621.5
2117.401	614.5
2121.457	613.5
2125.509	604.5
2129.558	612.5
2133.602	605.5
2137.643	619.5
2141.681	614.5
2145.714	594.5
2149.744	610.5
2153.77	609.5
2157.793	597.5
2161.812	598.5
2165.827	582.5
2169.838	590.5
2173.846	575.5
2177.851	556.5
2181.851	554.5
2185.848	555.5
2189.841	553.5
2193.831	552.5
2197.817	530.5
2201.799	543.5
2205.778	528.5
2209.753	525.5
2213.725	524.5
2217.693	543.5
2221.657	535.5
2225.618	523.5
2229.575	528.5
2233.529	521.5
2237.479	512.5
2241.425	504.5
2245.368	487.5
2249.307	481.5
2253.243	485.5
2257.175	472.5
2261.104	481.5
2265.029	459.5
2268.95	459.5
2272.868	462.5
2276.783	443.5
2280.694	438.5
2284.601	445.5
2288.505	430.5
2292.405	435.5
2296.302	416.5
2300.195	425.5
2304.085	412.5
2307.971	402.5
2311.854	405.5
2315.734	390.5
2319.609	376.5
2323.482	385.5
2327.351	384.5
2331.216	402.5
2335.078	402.5
2338.937	375.5
2342.792	370.5
2346.643	371.5
2350.492	373.5
2354.336	364.5
2358.178	361.5
2362.015	370.5
2365.85	369.5
2369.681	368.5
2373.508	371.5
2377.333	365.5
2381.153	359.5
2384.971	370.5
2388.785	359.5
2392.595	366.5
2396.402	362.5
2400.206	357.5
2404.007	352.5
2407.804	359.5
2411.597	344.5
2415.388	346.5
2419.174	338.5
2422.958	336.5
2426.738	336.5
2430.515	335.5
2434.289	337.5
2438.059	328.5
2441.825	322.5
2445.589	325.5
2449.349	316.5
2453.106	310.5
2456.859	318.5
2460.61	325.5
2464.356	302.5
2468.1	293.5
2471.84	298.5
2475.577	300.5
2479.311	280.5
2483.041	281.5
2486.768	287.5
2490.492	285.5
2494.213	283.5
2497.93	287.5
2501.644	273.5
2505.355	279.5
2509.062	269.5
2512.766	272.5
2516.467	268.5
2520.165	266.5
2523.859	262.5
2527.551	258.5
2531.239	249.5
2534.923	247.5
2538.605	236.5
2542.283	240.5
2545.958	236.5
2549.63	245.5
2553.299	234.5
2556.964	237.5
2560.626	226.5
2564.285	227.5
2567.941	234.5
2571.594	223.5
2575.243	224.5
2578.89	218.5
2582.533	208.5
2586.173	211.5
2589.809	197.5
2593.443	212.5
2597.073	201.5
2600.701	200.5
2604.325	195.5
2607.946	195.5
2611.564	200.5
2615.178	197.5
2618.79	196.5
2622.398	191.5
2626.004	188.5
2629.606	188.5
2633.205	183.5
2636.801	183.5
2640.394	176.5
2643.983	183.5
2647.57	178.5
2651.153	175.5
2654.734	179.5
2658.311	171.5
2661.885	163.5
2665.456	180.5
2669.025	176.5
2672.589	166.5
2676.151	168.5
2679.71	160.5
2683.266	155.5
2686.819	160.5
2690.368	153.5
2693.915	147.5
2697.458	150.5
2700.999	156.5
2704.536	148.5
2708.071	137.5
2711.602	134.5
2715.13	139.5
2718.656	139.5
2722.178	128.5
2725.697	127.5
2729.214	122.5
2732.727	128.5
2736.237	134.5
2739.744	120.5
2743.249	127.5
2746.75	119.5
2750.248	113.5
2753.743	109.5
2757.236	109.5
2760.725	100.5
2764.211	98.5
2767.695	105.5
2771.175	92.5
2774.652	101.5
2778.127	96.5
2781.598	103.5
2785.067	101.5
2788.532	96.5
2791.995	108.5
2795.455	109.5
2798.911	93.5
2802.365	106.5
2805.816	103.5
2809.264	104.5
2812.709	106.5
2816.151	104.5
2819.59	108.5
2823.026	98.5
2826.46	100.5
2829.89	95.5
2833.318	98.5
2836.742	101.5
2840.164	101.5
2843.583	108.5
2846.999	104.5
2850.412	100.5
2853.822	110.5
2857.229	111.5
2860.634	108.5
2864.035	117.5
2867.434	119.5
2870.83	127.5
2874.223	134.5
2877.613	141.5
2881	149.5
2884.385	146.5
2887.766	132.5
2891.145	141.5
2894.521	141.5
2897.894	146.5
2901.264	148.5
2904.631	153.5
2907.996	152.5
2911.358	146.5
2914.717	154.5
2918.073	156.5
2921.426	158.5
2924.777	168.5
2928.124	175.5
2931.469	172.5
2934.811	185.5
2938.15	191.5
2941.487	185.5
2944.821	184.5
2948.152	184.5
2951.48	186.5
2954.805	195.5
2958.128	178.5
2961.447	188.5
2964.765	181.5
2968.079	185.5
2971.39	182.5
2974.699	187.5
2978.005	182.5
2981.308	182.5
2984.609	193.5
2987.907	188.5
2991.202	201.5
2994.494	192.5
2997.784	198.5
3001.07	202.5
3004.355	211.5
3007.636	213.5
3010.915	202.5
3014.191	207.5
3017.464	223.5
3020.734	207.5
3024.002	219.5
3027.267	228.5
3030.53	231.5
3033.789	229.5
3037.046	240.5
3040.301	251.5
3043.552	259.5
3046.801	267.5
3050.048	266.5
3053.291	274.5
3056.532	288.5
3059.771	291.5
3063.006	309.5
3066.239	329.5
3069.469	339.5
3072.697	337.5
3075.922	349.5
3079.144	357.5
3082.364	352.5
3085.581	371.5
3088.795	372.5
3092.007	391.5
3095.216	389.5
3098.423	404.5
3101.627	414.5
3104.828	418.5
3108.026	426.5
3111.222	444.5
3114.416	459.5
3117.607	461.5
3120.795	472.5
3123.98	480.5
3127.163	486.5
3130.344	512.5
3133.521	505.5
3136.696	525.5
3139.869	542.5
3143.039	560.5
3146.206	549.5
3149.371	560.5
3152.533	562.5
3155.693	575.5
3158.85	573.5
3162.005	594.5
3165.157	583.5
3168.306	596.5
3171.453	608.5
3174.597	596.5
3177.739	614.5
3180.878	607.5
3184.014	613.5
3187.149	604.5
3190.28	611.5
3193.409	610.5
3196.536	612.5
3199.659	622.5
3202.781	631.5
3205.9	633.5
3209.016	636.5
3212.13	622.5
3215.241	621.5
3218.35	617.5
3221.456	598.5
3224.56	605.5
3227.661	591.5
3230.76	579.5
3233.856	576.5
3236.95	570.5
3240.041	555.5
3243.13	536.5
3246.216	536.5
3249.3	531.5
3252.382	541.5
3255.46	525.5
3258.537	526.5
3261.611	527.5
3264.682	520.5
3267.751	518.5
3270.818	507.5
3273.882	496.5
3276.943	493.5
3280.002	501.5
3283.059	496.5
3286.113	498.5
3289.165	487.5
3292.214	483.5
3295.261	464.5
3298.306	465.5
3301.348	466.5
3304.387	460.5
3307.425	452.5
3310.459	451.5
3313.492	435.5
3316.521	440.5
3319.549	432.5
3322.574	430.5
3325.597	426.5
3328.617	421.5
3331.635	434.5
3334.65	422.5
3337.663	401.5
3340.674	417.5
3343.682	421.5
3346.688	418.5
3349.691	418.5
3352.692	408.5
3355.691	418.5
3358.687	409.5
3361.681	407.5
3364.673	397.5
3367.662	395.5
3370.649	376.5
3373.633	382.5
3376.615	371.5
3379.595	364.5
3382.572	362.5
3385.547	355.5
3388.52	347.5
3391.49	342.5
3394.458	349.5
3397.424	332.5
3400.387	330.5
3403.348	327.5
3406.307	313.5
3409.263	311.5
3412.217	311.5
3415.168	314.5
3418.118	300.5
3421.065	302.5
3424.009	295.5
3426.951	293.5
3429.891	283.5
3432.829	272.5
3435.764	259.5
3438.697	256.5
3441.628	251.5
3444.557	237.5
3447.483	239.5
3450.407	214.5
3453.328	221.5
3456.247	202.5
3459.164	195.5
3462.079	190.5
3464.991	183.5
3467.902	171.5
3470.809	181.5
3473.715	159.5
3476.618	146.5
3479.519	143.5
3482.418	142.5
3485.315	123.5
3488.209	118.5
3491.101	125.5
3493.99	126.5
3496.878	112.5
3499.763	101.5
3502.646	89.5
3505.527	82.5
3508.405	81.5
3511.281	77.5
3514.155	62.5
3517.027	61.5
3519.897	50.5
3522.764	45.5
3525.629	46.5
3528.492	34.5
3531.352	23.5
3534.211	21.5
3537.067	14.5
3539.921	10.5
3542.773	9.5
3545.622	-3.5
3548.469	-5.5
3551.315	-7.5
3554.157	-21.5
3556.998	-24.5
3559.837	-15.5
3562.673	-22.5
3565.507	-27.5
3568.339	-27.5
3571.169	-44.5
3573.996	-40.5
3576.822	-33.5
3579.645	-32.5
3582.466	-37.5
3585.285	-50.5
3588.101	-41.5
3590.916	-52.5
3593.728	-67.5
3596.538	-59.5
3599.346	-69.5
3602.152	-62.5
3604.956	-66.5
3607.757	-60.5
3610.556	-69.5
3613.354	-67.5
3616.149	-85.5
3618.942	-85.5
3621.732	-77.5
3624.521	-77.5
3627.307	-78.5
3630.092	-84.5
3632.874	-83.5
3635.654	-88.5
3638.432	-89.5
3641.208	-90.5
3643.982	-93.5
3646.753	-96.5
3649.523	-95.5
3652.29	-94.5
3655.055	-95.5
3657.818	-101.5
3660.579	-98.5
3663.338	-97.5
3666.095	-104.5
3668.849	-103.5
3671.602	-106.5
3674.352	-108.5
3677.101	-109.5
3679.847	-112.5
3682.591	-119.5
3685.333	-112.5
3688.073	-111.5
3690.811	-111.5
3693.547	-120.5
3696.281	-118.5
3699.013	-116.5
3701.742	-123.5
3704.47	-121.5
3707.195	-115.5
3709.919	-119.5
3712.64	-119.5
3715.359	-126.5
3718.076	-124.5
3720.792	-125.5
3723.505	-131.5
3726.216	-123.5
3728.925	-126.5
3731.632	-121.5
3734.336	-136.5
3737.039	-129.5
3739.74	-129.5
3742.439	-137.5
3745.136	-122.5
3747.83	-131.5
3750.523	-125.5
3753.213	-135.5
3755.902	-126.5
3758.589	-131.5
3761.273	-126.5
3763.956	-122.5
3766.636	-130.5
3769.315	-130.5
3771.991	-124.5
3774.665	-131.5
3777.338	-121.5
3780.008	-128.5
3782.677	-135.5
3785.343	-131.5
3788.007	-133.5
3790.67	-132.5
3793.33	-124.5
3795.989	-128.5
3798.645	-125.5
3801.299	-129.5
3803.952	-141.5
3806.602	-129.5
3809.251	-139.5
3811.897	-138.5
3814.542	-133.5
3817.184	-129.5
3819.825	-134.5
3822.463	-132.5
3825.1	-132.5
3827.735	-139.5
3830.367	-137.5
3832.998	-139.5
3835.627	-129.5
3838.253	-131.5
3840.878	-132.5
3843.501	-131.5
3846.122	-133.5
3848.741	-141.5
3851.358	-136.5
3853.973	-144.5
3856.586	-130.5
3859.197	-139.5
3861.806	-131.5
3864.414	-138.5
3867.019	-128.5
3869.622	-134.5
3872.224	-124.5
3874.823	-112.5
3877.421	-97.5
3880.016	-72.5
3882.61	-52.5
3885.202	-47.5
3887.792	-64.5
3890.38	-96.5
3892.966	-117.5
3895.55	-129.5
3898.132	-128.5
3900.713	-130.5
3903.291	-135.5
3905.868	-133.5
3908.442	-133.5
3911.015	-136.5
3913.586	-141.5
3916.155	-142.5
3918.722	-139.5
3921.287	-135.5
3923.85	-136.5
3926.411	-136.5
3928.971	-131.5
3931.528	-140.5
3934.084	-136.5
3936.638	-132.5
3939.19	-141.5
3941.74	-142.5
3944.288	-137.5
3946.834	-137.5
3949.378	-133.5
3951.921	-138.5
3954.462	-139.5
3957	-141.5
3959.537	-135.5
3962.072	-137.5
3964.606	-132.5
3967.137	-138.5
3969.667	-138.5
3972.194	-141.5
3974.72	-132.5
3977.244	-140.5
3979.766	-137.5
3982.286	-136.5
3984.805	-137.5
3987.321	-136.5
3989.836	-126.5
3992.349	-133.5
3994.86	-136.5
3997.369	-138.5
3999.877	-135.5
4002.382	-135.5
4004.886	-138.5
4007.388	-134.5
4009.888	-129.5
4012.386	-134.5
4014.883	-133.5
4017.377	-133.5
4019.87	-131.5
4022.361	-139.5
4024.85	-133.5
4027.338	-137.5
4029.823	-129.5
4032.307	-132.5
4034.789	-140.5
4037.269	-135.5
4039.747	-132.5
4042.224	-133.5
4044.699	-138.5
4047.172	-136.5
4049.643	-130.5
4052.112	-133.5
4054.58	-133.5
4057.046	-133.5
4059.51	-136.5
4061.972	-133.5
4064.432	-130.5
4066.891	-139.5
4069.348	-133.5
4071.803	-134.5
4074.256	-137.5
4076.708	-128.5
4079.158	-137.5
4081.606	-129.5
4084.052	-140.5
4086.497	-140.5
4088.939	-133.5
4091.38	-130.5
4093.819	-133.5
4096.257	-143.5
4098.693	-135.5
4101.127	-139.5
4103.559	-138.5
4105.989	12.5
4108.418	6.5
4110.845	9.5
4113.27	6.5
4115.694	-3.5
4118.115	3.5
4120.535	-132.5
4122.954	-138.5
4125.37	-130.5
4127.785	-135.5
4130.198	-137.5
4132.609	-134.5
4135.019	-141.5
4137.427	-138.5
4139.833	-142.5
4142.237	-143.5
